# Matter power spectrum P(k) at redshift z=99
# for k=1.04775e-05 to 66.1767 h/Mpc,
# number of wavenumbers equal to 130
#    1:k (h/Mpc)              2:P (Mpc/h)^3        
       1.047750691046e-05       7.261927681105e-03 
       1.319039970183e-05       9.069258202154e-03 
       1.660572937635e-05       1.132639106763e-02 
       2.090537469327e-05       1.414527123446e-02 
       2.631830744443e-05       1.766569584117e-02 
       3.313278603720e-05       2.206225516016e-02 
       4.171170630578e-05       2.755297766369e-02 
       5.251192703764e-05       3.441013523063e-02 
       6.610859936996e-05       4.297372172921e-02 
       8.322579568497e-05       5.366826853123e-02 
       1.047750691046e-04       6.702379872998e-02 
       1.319039970183e-04       8.370193441565e-02 
       1.660572937635e-04       1.045283355419e-01 
       2.090537469327e-04       1.305329134147e-01 
       2.631830744443e-04       1.629994506659e-01 
       3.313278603720e-04       2.035264004668e-01 
       4.171170630578e-04       2.541004744324e-01 
       5.251192703764e-04       3.171839528657e-01 
       6.610859936996e-04       3.958147256631e-01 
       8.322579568497e-04       4.937136006413e-01 
       1.047750691046e-03       6.153841636189e-01 
       1.319039970183e-03       7.661720593011e-01 
       1.660572937635e-03       9.522588016543e-01 
       2.090537469327e-03       1.180312991686e+00 
       2.631830744443e-03       1.456802684611e+00 
       3.313278603720e-03       1.786503853822e+00 
       4.171170630578e-03       2.169896192720e+00 
       5.251192703764e-03       2.599430629218e+00 
       6.610859936996e-03       3.055668701399e+00 
       8.322579568497e-03       3.505725589379e+00 
       1.047750691046e-02       3.905491055651e+00 
       1.319039970183e-02       4.200915242482e+00 
       1.660572937633e-02       4.325062058363e+00 
       2.090537453514e-02       4.210200205254e+00 
       2.631818545635e-02       3.825145675051e+00 
       3.311571692125e-02       3.229059427848e+00 
       4.113809243311e-02       2.627725458623e+00 
       4.792590854610e-02       2.280792272577e+00 
       5.284436902701e-02       2.110083472373e+00 
       5.689644391095e-02       2.003533115291e+00 
       6.051252627066e-02       1.923055927757e+00 
       6.388413457411e-02       1.852729344247e+00 
       6.711249296401e-02       1.784564170017e+00 
       7.025823437965e-02       1.714271666033e+00 
       7.336115587705e-02       1.639811512578e+00 
       7.644928796912e-02       1.560658364725e+00 
       7.954353299775e-02       1.477449194477e+00 
       8.266024078725e-02       1.391692021860e+00 
       8.581273398637e-02       1.305457406116e+00 
       8.901225918437e-02       1.221118946452e+00 
       9.226860540985e-02       1.141076263265e+00 
       9.559052048996e-02       1.067448028089e+00 
       9.898599946599e-02       1.001887074884e+00 
       1.024624891378e-01       9.453784755927e-01 
       1.060270359164e-01       8.981456717768e-01 
       1.096863943056e-01       8.596096042986e-01 
       1.134471073830e-01       8.284006979247e-01 
       1.173155669539e-01       8.024622816344e-01 
       1.212980586983e-01       7.792257097489e-01 
       1.254007961065e-01       7.559146834223e-01 
       1.296299459934e-01       7.299782530331e-01 
       1.339916477160e-01       6.995885115101e-01 
       1.384920277736e-01       6.640738206657e-01 
       1.431372111762e-01       6.241418054920e-01 
       1.479333307714e-01       5.817592985837e-01 
       1.528865355934e-01       5.396857966318e-01 
       1.580029992204e-01       5.008089100039e-01 
       1.632889290723e-01       4.673936449106e-01 
       1.687505775527e-01       4.405293239039e-01 
       1.743942559171e-01       4.198606590931e-01 
       1.802263517371e-01       4.036539292201e-01 
       1.862533508214e-01       3.893546660220e-01 
       1.924818644494e-01       3.741295169756e-01 
       1.989186627765e-01       3.557964286979e-01 
       2.055707152847e-01       3.339949258250e-01 
       2.124452391818e-01       3.102605329511e-01 
       2.195497567139e-01       2.871173273504e-01 
       2.268921624510e-01       2.668034098679e-01 
       2.344808017550e-01       2.504779944917e-01 
       2.423245618548e-01       2.378290731791e-01 
       2.504329772620e-01       2.271077450883e-01 
       2.588163516754e-01       2.161113195400e-01 
       2.674858990930e-01       2.035407364629e-01 
       2.764539076010e-01       1.895921810155e-01 
       2.857339303080e-01       1.757522318336e-01 
       2.953410092148e-01       1.636947606109e-01 
       3.052919395542e-01       1.539015895237e-01 
       3.156055844677e-01       1.455261472304e-01 
       3.263032530092e-01       1.372450973903e-01 
       3.374091587054e-01       1.282969878385e-01 
       3.489509817175e-01       1.191666418128e-01 
       3.609605657343e-01       1.108030884091e-01 
       3.734747921333e-01       1.036405697615e-01 
       3.865366902904e-01       9.713689801977e-02 
       4.001968667448e-01       9.061077490448e-02 
       4.145153713076e-01       8.403250495279e-02 
       4.295641718077e-01       7.788687440208e-02 
       4.454304922144e-01       7.233715020746e-02 
       4.622214006969e-01       6.708939922240e-02 
       4.800702491654e-01       6.188750898837e-02 
       4.991459272112e-01       5.692220887847e-02 
       5.196665217302e-01       5.231184472181e-02 
       5.419201087032e-01       4.782829696769e-02 
       5.662975451962e-01       4.348284012612e-02 
       5.933463737275e-01       3.932699690447e-02 
       6.238638458458e-01       3.524934947747e-02 
       6.590669257916e-01       3.125899813377e-02 
       7.009246080454e-01       2.728355305416e-02 
       7.528593308799e-01       2.327476281261e-02 
       8.213469537518e-01       1.914467870303e-02 
       9.196980813302e-01       1.481369706066e-02 
       1.075112183810e+00       1.034779656511e-02 
       1.322697471132e+00       6.376671236072e-03 
       1.662328205042e+00       3.703211445945e-03 
       2.092692408506e+00       2.122402868085e-03 
       2.634543445090e+00       1.206112747180e-03 
       3.316693691389e+00       6.801133376625e-04 
       4.175469971226e+00       3.807458239991e-04 
       5.256605252960e+00       2.116924954701e-04 
       6.617673932723e+00       1.169100248946e-04 
       8.331157880872e+00       6.412264338933e-05 
       1.048830636590e+01       3.490919446525e-05 
       1.320399541071e+01       1.884240324762e-05 
       1.662284535976e+01       1.006260061465e-05 
       2.092692243973e+01       5.298510263264e-06 
       2.634543445002e+01       2.735698805248e-06 
       3.316693691389e+01       1.372755755050e-06 
       4.175469971226e+01       6.601226299332e-07 
       5.256605252960e+01       2.973950831064e-07 
       6.617673932723e+01       1.208630065361e-07 
