# Matter power spectrum P(k) at redshift z=0
# for k=1.04775e-05 to 66.1767 h/Mpc,
# number of wavenumbers equal to 130
#    1:k (h/Mpc)              2:P (Mpc/h)^3        
       1.047750691046e-05       5.020964824790e+01 
       1.319039970183e-05       6.270560514394e+01 
       1.660572937635e-05       7.831147254284e+01 
       2.090537469327e-05       9.780106947089e+01 
       2.631830744443e-05       1.221408362053e+02 
       3.313278603720e-05       1.525374492465e+02 
       4.171170630578e-05       1.904975987679e+02 
       5.251192703764e-05       2.379022321606e+02 
       6.610859936996e-05       2.970989230088e+02 
       8.322579568497e-05       3.710167326613e+02 
       1.047750691046e-04       4.633080767040e+02 
       1.319039970183e-04       5.785234120048e+02 
       1.660572937635e-04       7.223242670007e+02 
       2.090537469327e-04       9.017396272326e+02 
       2.631830744443e-04       1.125468123060e+03 
       3.313278603720e-04       1.404223053822e+03 
       4.171170630578e-04       1.751108026962e+03 
       5.251192703764e-04       2.181998438887e+03 
       6.610859936996e-04       2.715889965848e+03 
       8.322579568497e-04       3.375152275631e+03 
       1.047750691046e-03       4.185551992387e+03 
       1.319039970183e-03       5.175742214771e+03 
       1.660572937635e-03       6.376121355967e+03 
       2.090537469327e-03       7.815666640600e+03 
       2.631830744443e-03       9.517767947416e+03 
       3.313278603720e-03       1.149353205643e+04 
       4.171170630578e-03       1.373254474203e+04 
       5.251192703764e-03       1.619033272105e+04 
       6.610859936996e-03       1.877383189085e+04 
       8.322579568497e-03       2.132417642943e+04 
       1.047750691046e-02       2.360097945662e+04 
       1.319039970183e-02       2.527191116369e+04 
       1.660572937633e-02       2.592771911227e+04 
       2.090537453514e-02       2.516231073527e+04 
       2.631818545635e-02       2.277812741524e+04 
       3.311571692125e-02       1.911910405257e+04 
       4.113809243311e-02       1.541385145791e+04 
       4.792590854610e-02       1.324849178034e+04 
       5.284436902701e-02       1.216369331127e+04 
       5.689644391095e-02       1.147651298802e+04 
       6.051252627066e-02       1.095368596360e+04 
       6.388413457411e-02       1.049805948446e+04 
       6.711249296401e-02       1.006067779243e+04 
       7.025823437965e-02       9.615375910277e+03 
       7.336115587705e-02       9.149450688396e+03 
       7.644928796912e-02       8.659331824851e+03 
       7.954353299775e-02       8.148219823681e+03 
       8.266024078725e-02       7.624455221103e+03 
       8.581273398637e-02       7.099689943660e+03 
       8.901225918437e-02       6.587291121187e+03 
       9.226860540985e-02       6.100731768473e+03 
       9.559052048996e-02       5.652028096055e+03 
       9.898599946599e-02       5.250110648124e+03 
       1.024624891378e-01       4.900323922614e+03 
       1.060270359164e-01       4.603776257670e+03 
       1.096863943056e-01       4.357030904956e+03 
       1.134471073830e-01       4.152414149053e+03 
       1.173155669539e-01       3.978682402249e+03 
       1.212980586983e-01       3.821898388827e+03 
       1.254007961065e-01       3.667185702251e+03 
       1.296299459934e-01       3.500981572457e+03 
       1.339916477160e-01       3.313579524922e+03 
       1.384920277736e-01       3.101441242831e+03 
       1.431372111762e-01       2.868316428570e+03 
       1.479333307714e-01       2.624503916107e+03 
       1.528865355934e-01       2.384261709565e+03 
       1.580029992204e-01       2.162212853924e+03 
       1.632889290723e-01       1.969711763206e+03 
       1.687505775527e-01       1.811840383167e+03 
       1.743942559171e-01       1.686626092799e+03 
       1.802263517371e-01       1.585373069526e+03 
       1.862533508214e-01       1.495958349761e+03 
       1.924818644494e-01       1.404931426045e+03 
       1.989186627765e-01       1.302118005676e+03 
       2.055707152847e-01       1.185850190269e+03 
       2.124452391818e-01       1.063208163431e+03 
       2.195497567139e-01       9.454671611283e+02 
       2.268921624510e-01       8.423011293071e+02 
       2.344808017550e-01       7.583569447748e+02 
       2.423245618548e-01       6.920193203820e+02 
       2.504329772620e-01       6.359189629106e+02 
       2.588163516754e-01       5.811247349767e+02 
       2.674858990930e-01       5.224945023433e+02 
       2.764539076010e-01       4.607991224163e+02 
       2.857339303080e-01       4.015535233653e+02 
       2.953410092148e-01       3.507132359537e+02 
       3.052919395542e-01       3.096772476342e+02 
       3.156055844677e-01       2.753484810138e+02 
       3.263032530092e-01       2.432251344192e+02 
       3.374091587054e-01       2.108194681406e+02 
       3.489509817175e-01       1.795755178865e+02 
       3.609605657343e-01       1.521761940393e+02 
       3.734747921333e-01       1.296552386047e+02 
       3.865366902904e-01       1.103736809817e+02 
       4.001968667448e-01       9.247728602059e+01 
       4.145153713076e-01       7.582073729003e+01 
       4.295641718077e-01       6.141757404580e+01 
       4.454304922144e-01       4.947574092382e+01 
       4.622214006969e-01       3.927665399762e+01 
       4.800702491654e-01       3.025951457300e+01 
       4.991459272112e-01       2.266130490424e+01 
       5.196665217302e-01       1.656176351160e+01 
       5.419201087032e-01       1.154921749079e+01 
       5.662975451962e-01       7.558802863718e+00 
       5.933463737275e-01       4.565805734715e+00 
       6.238638458458e-01       2.395613958860e+00 
       6.590669257916e-01       9.836132743971e-01 
       7.009246080454e-01       2.192692125836e-01 
       7.528593308799e-01       1.299481093097e-04 
       8.213469537518e-01       1.835015618562e-01 
       9.196980813302e-01       5.373333725038e-01 
       1.075112183810e+00       6.648836944644e-01 
       1.322697471132e+00       3.288119812201e-01 
       1.662328205042e+00       4.258562648002e-02 
       2.092692408506e+00       1.459289424124e-04 
       2.634543445090e+00       2.402503058493e-03 
       3.316693691389e+00       2.214126379450e-04 
       4.175469971226e+00       1.209018830345e-05 
       5.256605252960e+00       3.021348035108e-06 
       6.617673932723e+00       3.793132526312e-08 
       8.331157880872e+00       3.777492380244e-09 
       1.048830636590e+01       5.363577994572e-09 
       1.320399541071e+01       1.652838978037e-09 
       1.662284535976e+01       7.815878482029e-10 
       2.092692243973e+01       3.119086231414e-10 
       2.634543445002e+01       1.164895065939e-10 
       3.316693691389e+01       4.259645064715e-11 
       4.175469971226e+01       1.743430185084e-11 
       5.256605252960e+01       5.664561333134e-12 
       6.617673932723e+01       1.936295226992e-12 
