# Matter power spectrum P(k) at redshift z=0
# for k=1.04775e-05 to 66.1767 h/Mpc,
# number of wavenumbers equal to 130
#    1:k (h/Mpc)              2:P (Mpc/h)^3        
       1.047750691046e-05       5.020963953410e+01 
       1.319039970183e-05       6.270562655831e+01 
       1.660572937635e-05       7.831148880487e+01 
       2.090537469327e-05       9.780106790673e+01 
       2.631830744443e-05       1.221408204117e+02 
       3.313278603720e-05       1.525374501985e+02 
       4.171170630578e-05       1.904975996582e+02 
       5.251192703764e-05       2.379022226460e+02 
       6.610859936996e-05       2.970989228182e+02 
       8.322579568497e-05       3.710167322685e+02 
       1.047750691046e-04       4.633080766656e+02 
       1.319039970183e-04       5.785234128875e+02 
       1.660572937635e-04       7.223242666092e+02 
       2.090537469327e-04       9.017396271827e+02 
       2.631830744443e-04       1.125468123361e+03 
       3.313278603720e-04       1.404223053664e+03 
       4.171170630578e-04       1.751108028502e+03 
       5.251192703764e-04       2.181998446386e+03 
       6.610859936996e-04       2.715889984109e+03 
       8.322579568497e-04       3.375152335880e+03 
       1.047750691046e-03       4.185552170693e+03 
       1.319039970183e-03       5.175742731028e+03 
       1.660572937635e-03       6.376123005868e+03 
       2.090537469327e-03       7.815671800149e+03 
       2.631830744443e-03       9.517782761090e+03 
       3.313278603720e-03       1.149357373946e+04 
       4.171170630578e-03       1.373265797786e+04 
       5.251192703764e-03       1.619062995819e+04 
       6.610859936996e-03       1.877458778086e+04 
       8.322579568497e-03       2.132603369308e+04 
       1.047750691046e-02       2.360539966289e+04 
       1.319039970183e-02       2.528197681381e+04 
       1.660572937633e-02       2.594982226939e+04 
       2.090537453514e-02       2.520838692574e+04 
       2.631818545635e-02       2.286847209611e+04 
       3.311571692125e-02       1.928283234664e+04 
       4.113809243311e-02       1.567871768409e+04 
       4.792590854610e-02       1.360318413452e+04 
       5.284436902701e-02       1.258246737743e+04 
       5.689644391095e-02       1.194563346649e+04 
       6.051252627066e-02       1.146461004142e+04 
       6.388413457411e-02       1.104428113081e+04 
       6.711249296401e-02       1.063672591153e+04 
       7.025823437965e-02       1.021648869020e+04 
       7.336115587705e-02       9.771229335404e+03 
       7.644928796912e-02       9.297952042867e+03 
       7.954353299775e-02       8.800457437384e+03 
       8.266024078725e-02       8.287833467741e+03 
       8.581273398637e-02       7.772391257690e+03 
       8.901225918437e-02       7.268400060897e+03 
       9.226860540985e-02       6.790103197591e+03 
       9.559052048996e-02       6.350327714628e+03 
       9.898599946599e-02       5.958803946470e+03 
       1.024624891378e-01       5.621399399928e+03 
       1.060270359164e-01       5.339471068760e+03 
       1.096863943056e-01       5.109481394165e+03 
       1.134471073830e-01       4.923220650368e+03 
       1.173155669539e-01       4.768393343582e+03 
       1.212980586983e-01       4.629652745891e+03 
       1.254007961065e-01       4.490416294082e+03 
       1.296299459934e-01       4.335463604887e+03 
       1.339916477160e-01       4.153882875364e+03 
       1.384920277736e-01       3.941697928313e+03 
       1.431372111762e-01       3.703164050585e+03 
       1.479333307714e-01       3.450112381097e+03 
       1.528865355934e-01       3.198959433368e+03 
       1.580029992204e-01       2.966947790559e+03 
       1.632889290723e-01       2.767577960901e+03 
       1.687505775527e-01       2.607304993359e+03 
       1.743942559171e-01       2.483997037411e+03 
       1.802263517371e-01       2.387249488727e+03 
       1.862533508214e-01       2.301857788374e+03 
       1.924818644494e-01       2.210917184474e+03 
       1.989186627765e-01       2.101478741368e+03 
       2.055707152847e-01       1.971399915432e+03 
       2.124452391818e-01       1.829875415906e+03 
       2.195497567139e-01       1.691920800863e+03 
       2.268921624510e-01       1.570874147112e+03 
       2.344808017550e-01       1.473579120091e+03 
       2.423245618548e-01       1.398136683697e+03 
       2.504329772620e-01       1.334178650764e+03 
       2.588163516754e-01       1.268599739050e+03 
       2.674858990930e-01       1.193686148701e+03 
       2.764539076010e-01       1.110650952941e+03 
       2.857339303080e-01       1.028302556620e+03 
       2.953410092148e-01       9.565701405482e+02 
       3.052919395542e-01       8.982883742237e+02 
       3.156055844677e-01       8.484227393855e+02 
       3.263032530092e-01       7.991422408416e+02 
       3.374091587054e-01       7.459536148710e+02 
       3.489509817175e-01       6.917332042670e+02 
       3.609605657343e-01       6.420869056224e+02 
       3.734747921333e-01       5.995605154856e+02 
       3.865366902904e-01       5.609504502836e+02 
       4.001968667448e-01       5.222452406233e+02 
       4.145153713076e-01       4.832760802566e+02 
       4.295641718077e-01       4.468918657648e+02 
       4.454304922144e-01       4.140455777251e+02 
       4.622214006969e-01       3.830076650190e+02 
       4.800702491654e-01       3.522817569256e+02 
       4.991459272112e-01       3.229811565932e+02 
       5.196665217302e-01       2.958000892811e+02 
       5.419201087032e-01       2.694012339970e+02 
       5.662975451962e-01       2.438533684195e+02 
       5.933463737275e-01       2.194568246821e+02 
       6.238638458458e-01       1.955672870737e+02 
       6.590669257916e-01       1.722413400289e+02 
       7.009246080454e-01       1.490669048971e+02 
       7.528593308799e-01       1.257832841863e+02 
       8.213469537518e-01       1.019123881116e+02 
       9.196980813302e-01       7.706537586461e+01 
       1.075112183810e+00       5.175908901243e+01 
       1.322697471132e+00       2.975567785723e+01 
       1.662328205042e+00       1.551426083068e+01 
       2.092692408506e+00       7.610728514384e+00 
       2.634543445090e+00       3.457523138940e+00 
       3.316693691389e+00       1.408761852026e+00 
       4.175469971226e+00       4.875608941616e-01 
       5.256605252960e+00       1.289713236556e-01 
       6.617673932723e+00       1.982533961015e-02 
       8.331157880872e+00       3.057021842270e-04 
       1.048830636590e+01       1.280850701541e-03 
       1.320399541071e+01       1.916583318101e-03 
       1.662284535976e+01       8.792505443229e-04 
       2.092692243973e+01       1.396469786797e-04 
       2.634543445002e+01       3.911270333799e-07 
       3.316693691389e+01       5.758953736084e-06 
       4.175469971226e+01       1.580499846080e-06 
       5.256605252960e+01       1.309316296060e-09 
       6.617673932723e+01       2.188034043911e-08 
