# Matter power spectrum P(k) at redshift z=0
# for k=1.04775e-05 to 67.6233 h/Mpc,
# number of wavenumbers equal to 246
#    1:k (h/Mpc)              2:P (Mpc/h)^3        
       1.047750691046e-05       5.020964811310e+01 
       1.131335172503e-05       5.407050701926e+01 
       1.221587619537e-05       5.822819068784e+01 
       1.319039970183e-05       6.270562594820e+01 
       1.424266597921e-05       6.752732240880e+01 
       1.537887696968e-05       7.271977206173e+01 
       1.660572937635e-05       7.831147247912e+01 
       1.793045413292e-05       8.433311821988e+01 
       1.936085902198e-05       9.081778249833e+01 
       2.090537469327e-05       9.780108069336e+01 
       2.257310435294e-05       1.053213197893e+02 
       2.437387741694e-05       1.134197377890e+02 
       2.631830744443e-05       1.221408203809e+02 
       2.841785469300e-05       1.315324642484e+02 
       3.068489366414e-05       1.416462094878e+02 
       3.313278603720e-05       1.525374501932e+02 
       3.577595942169e-05       1.642660688414e+02 
       3.862999239199e-05       1.768963506307e+02 
       4.171170630578e-05       1.904975994011e+02 
       4.503926444729e-05       2.051444491974e+02 
       4.863227907969e-05       2.209171465549e+02 
       5.251192703764e-05       2.379022224246e+02 
       5.670107454120e-05       2.561927927720e+02 
       6.122441196689e-05       2.758890444039e+02 
       6.610859936996e-05       2.970989227883e+02 
       7.138242361596e-05       3.199385560802e+02 
       7.707696804727e-05       3.445329783680e+02 
       8.322579568497e-05       3.710167318946e+02 
       8.986514704559e-05       3.995346444203e+02 
       9.703415373875e-05       4.302425407382e+02 
       1.047750691046e-04       4.633080766742e+02 
       1.131335172503e-04       4.989116271564e+02 
       1.221587619537e-04       5.372471950929e+02 
       1.319039970183e-04       5.785234129336e+02 
       1.424266597921e-04       6.229645936045e+02 
       1.537887696968e-04       6.708118490405e+02 
       1.660572937635e-04       7.223242666092e+02 
       1.793045413292e-04       7.777801558972e+02 
       1.936085902198e-04       8.374783614140e+02 
       2.090537469327e-04       9.017396271824e+02 
       2.257310435294e-04       9.709080268041e+02 
       2.437387741694e-04       1.045352449493e+03 
       2.631830744443e-04       1.125468123750e+03 
       2.841785469300e-04       1.211678180494e+03 
       3.068489366414e-04       1.304435250150e+03 
       3.313278603720e-04       1.404223053681e+03 
       3.577595942169e-04       1.511558014616e+03 
       3.862999239199e-04       1.626990837760e+03 
       4.171170630578e-04       1.751108028790e+03 
       4.503926444729e-04       1.884533382872e+03 
       4.863227907969e-04       2.027929378112e+03 
       5.251192703764e-04       2.181998448133e+03 
       5.670107454121e-04       2.347484102754e+03 
       6.122441196689e-04       2.525171871365e+03 
       6.610859936996e-04       2.715889983592e+03 
       7.138242361596e-04       2.920509688381e+03 
       7.707696804727e-04       3.139945100278e+03 
       8.322579568497e-04       3.375152337586e+03 
       8.986514704559e-04       3.627127831140e+03 
       9.703415373875e-04       3.896905453134e+03 
       1.047750691046e-03       4.185552174308e+03 
       1.131335172503e-03       4.494162430370e+03 
       1.221587619537e-03       4.823850706490e+03 
       1.319039970183e-03       5.175742739230e+03 
       1.424266597921e-03       5.551019596892e+03 
       1.537887696968e-03       5.950788340542e+03 
       1.660572937635e-03       6.376123051720e+03 
       1.793045413292e-03       6.828073901425e+03 
       1.936085902198e-03       7.307625381029e+03 
       2.090537469327e-03       7.815671910034e+03 
       2.257310435294e-03       8.352990375735e+03 
       2.437387741694e-03       8.920211064254e+03 
       2.631830744443e-03       9.517783068964e+03 
       2.841785469300e-03       1.014593704415e+04 
       3.068489366414e-03       1.080464502767e+04 
       3.313278603720e-03       1.149357460301e+04 
       3.577595942169e-03       1.221203621665e+04 
       3.862999239199e-03       1.295892539367e+04 
       4.171170630578e-03       1.373266009548e+04 
       4.503926444729e-03       1.453111835475e+04 
       4.863227907969e-03       1.535154984863e+04 
       5.251192703764e-03       1.619063612875e+04 
       5.670107454120e-03       1.704431257288e+04 
       6.122441196689e-03       1.790755939959e+04 
       6.610859936996e-03       1.877460422295e+04 
       7.138242361596e-03       1.963872432111e+04 
       7.707696804727e-03       2.049215712995e+04 
       8.322579568496e-03       2.132607241317e+04 
       8.986514704559e-03       2.213055070758e+04 
       9.703415373875e-03       2.289445479769e+04 
       1.047750691046e-02       2.360549465687e+04 
       1.131335172503e-02       2.425023044252e+04 
       1.221587619537e-02       2.481423918931e+04 
       1.319039970183e-02       2.528218710375e+04 
       1.424266597920e-02       2.563815034318e+04 
       1.537887696964e-02       2.586607660509e+04 
       1.660572937560e-02       2.595027470190e+04 
       1.793045412207e-02       2.587633936537e+04 
       1.936085889642e-02       2.563221778073e+04 
       2.090537351881e-02       2.520934049161e+04 
       2.257309534705e-02       2.460445021304e+04 
       2.437382002240e-02       2.382092439148e+04 
       2.631799943729e-02       2.287048925213e+04 
       2.841644544598e-02       2.177450171729e+04 
       3.067933354524e-02       2.056554992687e+04 
       3.311368469821e-02       1.928735137293e+04 
       3.571840442514e-02       1.799404853447e+04 
       3.847720347390e-02       1.674681562254e+04 
       4.135335537314e-02       1.560456837235e+04 
       4.429361666563e-02       1.461037128634e+04 
       4.724366437916e-02       1.378053557066e+04 
       5.016480834039e-02       1.310503865963e+04 
       5.303989618930e-02       1.255714194113e+04 
       5.586870668205e-02       1.210428207910e+04 
       5.866042679206e-02       1.171466040863e+04 
       6.142798931504e-02       1.136055466677e+04 
       6.418496438662e-02       1.101854913726e+04 
       6.694418832236e-02       1.067068130077e+04 
       6.971731104453e-02       1.030355521753e+04 
       7.251476154108e-02       9.909009809542e+03 
       7.534587669814e-02       9.483715460558e+03 
       7.821907664495e-02       9.029506503962e+03 
       8.114203771084e-02       8.552301942599e+03 
       8.412184533139e-02       8.061967649267e+03 
       8.716512277352e-02       7.570747162686e+03 
       9.027813693913e-02       7.092459229752e+03 
       9.346688429613e-02       6.640503165330e+03 
       9.673716026122e-02       6.226673487368e+03 
       1.000946150608e-01       5.859918996025e+03 
       1.035447986307e-01       5.545220622033e+03 
       1.070931966524e-01       5.283153457212e+03 
       1.107452594180e-01       5.069419776106e+03 
       1.145064248899e-01       4.895246635816e+03 
       1.183821370656e-01       4.747842106614e+03 
       1.223778605591e-01       4.611735389193e+03 
       1.264990921707e-01       4.470599674783e+03 
       1.307513701078e-01       4.310261210122e+03 
       1.351402814485e-01       4.121368574859e+03 
       1.396714683894e-01       3.902061170089e+03 
       1.443506337875e-01       3.658661850116e+03 
       1.491835464900e-01       3.404492608236e+03 
       1.541760469368e-01       3.156671516141e+03 
       1.593340535209e-01       2.931957306283e+03 
       1.646635701934e-01       2.742365695500e+03 
       1.701706958081e-01       2.592244590795e+03 
       1.758616357070e-01       2.477229087933e+03 
       1.817427160581e-01       2.385167310004e+03 
       1.878204014651e-01       2.300354888720e+03 
       1.941013163855e-01       2.205749423624e+03 
       2.005922709060e-01       2.090809821659e+03 
       2.073002914514e-01       1.956462002864e+03 
       2.142326570343e-01       1.814182661481e+03 
       2.213969417044e-01       1.679271186099e+03 
       2.288010639201e-01       1.563832212097e+03 
       2.364533436625e-01       1.472674311371e+03 
       2.443625682390e-01       1.401512006095e+03 
       2.525380678946e-01       1.338401468608e+03 
       2.609898025770e-01       1.270888670909e+03 
       2.697284614969e-01       1.193369601594e+03 
       2.787655775073e-01       1.109331116614e+03 
       2.881136588192e-01       1.028760303057e+03 
       2.977863412019e-01       9.604687320266e+02 
       3.077985646248e-01       9.050116525110e+02 
       3.181667793367e-01       8.561353964396e+02 
       3.289091877084e-01       8.061781385046e+02 
       3.400460298905e-01       7.523830886204e+02 
       3.515999235695e-01       6.989122400075e+02 
       3.635962710278e-01       6.510534194745e+02 
       3.760637505499e-01       6.101132478206e+02 
       3.890349143014e-01       5.721211913151e+02 
       4.025469215929e-01       5.337708218214e+02 
       4.166424455447e-01       4.956223803793e+02 
       4.313708034899e-01       4.604608601232e+02 
       4.467893781976e-01       4.287683401002e+02 
       4.629654198623e-01       3.987641463308e+02 
       4.799783500912e-01       3.692341061474e+02 
       4.979227318246e-01       3.412317732579e+02 
       5.169121269689e-01       3.154743557508e+02 
       5.370841403262e-01       2.908265737737e+02 
       5.586070463286e-01       2.670973445664e+02 
       5.816885093582e-01       2.448003116078e+02 
       6.065870143577e-01       2.235595674948e+02 
       6.336266466978e-01       2.032020966106e+02 
       6.632156057925e-01       1.838709695892e+02 
       6.958678637575e-01       1.653466617830e+02 
       7.322247983784e-01       1.476876611027e+02 
       7.730680193171e-01       1.308256446605e+02 
       8.193049551574e-01       1.148235425993e+02 
       8.718988013754e-01       9.975503041559e+01 
       9.317218028590e-01       8.577065762255e+01 
       9.993660906273e-01       7.304783146430e+01 
       1.075037109879e+00       6.172933868668e+01 
       1.158653485387e+00       5.187257754984e+01 
       1.250099156961e+00       4.343379871955e+01 
       1.349432400897e+00       3.628311337294e+01 
       1.456947456991e+00       3.026185984056e+01 
       1.573135110893e+00       2.520874714941e+01 
       1.698621895119e+00       2.097642586700e+01 
       1.834127512423e+00       1.743697509912e+01 
       1.980444933977e+00       1.448044541870e+01 
       2.138435191130e+00       1.201391545687e+01 
       2.309029198543e+00       9.958327973400e+00 
       2.493232376993e+00       8.247192555817e+00 
       2.692130394536e+00       6.824149907670e+00 
       2.906895533764e+00       5.641985688867e+00 
       3.138793596840e+00       4.660786699736e+00 
       3.389191365541e+00       3.847185463363e+00 
       3.659564656886e+00       3.173164613798e+00 
       3.951507021438e+00       2.615292657193e+00 
       4.266739135513e+00       2.153889170477e+00 
       4.607118942658e+00       1.772616974316e+00 
       4.974652604172e+00       1.457813760795e+00 
       5.371506323193e+00       1.198099229744e+00 
       5.800019112071e+00       9.839746631747e-01 
       6.262716578240e+00       8.075852192780e-01 
       6.762325809881e+00       6.623604322129e-01 
       7.301791449077e+00       5.428951374714e-01 
       7.884293047211e+00       4.446845228204e-01 
       8.513263804891e+00       3.639948345158e-01 
       9.192410806865e+00       2.977458860515e-01 
       9.925736871166e+00       2.433853233709e-01 
       1.071756414128e+01       1.988097219244e-01 
       1.157255956041e+01       1.622818833757e-01 
       1.249576237789e+01       1.323671737666e-01 
       1.349261385000e+01       1.078806115249e-01 
       1.456898931011e+01       8.785122941063e-02 
       1.573123279727e+01       7.147761786918e-02 
       1.698619444729e+01       5.810016674309e-02 
       1.834127086665e+01       4.717864132457e-02 
       1.980444872733e+01       3.826714090198e-02 
       2.138435183937e+01       3.100135651897e-02 
       2.309029197863e+01       2.508120764350e-02 
       2.493232376942e+01       2.026086288717e-02 
       2.692130394533e+01       1.633996421953e-02 
       2.906895533764e+01       1.315296735859e-02 
       3.138793596840e+01       1.056501571228e-02 
       3.389191365541e+01       8.465806676854e-03 
       3.659564656886e+01       6.765131472577e-03 
       3.951507021438e+01       5.389241136721e-03 
       4.266739135513e+01       4.277816921505e-03 
       4.607118942658e+01       3.381589003760e-03 
       4.974652604172e+01       2.660510474032e-03 
       5.371506323193e+01       2.081786454371e-03 
       5.800019112071e+01       1.618677219934e-03 
       6.262716578240e+01       1.249361685231e-03 
       6.762325809881e+01       9.561238644557e-04 
