# Matter power spectrum P(k) at redshift z=99
# for k=1.04775e-05 to 67.6233 h/Mpc,
# number of wavenumbers equal to 246
#    1:k (h/Mpc)              2:P (Mpc/h)^3        
       1.047750691046e-05       7.262986057077e-03 
       1.131335172503e-05       7.821472258867e-03 
       1.221587619537e-05       8.422903138564e-03 
       1.319039970183e-05       9.070580105892e-03 
       1.424266597921e-05       9.768061050160e-03 
       1.537887696968e-05       1.051917404404e-02 
       1.660572937635e-05       1.132804247680e-02 
       1.793045413292e-05       1.219910854518e-02 
       1.936085902198e-05       1.313715531073e-02 
       2.090537469327e-05       1.414733241074e-02 
       2.257310435294e-05       1.523518507771e-02 
       2.437387741694e-05       1.640668708294e-02 
       2.631830744443e-05       1.766826914869e-02 
       2.841785469300e-05       1.902685914592e-02 
       3.068489366414e-05       2.048991490862e-02 
       3.313278603720e-05       2.206546877424e-02 
       3.577595942169e-05       2.376217028610e-02 
       3.862999239199e-05       2.558933405069e-02 
       4.171170630578e-05       2.755699039353e-02 
       4.503926444729e-05       2.967594228878e-02 
       4.863227907969e-05       3.195781946355e-02 
       5.251192703764e-05       3.441514784023e-02 
       5.670107454120e-05       3.706141448411e-02 
       6.122441196689e-05       3.991114540310e-02 
       6.610859936996e-05       4.297997959869e-02 
       7.138242361596e-05       4.628475840184e-02 
       7.707696804727e-05       4.984361572135e-02 
       8.322579568497e-05       5.367607890517e-02 
       8.986514704559e-05       5.780317203230e-02 
       9.703415373875e-05       6.224753504338e-02 
       1.047750691046e-04       6.703354341252e-02 
       1.131335172503e-04       7.218743928721e-02 
       1.221587619537e-04       7.773748106563e-02 
       1.319039970183e-04       8.371408478038e-02 
       1.424266597921e-04       9.015000115926e-02 
       1.537887696968e-04       9.708048194781e-02 
       1.660572937635e-04       1.045434718430e-01 
       1.793045413292e-04       1.125798168212e-01 
       1.936085902198e-04       1.212334705382e-01 
       2.090537469327e-04       1.305517389757e-01 
       2.257310435294e-04       1.405855209568e-01 
       2.437387741694e-04       1.513895756039e-01 
       2.631830744443e-04       1.630228092663e-01 
       2.841785469300e-04       1.755485724511e-01 
       3.068489366414e-04       1.890349840749e-01 
       3.313278603720e-04       2.035552699251e-01 
       3.577595942169e-04       2.191881230104e-01 
       3.862999239199e-04       2.360180814234e-01 
       4.171170630578e-04       2.541359256134e-01 
       4.503926444729e-04       2.736390943498e-01 
       4.863227907969e-04       2.946321110647e-01 
       5.251192703764e-04       3.172270302920e-01 
       5.670107454121e-04       3.415438840391e-01 
       6.122441196689e-04       3.677111385803e-01 
       6.610859936996e-04       3.958661353992e-01 
       7.138242361596e-04       4.261555275702e-01 
       7.707696804727e-04       4.587356799951e-01 
       8.322579568497e-04       4.937730208022e-01 
       8.986514704559e-04       5.314443307961e-01 
       9.703415373875e-04       5.719369297704e-01 
       1.047750691046e-03       6.154487287197e-01 
       1.131335172503e-03       6.621881114525e-01 
       1.221587619537e-03       7.123735731783e-01 
       1.319039970183e-03       7.662330651193e-01 
       1.424266597921e-03       8.240106551951e-01 
       1.537887696968e-03       8.859489615632e-01 
       1.660572937635e-03       9.522941985620e-01 
       1.793045413292e-03       1.023297434715e+00 
       1.936085902198e-03       1.099208181368e+00 
       2.090537469327e-03       1.180269645596e+00 
       2.257310435294e-03       1.266712679795e+00 
       2.437387741694e-03       1.358748300568e+00 
       2.631830744443e-03       1.456558493978e+00 
       2.841785469300e-03       1.560285160678e+00 
       3.068489366414e-03       1.670017076639e+00 
       3.313278603720e-03       1.785774738228e+00 
       3.577595942169e-03       1.907493209136e+00 
       3.862999239199e-03       2.035003254778e+00 
       4.171170630578e-03       2.168011097469e+00 
       4.503926444729e-03       2.306077843845e+00 
       4.863227907969e-03       2.448599303408e+00 
       5.251192703764e-03       2.594788231709e+00 
       5.670107454120e-03       2.743659753022e+00 
       6.122441196689e-03       2.894021803601e+00 
       6.610859936996e-03       3.044472047964e+00 
       7.138242361596e-03       3.193399608722e+00 
       7.707696804727e-03       3.338991262082e+00 
       8.322579568496e-03       3.479235150145e+00 
       8.986514704559e-03       3.611920070186e+00 
       9.703415373875e-03       3.734615456070e+00 
       1.047750691046e-02       3.844639851528e+00 
       1.131335172503e-02       3.939001500360e+00 
       1.221587619537e-02       4.014341607067e+00 
       1.319039970183e-02       4.066891545934e+00 
       1.424266597920e-02       4.092489258176e+00 
       1.537887696964e-02       4.086672175993e+00 
       1.660572937560e-02       4.044855509205e+00 
       1.793045412207e-02       3.962579376545e+00 
       1.936085889642e-02       3.835804572726e+00 
       2.090537351881e-02       3.661264821918e+00 
       2.257309534705e-02       3.436940663585e+00 
       2.437382002240e-02       3.162700494777e+00 
       2.631799943729e-02       2.841142012612e+00 
       2.841644544598e-02       2.478463974683e+00 
       3.067933354524e-02       2.085285607733e+00 
       3.311368469821e-02       1.677346925610e+00 
       3.571840442514e-02       1.275545240645e+00 
       3.847720347390e-02       9.043532273513e-01 
       4.135335537314e-02       5.874235260935e-01 
       4.429361666563e-02       3.410636053953e-01 
       4.724366437916e-02       1.693925951589e-01 
       5.016480834039e-02       6.498239122650e-02 
       5.303989618930e-02       1.373808393523e-02 
       5.586870668205e-02       9.058688111292e-08 
       5.866042679206e-02       9.517399586618e-03 
       6.142798931504e-02       3.061579984284e-02 
       6.418496438662e-02       5.441790069720e-02 
       6.694418832236e-02       7.471081287511e-02 
       6.971731104453e-02       8.769642650063e-02 
       7.251476154108e-02       9.172020154893e-02 
       7.534587669814e-02       8.693211499461e-02 
       7.821907664495e-02       7.490779368529e-02 
       8.114203771084e-02       5.820193288336e-02 
       8.412184533139e-02       3.985023335408e-02 
       8.716512277352e-02       2.285563291254e-02 
       9.027813693913e-02       9.703343851236e-03 
       9.346688429613e-02       1.967621920046e-03 
       9.673716026122e-02       7.097369828230e-05 
       1.000946150608e-01       3.251623124305e-03 
       1.035447986307e-01       9.756734106945e-03 
       1.070931966524e-01       1.725113411388e-02 
       1.107452594180e-01       2.336627994153e-02 
       1.145064248899e-01       2.627956237641e-02 
       1.183821370656e-01       2.517630034059e-02 
       1.223778605591e-01       2.045745080998e-02 
       1.264990921707e-01       1.360512125685e-02 
       1.307513701078e-01       6.708658809437e-03 
       1.351402814485e-01       1.769183866031e-03 
       1.396714683894e-01       9.002091852635e-07 
       1.443506337875e-01       1.391750832554e-03 
       1.491835464900e-01       4.722397257509e-03 
       1.541760469368e-01       8.084657733905e-03 
       1.593340535209e-01       9.722834717071e-03 
       1.646635701934e-01       8.835018026694e-03 
       1.701706958081e-01       5.937681609925e-03 
       1.758616357070e-01       2.553798396168e-03 
       1.817427160581e-01       3.497133444225e-04 
       1.878204014651e-01       1.749650178964e-04 
       1.941013163855e-01       1.594735886409e-03 
       2.005922709060e-01       3.232304158659e-03 
       2.073002914514e-01       3.751740490425e-03 
       2.142326570343e-01       2.801660354575e-03 
       2.213969417044e-01       1.175931837489e-03 
       2.288010639201e-01       9.985088069750e-05 
       2.364533436625e-01       1.923693278490e-04 
       2.443625682390e-01       9.804209986608e-04 
       2.525380678946e-01       1.461408388283e-03 
       2.609898025770e-01       1.122097939298e-03 
       2.697284614969e-01       3.767309163049e-04 
       2.787655775073e-01       1.521463256477e-06 
       2.881136588192e-01       2.139873654894e-04 
       2.977863412019e-01       5.241714994863e-04 
       3.077985646248e-01       4.513119998206e-04 
       3.181667793367e-01       1.311655877200e-04 
       3.289091877084e-01       2.048911677276e-06 
       3.400460298905e-01       1.288052335985e-04 
       3.515999235695e-01       1.959357828671e-04 
       3.635962710278e-01       8.305179211607e-05 
       3.760637505499e-01       1.357174312196e-07 
       3.890349143014e-01       4.436163104877e-05 
       4.025469215929e-01       6.473429453805e-05 
       4.166424455447e-01       1.488008620364e-05 
       4.313708034899e-01       3.817277663662e-06 
       4.467893781976e-01       2.289684961502e-05 
       4.629654198623e-01       9.043443111349e-06 
       4.799783500912e-01       6.739506559016e-07 
       4.979227318246e-01       7.137563240256e-06 
       5.169121269689e-01       1.480870428789e-06 
       5.370841403262e-01       1.100330474417e-06 
       5.586070463286e-01       1.465896809254e-06 
       5.816885093582e-01       6.552274502415e-08 
       6.065870143577e-01       5.028182354720e-07 
       6.336266466978e-01       2.174168540799e-08 
       6.632156057925e-01       9.254943037681e-08 
       6.958678637575e-01       2.920673112583e-08 
       7.322247983784e-01       1.319101574230e-12 
       7.730680193171e-01       2.654911187337e-09 
       8.193049551574e-01       1.134227253290e-09 
       8.718988013754e-01       2.095897094081e-10 
       9.317218028590e-01       3.370888897795e-12 
       9.993660906273e-01       2.951467123083e-12 
       1.075037109879e+00       4.431318089780e-13 
       1.158653485387e+00       1.366031484387e-14 
       1.250099156961e+00       1.776900452082e-12 
       1.349432400897e+00       5.700866819274e-13 
       1.456947456991e+00       6.825791305007e-14 
       1.573135110893e+00       2.265053733404e-13 
       1.698621895119e+00       2.115258818956e-15 
       1.834127512423e+00       7.480793233425e-14 
       1.980444933977e+00       1.537115400596e-14 
       2.138435191130e+00       4.301565600007e-15 
       2.309029198543e+00       1.255568219377e-13 
       2.493232376993e+00       4.100130955994e-16 
       2.692130394536e+00       6.321583254144e-17 
       2.906895533764e+00       2.544852489613e-15 
       3.138793596840e+00       2.882331079733e-15 
       3.389191365541e+00       4.233569257056e-15 
       3.659564656886e+00       1.131336679516e-15 
       3.951507021438e+00       1.151159338761e-15 
       4.266739135513e+00       3.425332877384e-18 
       4.607118942658e+00       1.020509180673e-16 
       4.974652604172e+00       2.691226407898e-16 
       5.371506323193e+00       7.342846117402e-18 
       5.800019112071e+00       5.827135858927e-18 
       6.262716578240e+00       4.764850185441e-19 
       6.762325809881e+00       6.898365982110e-17 
       7.301791449077e+00       4.434275774435e-17 
       7.884293047211e+00       1.710327774794e-17 
       8.513263804891e+00       5.148649623296e-19 
       9.192410806865e+00       1.448121607937e-17 
       9.925736871166e+00       1.759485850482e-19 
       1.071756414128e+01       2.996560815428e-20 
       1.157255956041e+01       4.542608285131e-18 
       1.249576237789e+01       3.301481783486e-18 
       1.349261385000e+01       1.985480572594e-18 
       1.456898931011e+01       1.472329830843e-18 
       1.573123279727e+01       1.190724040657e-20 
       1.698619444729e+01       3.049317078454e-21 
       1.834127086665e+01       9.687581626692e-21 
       1.980444872733e+01       1.633329163329e-20 
       2.138435183937e+01       1.567742051549e-20 
       2.309029197863e+01       1.642249014443e-19 
       2.493232376942e+01       1.070117927964e-19 
       2.692130394533e+01       1.684421033755e-20 
       2.906895533764e+01       8.727950219490e-22 
       3.138793596840e+01       7.263647599332e-22 
       3.389191365541e+01       2.269075376000e-20 
       3.659564656886e+01       7.001953898926e-22 
       3.951507021438e+01       7.160227688498e-21 
       4.266739135513e+01       7.073998711536e-21 
       4.607118942658e+01       5.205188713924e-21 
       4.974652604172e+01       8.484337641212e-22 
       5.371506323193e+01       9.441884908718e-23 
       5.800019112071e+01       1.119409767123e-21 
       6.262716578240e+01       1.172399693858e-21 
       6.762325809881e+01       3.918743232333e-23 
