# Matter power spectrum P(k) at redshift z=99
# for k=1.04775e-05 to 66.1767 h/Mpc,
# number of wavenumbers equal to 130
#    1:k (h/Mpc)              2:P (Mpc/h)^3        
       1.047750691046e-05       7.261927684232e-03 
       1.319039970183e-05       9.069258206078e-03 
       1.660572937635e-05       1.132639107250e-02 
       2.090537469327e-05       1.414527124054e-02 
       2.631830744443e-05       1.766569584878e-02 
       3.313278603720e-05       2.206225516963e-02 
       4.171170630578e-05       2.755297767545e-02 
       5.251192703764e-05       3.441013524555e-02 
       6.610859936996e-05       4.297372174768e-02 
       8.322579568497e-05       5.366826855418e-02 
       1.047750691046e-04       6.702379875873e-02 
       1.319039970183e-04       8.370193445152e-02 
       1.660572937635e-04       1.045283355865e-01 
       2.090537469327e-04       1.305329134702e-01 
       2.631830744443e-04       1.629994507343e-01 
       3.313278603720e-04       2.035264005519e-01 
       4.171170630578e-04       2.541004745371e-01 
       5.251192703764e-04       3.171839529929e-01 
       6.610859936996e-04       3.958147258146e-01 
       8.322579568497e-04       4.937136008176e-01 
       1.047750691046e-03       6.153841638088e-01 
       1.319039970183e-03       7.661720594581e-01 
       1.660572937635e-03       9.522588017594e-01 
       2.090537469327e-03       1.180312991506e+00 
       2.631830744443e-03       1.456802683663e+00 
       3.313278603720e-03       1.786503850945e+00 
       4.171170630578e-03       2.169896194924e+00 
       5.251192703764e-03       2.599430609977e+00 
       6.610859936996e-03       3.055668651064e+00 
       8.322579568497e-03       3.505725031554e+00 
       1.047750691046e-02       3.905490079381e+00 
       1.319039970183e-02       4.200914651448e+00 
       1.660572937633e-02       4.325063456965e+00 
       2.090537453514e-02       4.210197905494e+00 
       2.631818545635e-02       3.825139774153e+00 
       3.311571692125e-02       3.229049806022e+00 
       4.113809243311e-02       2.627709306643e+00 
       4.792590854610e-02       2.280768932432e+00 
       5.284436902701e-02       2.110060446315e+00 
       5.689644391095e-02       2.003501586303e+00 
       6.051252627066e-02       1.923021342562e+00 
       6.388413457411e-02       1.852697137962e+00 
       6.711249296401e-02       1.784523815096e+00 
       7.025823437965e-02       1.714236673596e+00 
       7.336115587705e-02       1.639770782486e+00 
       7.644928796912e-02       1.560616746441e+00 
       7.954353299775e-02       1.477410800311e+00 
       8.266024078725e-02       1.391651899923e+00 
       8.581273398637e-02       1.305415431986e+00 
       8.901225918437e-02       1.221077030388e+00 
       9.226860540985e-02       1.141030504833e+00 
       9.559052048996e-02       1.067401707710e+00 
       9.898599946599e-02       1.001837439971e+00 
       1.024624891378e-01       9.453317281409e-01 
       1.060270359164e-01       8.980960399268e-01 
       1.096863943056e-01       8.595586858068e-01 
       1.134471073830e-01       8.283507056418e-01 
       1.173155669539e-01       8.024058332288e-01 
       1.212980586983e-01       7.791697933757e-01 
       1.254007961065e-01       7.558550826989e-01 
       1.296299459934e-01       7.299211315699e-01 
       1.339916477160e-01       6.995295155408e-01 
       1.384920277736e-01       6.640138935399e-01 
       1.431372111762e-01       6.240831574602e-01 
       1.479333307714e-01       5.817003723359e-01 
       1.528865355934e-01       5.396264901095e-01 
       1.580029992204e-01       5.007496465061e-01 
       1.632889290723e-01       4.673344542923e-01 
       1.687505775527e-01       4.404698342928e-01 
       1.743942559171e-01       4.198009314435e-01 
       1.802263517371e-01       4.035938344752e-01 
       1.862533508214e-01       3.892933841107e-01 
       1.924818644494e-01       3.740675728595e-01 
       1.989186627765e-01       3.557348007128e-01 
       2.055707152847e-01       3.339317282090e-01 
       2.124452391818e-01       3.101986945893e-01 
       2.195497567139e-01       2.870553507703e-01 
       2.268921624510e-01       2.667416523608e-01 
       2.344808017550e-01       2.504165035362e-01 
       2.423245618548e-01       2.377663569866e-01 
       2.504329772620e-01       2.270447962967e-01 
       2.588163516754e-01       2.160488967812e-01 
       2.674858990930e-01       2.034784704106e-01 
       2.764539076010e-01       1.895309190471e-01 
       2.857339303080e-01       1.756907408930e-01 
       2.953410092148e-01       1.636342231954e-01 
       3.052919395542e-01       1.538414674206e-01 
       3.156055844677e-01       1.454662702413e-01 
       3.263032530092e-01       1.371849275760e-01 
       3.374091587054e-01       1.282378415363e-01 
       3.489509817175e-01       1.191076137970e-01 
       3.609605657343e-01       1.107441560602e-01 
       3.734747921333e-01       1.035828355396e-01 
       3.865366902904e-01       9.707938289807e-02 
       4.001968667448e-01       9.055433103658e-02 
       4.145153713076e-01       8.397635717031e-02 
       4.295641718077e-01       7.783152219698e-02 
       4.454304922144e-01       7.228265556013e-02 
       4.622214006969e-01       6.703527919266e-02 
       4.800702491654e-01       6.183449548844e-02 
       4.991459272112e-01       5.686975115349e-02 
       5.196665217302e-01       5.226034532361e-02 
       5.419201087032e-01       4.777776533895e-02 
       5.662975451962e-01       4.343306051230e-02 
       5.933463737275e-01       3.927836231360e-02 
       6.238638458458e-01       3.520204082647e-02 
       6.590669257916e-01       3.121271617752e-02 
       7.009246080454e-01       2.723885708610e-02 
       7.528593308799e-01       2.323176133026e-02 
       8.213469537518e-01       1.910369754986e-02 
       9.196980813302e-01       1.477534447240e-02 
       1.075112183810e+00       1.031304208329e-02 
       1.322697471132e+00       6.346415733927e-03 
       1.662328205042e+00       3.677535464092e-03 
       2.092692408506e+00       2.100843152967e-03 
       2.634543445090e+00       1.188161101561e-03 
       3.316693691389e+00       6.652951509277e-04 
       4.175469971226e+00       3.685986039048e-04 
       5.256605252960e+00       2.018156172748e-04 
       6.617673932723e+00       1.089493420669e-04 
       8.331157880872e+00       5.777279785606e-05 
       1.048830636590e+01       2.991462455508e-05 
       1.320399541071e+01       1.498621865720e-05 
       1.662284535976e+01       7.160345885916e-06 
       2.092692243973e+01       3.190380478742e-06 
       2.634543445002e+01       1.277910068727e-06 
       3.316693691389e+01       4.312194360432e-07 
       4.175469971226e+01       1.070751702961e-07 
       5.256605252960e+01       1.300299632850e-08 
       6.617673932723e+01       3.580521464751e-11 
