# Matter power spectrum P(k) at redshift z=0
# for k=1.04775e-05 to 67.6233 h/Mpc,
# number of wavenumbers equal to 246
#    1:k (h/Mpc)              2:P (Mpc/h)^3        
       1.047750691046e-05       5.020963915139e+01 
       1.131335172503e-05       5.407050701817e+01 
       1.221587619537e-05       5.822819199636e+01 
       1.319039970183e-05       6.270561468420e+01 
       1.424266597921e-05       6.752732240888e+01 
       1.537887696968e-05       7.271977206206e+01 
       1.660572937635e-05       7.831147247945e+01 
       1.793045413292e-05       8.433311821999e+01 
       1.936085902198e-05       9.081778249821e+01 
       2.090537469327e-05       9.780106721741e+01 
       2.257310435294e-05       1.053213197914e+02 
       2.437387741694e-05       1.134197377905e+02 
       2.631830744443e-05       1.221408204031e+02 
       2.841785469300e-05       1.315324661128e+02 
       3.068489366414e-05       1.416462092701e+02 
       3.313278603720e-05       1.525374501943e+02 
       3.577595942169e-05       1.642660688391e+02 
       3.862999239199e-05       1.768963506279e+02 
       4.171170630578e-05       1.904975994345e+02 
       4.503926444729e-05       2.051444491961e+02 
       4.863227907969e-05       2.209171458530e+02 
       5.251192703764e-05       2.379022223388e+02 
       5.670107454120e-05       2.561927754683e+02 
       6.122441196689e-05       2.758890449867e+02 
       6.610859936996e-05       2.970989228022e+02 
       7.138242361596e-05       3.199385560802e+02 
       7.707696804727e-05       3.445329783661e+02 
       8.322579568497e-05       3.710167324592e+02 
       8.986514704559e-05       3.995346445201e+02 
       9.703415373875e-05       4.302425406826e+02 
       1.047750691046e-04       4.633080766745e+02 
       1.131335172503e-04       4.989116270054e+02 
       1.221587619537e-04       5.372471950925e+02 
       1.319039970183e-04       5.785234080922e+02 
       1.424266597921e-04       6.229645936044e+02 
       1.537887696968e-04       6.708118490425e+02 
       1.660572937635e-04       7.223242666088e+02 
       1.793045413292e-04       7.777801563481e+02 
       1.936085902198e-04       8.374783614185e+02 
       2.090537469327e-04       9.017396271822e+02 
       2.257310435294e-04       9.709080278296e+02 
       2.437387741694e-04       1.045352449498e+03 
       2.631830744443e-04       1.125468124243e+03 
       2.841785469300e-04       1.211678180444e+03 
       3.068489366414e-04       1.304435250148e+03 
       3.313278603720e-04       1.404223053676e+03 
       3.577595942169e-04       1.511558014612e+03 
       3.862999239199e-04       1.626990839865e+03 
       4.171170630578e-04       1.751108028720e+03 
       4.503926444729e-04       1.884533385477e+03 
       4.863227907969e-04       2.027929378032e+03 
       5.251192703764e-04       2.181998448103e+03 
       5.670107454121e-04       2.347484102641e+03 
       6.122441196689e-04       2.525171871167e+03 
       6.610859936996e-04       2.715889983561e+03 
       7.138242361596e-04       2.920509688169e+03 
       7.707696804727e-04       3.139945100041e+03 
       8.322579568497e-04       3.375152337306e+03 
       8.986514704559e-04       3.627127830959e+03 
       9.703415373875e-04       3.896905452564e+03 
       1.047750691046e-03       4.185552173485e+03 
       1.131335172503e-03       4.494162429228e+03 
       1.221587619537e-03       4.823850704890e+03 
       1.319039970183e-03       5.175742736932e+03 
       1.424266597921e-03       5.551019593376e+03 
       1.537887696968e-03       5.950788335483e+03 
       1.660572937635e-03       6.376123044168e+03 
       1.793045413292e-03       6.828073890085e+03 
       1.936085902198e-03       7.307625364894e+03 
       2.090537469327e-03       7.815671842322e+03 
       2.257310435294e-03       8.352990341846e+03 
       2.437387741694e-03       8.920211015505e+03 
       2.631830744443e-03       9.517782999144e+03 
       2.841785469300e-03       1.014593694459e+04 
       3.068489366414e-03       1.080464488674e+04 
       3.313278603720e-03       1.149357440295e+04 
       3.577595942169e-03       1.221203593494e+04 
       3.862999239199e-03       1.295892499826e+04 
       4.171170630578e-03       1.373265979815e+04 
       4.503926444729e-03       1.453111758474e+04 
       4.863227907969e-03       1.535154870334e+04 
       5.251192703764e-03       1.619063423292e+04 
       5.670107454120e-03       1.704431051667e+04 
       6.122441196689e-03       1.790755676364e+04 
       6.610859936996e-03       1.877460015623e+04 
       7.138242361596e-03       1.963871950647e+04 
       7.707696804727e-03       2.049215003444e+04 
       8.322579568496e-03       2.132610106636e+04 
       8.986514704559e-03       2.213053724812e+04 
       9.703415373875e-03       2.289443799290e+04 
       1.047750691046e-02       2.360547061805e+04 
       1.131335172503e-02       2.425019507617e+04 
       1.221587619537e-02       2.481419828411e+04 
       1.319039970183e-02       2.528213343140e+04 
       1.424266597920e-02       2.563807266375e+04 
       1.537887696964e-02       2.586597636439e+04 
       1.660572937560e-02       2.595015386618e+04 
       1.793045412207e-02       2.587618418235e+04 
       1.936085889642e-02       2.563200323144e+04 
       2.090537351881e-02       2.520909224162e+04 
       2.257309534705e-02       2.460411367935e+04 
       2.437382002240e-02       2.382044200301e+04 
       2.631799943729e-02       2.286995716111e+04 
       2.841644544598e-02       2.177387897114e+04 
       3.067933354524e-02       2.056475488374e+04 
       3.311368469821e-02       1.928632825869e+04 
       3.571840442514e-02       1.799282127952e+04 
       3.847720347390e-02       1.674544629347e+04 
       4.135335537314e-02       1.560302834017e+04 
       4.429361666563e-02       1.460852563033e+04 
       4.724366437916e-02       1.377841237522e+04 
       5.016480834039e-02       1.310264199397e+04 
       5.303989618930e-02       1.255447927523e+04 
       5.586870668205e-02       1.210131390354e+04 
       5.866042679206e-02       1.171147077262e+04 
       6.142798931504e-02       1.135704156361e+04 
       6.418496438662e-02       1.101492872104e+04 
       6.694418832236e-02       1.066680893062e+04 
       6.971731104453e-02       1.029948320452e+04 
       7.251476154108e-02       9.904701312774e+03 
       7.534587669814e-02       9.479266907208e+03 
       7.821907664495e-02       9.024883862986e+03 
       8.114203771084e-02       8.547497896639e+03 
       8.412184533139e-02       8.056934985016e+03 
       8.716512277352e-02       7.565654882072e+03 
       9.027813693913e-02       7.087198287519e+03 
       9.346688429613e-02       6.635089687685e+03 
       9.673716026122e-02       6.221123602094e+03 
       1.000946150608e-01       5.854147827751e+03 
       1.035447986307e-01       5.539293749717e+03 
       1.070931966524e-01       5.276947216397e+03 
       1.107452594180e-01       5.062983036531e+03 
       1.145064248899e-01       4.888523946206e+03 
       1.183821370656e-01       4.740863031400e+03 
       1.223778605591e-01       4.604492763339e+03 
       1.264990921707e-01       4.463113204924e+03 
       1.307513701078e-01       4.302546985769e+03 
       1.351402814485e-01       4.113468825801e+03 
       1.396714683894e-01       3.894006687677e+03 
       1.443506337875e-01       3.650492658466e+03 
       1.491835464900e-01       3.396220081391e+03 
       1.541760469368e-01       3.148320983254e+03 
       1.593340535209e-01       2.923516418359e+03 
       1.646635701934e-01       2.733764398817e+03 
       1.701706958081e-01       2.583468701059e+03 
       1.758616357070e-01       2.468221052092e+03 
       1.817427160581e-01       2.375911896544e+03 
       1.878204014651e-01       2.290839238948e+03 
       1.941013163855e-01       2.196025770230e+03 
       2.005922709060e-01       2.080930134995e+03 
       2.073002914514e-01       1.946489094066e+03 
       2.142326570343e-01       1.804165173469e+03 
       2.213969417044e-01       1.669219631442e+03 
       2.288010639201e-01       1.553690719647e+03 
       2.364533436625e-01       1.462385859366e+03 
       2.443625682390e-01       1.391026173908e+03 
       2.525380678946e-01       1.327737135647e+03 
       2.609898025770e-01       1.260065717202e+03 
       2.697284614969e-01       1.182463329131e+03 
       2.787655775073e-01       1.098383233399e+03 
       2.881136588192e-01       1.017789467527e+03 
       2.977863412019e-01       9.494352318349e+02 
       3.077985646248e-01       8.938703660008e+02 
       3.181667793367e-01       8.448655266814e+02 
       3.289091877084e-01       7.948158694556e+02 
       3.400460298905e-01       7.409825597268e+02 
       3.515999235695e-01       6.875052516803e+02 
       3.635962710278e-01       6.396124554642e+02 
       3.760637505499e-01       5.986104442140e+02 
       3.890349143014e-01       5.605609795702e+02 
       4.025469215929e-01       5.221825214967e+02 
       4.166424455447e-01       4.840330813089e+02 
       4.313708034899e-01       4.488682567868e+02 
       4.467893781976e-01       4.171584846350e+02 
       4.629654198623e-01       3.871445056835e+02 
       4.799783500912e-01       3.576295550898e+02 
       4.979227318246e-01       3.296522332379e+02 
       5.169121269689e-01       3.039143732507e+02 
       5.370841403262e-01       2.792967463771e+02 
       5.586070463286e-01       2.556153839268e+02 
       5.816885093582e-01       2.333709680627e+02 
       6.065870143577e-01       2.121926258053e+02 
       6.336266466978e-01       1.919146774979e+02 
       6.632156057925e-01       1.726735886383e+02 
       6.958678637575e-01       1.542591910759e+02 
       7.322247983784e-01       1.367278296295e+02 
       7.730680193171e-01       1.200171789000e+02 
       8.193049551574e-01       1.041924655555e+02 
       8.718988013754e-01       8.933191198361e+01 
       9.317218028590e-01       7.558915511032e+01 
       9.993660906273e-01       6.314200363519e+01 
       1.075037109879e+00       5.213290590746e+01 
       1.158653485387e+00       4.261570670098e+01 
       1.250099156961e+00       3.454229633322e+01 
       1.349432400897e+00       2.777950044145e+01 
       1.456947456991e+00       2.216510216174e+01 
       1.573135110893e+00       1.753545145331e+01 
       1.698621895119e+00       1.374071839162e+01 
       1.834127512423e+00       1.065026144208e+01 
       1.980444933977e+00       8.151494850719e+00 
       2.138435191130e+00       6.148454583059e+00 
       2.309029198543e+00       4.558789912153e+00 
       2.493232376993e+00       3.312431333048e+00 
       2.692130394536e+00       2.349232873825e+00 
       2.906895533764e+00       1.617968885116e+00 
       3.138793596840e+00       1.074657925979e+00 
       3.389191365541e+00       6.817644873715e-01 
       3.659564656886e+00       4.073057601097e-01 
       3.951507021438e+00       2.240581011106e-01 
       4.266739135513e+00       1.091111465744e-01 
       4.607118942658e+00       4.339319393377e-02 
       4.974652604172e+00       1.133962527837e-02 
       5.371506323193e+00       5.711989582266e-04 
       5.800019112071e+00       1.640959123418e-03 
       6.262716578240e+00       7.737669996455e-03 
       6.762325809881e+00       1.437434408842e-02 
       7.301791449077e+00       1.901821023186e-02 
       7.884293047211e+00       2.069076977505e-02 
       8.513263804891e+00       1.952128028984e-02 
       9.192410806865e+00       1.630977746433e-02 
       9.925736871166e+00       1.211363385658e-02 
       1.071756414128e+01       7.926509723598e-03 
       1.157255956041e+01       4.457137414457e-03 
       1.249576237789e+01       2.041196383937e-03 
       1.349261385000e+01       6.698831893374e-04 
       1.456898931011e+01       1.006793987985e-04 
       1.573123279727e+01       2.866212575704e-06 
       1.698619444729e+01       8.362116656504e-05 
       1.834127086665e+01       1.600011783530e-04 
       1.980444872733e+01       1.671285783765e-04 
       2.138435183937e+01       1.200882066734e-04 
       2.309029197863e+01       6.082229705636e-05 
       2.493232376942e+01       1.951464250518e-05 
       2.692130394533e+01       2.392078824271e-06 
       2.906895533764e+01       1.612070227284e-07 
       3.138793596840e+01       1.805946093416e-06 
       3.389191365541e+01       2.137674157670e-06 
       3.659564656886e+01       1.175901803809e-06 
       3.951507021438e+01       3.051048260429e-07 
       4.266739135513e+01       1.341522252407e-08 
       4.607118942658e+01       1.338349179470e-08 
       4.974652604172e+01       2.517436789458e-08 
       5.371506323193e+01       9.599025010020e-09 
       5.800019112071e+01       4.548462256891e-10 
       6.262716578240e+01       5.016412740502e-10 
       6.762325809881e+01       8.216780171920e-10 
