# Matter power spectrum P(k) at redshift z=99
# for k=1.04775e-05 to 66.1767 h/Mpc,
# number of wavenumbers equal to 130
#    1:k (h/Mpc)              2:P (Mpc/h)^3        
       1.047750691046e-05       7.261927717749e-03 
       1.319039970183e-05       9.069258248111e-03 
       1.660572937635e-05       1.132639112471e-02 
       2.090537469327e-05       1.414527130568e-02 
       2.631830744443e-05       1.766569578127e-02 
       3.313278603720e-05       2.206225527113e-02 
       4.171170630578e-05       2.755297780171e-02 
       5.251192703764e-05       3.441013540532e-02 
       6.610859936996e-05       4.297372194562e-02 
       8.322579568497e-05       5.366826880049e-02 
       1.047750691046e-04       6.702379906705e-02 
       1.319039970183e-04       8.370193483674e-02 
       1.660572937635e-04       1.045283360655e-01 
       2.090537469327e-04       1.305329140654e-01 
       2.631830744443e-04       1.629994514677e-01 
       3.313278603720e-04       2.035264014648e-01 
       4.171170630578e-04       2.541004756581e-01 
       5.251192703764e-04       3.171839543559e-01 
       6.610859936996e-04       3.958147274354e-01 
       8.322579568497e-04       4.937136026864e-01 
       1.047750691046e-03       6.153841658317e-01 
       1.319039970183e-03       7.661720613213e-01 
       1.660572937635e-03       9.522588018120e-01 
       2.090537469327e-03       1.180312989260e+00 
       2.631830744443e-03       1.456802672189e+00 
       3.313278603720e-03       1.786503815837e+00 
       4.171170630578e-03       2.169896124477e+00 
       5.251192703764e-03       2.599430367099e+00 
       6.610859936996e-03       3.055667877214e+00 
       8.322579568497e-03       3.505723259181e+00 
       1.047750691046e-02       3.905486268709e+00 
       1.319039970183e-02       4.200906163715e+00 
       1.660572937633e-02       4.325039350477e+00 
       2.090537453514e-02       4.210156965549e+00 
       2.631818545635e-02       3.825062844902e+00 
       3.311571692125e-02       3.228893682815e+00 
       4.113809243311e-02       2.627457731993e+00 
       4.792590854610e-02       2.280412602518e+00 
       5.284436902701e-02       2.109629070007e+00 
       5.689644391095e-02       2.003020141325e+00 
       6.051252627066e-02       1.922479981511e+00 
       6.388413457411e-02       1.852108671379e+00 
       6.711249296401e-02       1.783891707872e+00 
       7.025823437965e-02       1.713565001496e+00 
       7.336115587705e-02       1.639068733087e+00 
       7.644928796912e-02       1.559881352416e+00 
       7.954353299775e-02       1.476641797031e+00 
       8.266024078725e-02       1.390852812291e+00 
       8.581273398637e-02       1.304590607563e+00 
       8.901225918437e-02       1.220227502141e+00 
       9.226860540985e-02       1.140153764616e+00 
       9.559052048996e-02       1.066496033122e+00 
       9.898599946599e-02       1.000899635891e+00 
       1.024624891378e-01       9.443592032205e-01 
       1.060270359164e-01       8.970877841723e-01 
       1.096863943056e-01       8.585133993030e-01 
       1.134471073830e-01       8.272598164302e-01 
       1.173155669539e-01       8.012759180531e-01 
       1.212980586983e-01       7.779931926949e-01 
       1.254007961065e-01       7.546387989405e-01 
       1.296299459934e-01       7.286621074627e-01 
       1.339916477160e-01       6.982389928715e-01 
       1.384920277736e-01       6.626954216470e-01 
       1.431372111762e-01       6.227427177266e-01 
       1.479333307714e-01       5.803419462913e-01 
       1.528865355934e-01       5.382571209987e-01 
       1.580029992204e-01       4.993583470449e-01 
       1.632889290723e-01       4.659216192614e-01 
       1.687505775527e-01       4.390261871828e-01 
       1.743942559171e-01       4.183203965878e-01 
       1.802263517371e-01       4.020713006558e-01 
       1.862533508214e-01       3.877287701835e-01 
       1.924818644494e-01       3.724629738514e-01 
       1.989186627765e-01       3.541018025404e-01 
       2.055707152847e-01       3.322804964012e-01 
       2.124452391818e-01       3.085388898139e-01 
       2.195497567139e-01       2.853878301359e-01 
       2.268921624510e-01       2.650602564404e-01 
       2.344808017550e-01       2.487145352212e-01 
       2.423245618548e-01       2.360330788052e-01 
       2.504329772620e-01       2.252780528496e-01 
       2.588163516754e-01       2.142542557868e-01 
       2.674858990930e-01       2.016647583626e-01 
       2.764539076010e-01       1.877094286153e-01 
       2.857339303080e-01       1.738645354980e-01 
       2.953410092148e-01       1.617980399601e-01 
       3.052919395542e-01       1.519880750298e-01 
       3.156055844677e-01       1.435900593215e-01 
       3.263032530092e-01       1.352917524692e-01 
       3.374091587054e-01       1.263350535484e-01 
       3.489509817175e-01       1.172020280422e-01 
       3.609605657343e-01       1.088339787470e-01 
       3.734747921333e-01       1.016621283034e-01 
       3.865366902904e-01       9.514722274719e-02 
       4.001968667448e-01       8.861593866178e-02 
       4.145153713076e-01       8.203691460377e-02 
       4.295641718077e-01       7.589061967716e-02 
       4.454304922144e-01       7.033853874132e-02 
       4.622214006969e-01       6.508867838702e-02 
       4.800702491654e-01       5.988955443832e-02 
       4.991459272112e-01       5.492845436621e-02 
       5.196665217302e-01       5.032204510899e-02 
       5.419201087032e-01       4.584510380790e-02 
       5.662975451962e-01       4.150899141307e-02 
       5.933463737275e-01       3.736412074933e-02 
       6.238638458458e-01       3.330147975019e-02 
       6.590669257916e-01       2.932960408118e-02 
       7.009246080454e-01       2.537848294472e-02 
       7.528593308799e-01       2.140200687364e-02 
       8.213469537518e-01       1.731729997874e-02 
       9.196980813302e-01       1.305455731553e-02 
       1.075112183810e+00       8.698865416479e-03 
       1.322697471132e+00       4.899503586756e-03 
       1.662328205042e+00       2.442446795042e-03 
       2.092692408506e+00       1.098001385745e-03 
       2.634543445090e+00       4.225200476180e-04 
       3.316693691389e+00       1.241872029230e-04 
       4.175469971226e+00       2.051376566296e-05 
       5.256605252960e+00       1.708213891421e-07 
       6.617673932723e+00       2.390457707606e-06 
       8.331157880872e+00       3.427736895172e-06 
       1.048830636590e+01       1.443715239810e-06 
       1.320399541071e+01       1.325482325530e-07 
       1.662284535976e+01       1.287432876924e-08 
       2.092692243973e+01       2.188947674032e-08 
       2.634543445002e+01       5.553242370901e-10 
       3.316693691389e+01       3.815250807956e-10 
       4.175469971226e+01       3.912887026995e-12 
       5.256605252960e+01       1.968614453865e-12 
       6.617673932723e+01       1.514256322641e-13 
