# Matter power spectrum P(k) at redshift z=0
# for k=1.04775e-05 to 66.1767 h/Mpc,
# number of wavenumbers equal to 130
#    1:k (h/Mpc)              2:P (Mpc/h)^3        
       1.047750691046e-05       5.020964811323e+01 
       1.319039970183e-05       6.270562594912e+01 
       1.660572937635e-05       7.831147247912e+01 
       2.090537469327e-05       9.780108069430e+01 
       2.631830744443e-05       1.221408203809e+02 
       3.313278603720e-05       1.525374501932e+02 
       4.171170630578e-05       1.904975994013e+02 
       5.251192703764e-05       2.379022224240e+02 
       6.610859936996e-05       2.970989227883e+02 
       8.322579568497e-05       3.710167318946e+02 
       1.047750691046e-04       4.633080766742e+02 
       1.319039970183e-04       5.785234129337e+02 
       1.660572937635e-04       7.223242666092e+02 
       2.090537469327e-04       9.017396271824e+02 
       2.631830744443e-04       1.125468123751e+03 
       3.313278603720e-04       1.404223053681e+03 
       4.171170630578e-04       1.751108028790e+03 
       5.251192703764e-04       2.181998448133e+03 
       6.610859936996e-04       2.715889983592e+03 
       8.322579568497e-04       3.375152337132e+03 
       1.047750691046e-03       4.185552174304e+03 
       1.319039970183e-03       5.175742744047e+03 
       1.660572937635e-03       6.376123051740e+03 
       2.090537469327e-03       7.815671865994e+03 
       2.631830744443e-03       9.517783068657e+03 
       3.313278603720e-03       1.149357460214e+04 
       4.171170630578e-03       1.373266013661e+04 
       5.251192703764e-03       1.619063613497e+04 
       6.610859936996e-03       1.877460417946e+04 
       8.322579568497e-03       2.132607227508e+04 
       1.047750691046e-02       2.360548847546e+04 
       1.319039970183e-02       2.528218635191e+04 
       1.660572937633e-02       2.595027098795e+04 
       2.090537453514e-02       2.520934375239e+04 
       2.631818545635e-02       2.287033554689e+04 
       3.311571692125e-02       1.928624382712e+04 
       4.113809243311e-02       1.568436823487e+04 
       4.792590854610e-02       1.361064368952e+04 
       5.284436902701e-02       1.259127048065e+04 
       5.689644391095e-02       1.195553407486e+04 
       6.051252627066e-02       1.147544512788e+04 
       6.388413457411e-02       1.105587101617e+04 
       6.711249296401e-02       1.064898430713e+04 
       7.025823437965e-02       1.022927049354e+04 
       7.336115587705e-02       9.784518611827e+03 
       7.644928796912e-02       9.311601861141e+03 
       7.954353299775e-02       8.814496649695e+03 
       8.266024078725e-02       8.302132005596e+03 
       8.581273398637e-02       7.786935061534e+03 
       8.901225918437e-02       7.283173736724e+03 
       9.226860540985e-02       6.805138173369e+03 
       9.559052048996e-02       6.365621823674e+03 
       9.898599946599e-02       5.974361323324e+03 
       1.024624891378e-01       5.637331618687e+03 
       1.060270359164e-01       5.355762863778e+03 
       1.096863943056e-01       5.126233509093e+03 
       1.134471073830e-01       4.940465343963e+03 
       1.173155669539e-01       4.786145630584e+03 
       1.212980586983e-01       4.647900671858e+03 
       1.254007961065e-01       4.509117982467e+03 
       1.296299459934e-01       4.354527692599e+03 
       1.339916477160e-01       4.173189792205e+03 
       1.384920277736e-01       3.961125711549e+03 
       1.431372111762e-01       3.722631803963e+03 
       1.479333307714e-01       3.469537142199e+03 
       1.528865355934e-01       3.218309047453e+03 
       1.580029992204e-01       2.986252999310e+03 
       1.632889290723e-01       2.786935788721e+03 
       1.687505775527e-01       2.626800706277e+03 
       1.743942559171e-01       2.503745907116e+03 
       1.802263517371e-01       2.407304649320e+03 
       1.862533508214e-01       2.322229066573e+03 
       1.924818644494e-01       2.231519957454e+03 
       1.989186627765e-01       2.122159171474e+03 
       2.055707152847e-01       1.992000286107e+03 
       2.124452391818e-01       1.850291092099e+03 
       2.195497567139e-01       1.712139485553e+03 
       2.268921624510e-01       1.590955392087e+03 
       2.344808017550e-01       1.493634413278e+03 
       2.423245618548e-01       1.418279439082e+03 
       2.504329772620e-01       1.354436785947e+03 
       2.588163516754e-01       1.288904409828e+03 
       2.674858990930e-01       1.213904165652e+03 
       2.764539076010e-01       1.130664526109e+03 
       2.857339303080e-01       1.048069998666e+03 
       2.953410092148e-01       9.761509349727e+02 
       3.052919395542e-01       9.177793502469e+02 
       3.156055844677e-01       8.678708662375e+02 
       3.263032530092e-01       8.184972811033e+02 
       3.374091587054e-01       7.651170858883e+02 
       3.489509817175e-01       7.106415658225e+02 
       3.609605657343e-01       6.607578873152e+02 
       3.734747921333e-01       6.180565123721e+02 
       3.865366902904e-01       5.792822243551e+02 
       4.001968667448e-01       5.403628913079e+02 
       4.145153713076e-01       5.011241733333e+02 
       4.295641718077e-01       4.644729339129e+02 
       4.454304922144e-01       4.313813192218e+02 
       4.622214006969e-01       4.000885770534e+02 
       4.800702491654e-01       3.690628589902e+02 
       4.991459272112e-01       3.394506448848e+02 
       5.196665217302e-01       3.119603505871e+02 
       5.419201087032e-01       2.852221130798e+02 
       5.662975451962e-01       2.593064131633e+02 
       5.933463737275e-01       2.345238471560e+02 
       6.238638458458e-01       2.102070634519e+02 
       6.590669257916e-01       1.864108846144e+02 
       7.009246080454e-01       1.627031937155e+02 
       7.528593308799e-01       1.387973672134e+02 
       8.213469537518e-01       1.141682050957e+02 
       9.196980813302e-01       8.834054813583e+01 
       1.075112183810e+00       6.170909504961e+01 
       1.322697471132e+00       3.802798352725e+01 
       1.662328205042e+00       2.208528875809e+01 
       2.092692408506e+00       1.265849169133e+01 
       2.634543445090e+00       7.194421001658e+00 
       3.316693691389e+00       4.057714742389e+00 
       4.175469971226e+00       2.272446449705e+00 
       5.256605252960e+00       1.264251991955e+00 
       6.617673932723e+00       6.989297545616e-01 
       8.331157880872e+00       3.840147340684e-01 
       1.048830636590e+01       2.096600477900e-01 
       1.320399541071e+01       1.136958774787e-01 
       1.662284535976e+01       6.117952762667e-02 
       2.092692243973e+01       3.261010693798e-02 
       2.634543445002e+01       1.716885564676e-02 
       3.316693691389e+01       8.887689413254e-03 
       4.175469971226e+01       4.490877403995e-03 
       5.256605252960e+01       2.189979362792e-03 
       6.617673932723e+01       1.012282138846e-03 
