# Matter power spectrum P(k) at redshift z=0
# for k=1.04775e-05 to 66.1767 h/Mpc,
# number of wavenumbers equal to 130
#    1:k (h/Mpc)              2:P (Mpc/h)^3        
       1.047750691046e-05       5.020965048443e+01 
       1.319039970183e-05       6.270561620006e+01 
       1.660572937635e-05       7.831149952411e+01 
       2.090537469327e-05       9.780106881943e+01 
       2.631830744443e-05       1.221408204281e+02 
       3.313278603720e-05       1.525374504593e+02 
       4.171170630578e-05       1.904975995293e+02 
       5.251192703764e-05       2.379022228533e+02 
       6.610859936996e-05       2.970989228436e+02 
       8.322579568497e-05       3.710167326103e+02 
       1.047750691046e-04       4.633080766770e+02 
       1.319039970183e-04       5.785234141702e+02 
       1.660572937635e-04       7.223242666092e+02 
       2.090537469327e-04       9.017396271671e+02 
       2.631830744443e-04       1.125468123082e+03 
       3.313278603720e-04       1.404223053641e+03 
       4.171170630578e-04       1.751108027554e+03 
       5.251192703764e-04       2.181998447067e+03 
       6.610859936996e-04       2.715889983540e+03 
       8.322579568497e-04       3.375152334228e+03 
       1.047750691046e-03       4.185552165919e+03 
       1.319039970183e-03       5.175742715887e+03 
       1.660572937635e-03       6.376122954810e+03 
       2.090537469327e-03       7.815671695846e+03 
       2.631830744443e-03       9.517782353629e+03 
       3.313278603720e-03       1.149357259048e+04 
       4.171170630578e-03       1.373265487204e+04 
       5.251192703764e-03       1.619062175027e+04 
       6.610859936996e-03       1.877456693146e+04 
       8.322579568497e-03       2.132598221643e+04 
       1.047750691046e-02       2.360527318602e+04 
       1.319039970183e-02       2.528169307090e+04 
       1.660572937633e-02       2.594918789834e+04 
       2.090537453514e-02       2.520712147513e+04 
       2.631818545635e-02       2.286593656563e+04 
       3.311571692125e-02       1.927819146323e+04 
       4.113809243311e-02       1.567128237476e+04 
       4.792590854610e-02       1.359315807197e+04 
       5.284436902701e-02       1.257056947437e+04 
       5.689644391095e-02       1.193227317388e+04 
       6.051252627066e-02       1.145006511125e+04 
       6.388413457411e-02       1.102867177601e+04 
       6.711249296401e-02       1.062019481465e+04 
       7.025823437965e-02       1.019915116464e+04 
       7.336115587705e-02       9.753257718829e+03 
       7.644928796912e-02       9.279411306923e+03 
       7.954353299775e-02       8.781498388014e+03 
       8.266024078725e-02       8.268428764722e+03 
       8.581273398637e-02       7.752594913243e+03 
       8.901225918437e-02       7.248264881067e+03 
       9.226860540985e-02       6.769635704455e+03 
       9.559052048996e-02       6.329491862112e+03 
       9.898599946599e-02       5.937516478144e+03 
       1.024624891378e-01       5.599636409096e+03 
       1.060270359164e-01       5.317131213823e+03 
       1.096863943056e-01       5.086551204471e+03 
       1.134471073830e-01       4.899594465912e+03 
       1.173155669539e-01       4.744048109681e+03 
       1.212980586983e-01       4.604607340272e+03 
       1.254007961065e-01       4.464733244959e+03 
       1.296299459934e-01       4.309238196129e+03 
       1.339916477160e-01       4.127296700411e+03 
       1.384920277736e-01       3.914903963400e+03 
       1.431372111762e-01       3.676300303536e+03 
       1.479333307714e-01       3.423289602013e+03 
       1.528865355934e-01       3.172212513332e+03 
       1.580029992204e-01       2.940225797716e+03 
       1.632889290723e-01       2.740806424229e+03 
       1.687505775527e-01       2.580297125639e+03 
       1.743942559171e-01       2.456657675174e+03 
       1.802263517371e-01       2.359412165392e+03 
       1.862533508214e-01       2.273563170300e+03 
       1.924818644494e-01       2.182285358513e+03 
       1.989186627765e-01       2.072702797056e+03 
       2.055707152847e-01       1.942700639677e+03 
       2.124452391818e-01       1.801403560270e+03 
       2.195497567139e-01       1.663712609365e+03 
       2.268921624510e-01       1.542841903072e+03 
       2.344808017550e-01       1.445564832851e+03 
       2.423245618548e-01       1.369982676506e+03 
       2.504329772620e-01       1.305845584286e+03 
       2.588163516754e-01       1.240176698603e+03 
       2.674858990930e-01       1.165365472575e+03 
       2.764539076010e-01       1.082596437398e+03 
       2.857339303080e-01       1.000583358470e+03 
       2.953410092148e-01       9.291018000105e+02 
       3.052919395542e-01       8.709356856147e+02 
       3.156055844677e-01       8.211226029370e+02 
       3.263032530092e-01       7.719627103541e+02 
       3.374091587054e-01       7.190376041897e+02 
       3.489509817175e-01       6.651716232133e+02 
       3.609605657343e-01       6.158528924814e+02 
       3.734747921333e-01       5.735808310226e+02 
       3.865366902904e-01       5.352028543615e+02 
       4.001968667448e-01       4.968093251004e+02 
       4.145153713076e-01       4.582264699158e+02 
       4.295641718077e-01       4.222311588360e+02 
       4.454304922144e-01       3.897452351893e+02 
       4.622214006969e-01       3.590862324369e+02 
       4.800702491654e-01       3.288048868540e+02 
       4.991459272112e-01       2.999745144319e+02 
       5.196665217302e-01       2.732600458841e+02 
       5.419201087032e-01       2.473807347340e+02 
       5.662975451962e-01       2.223962939116e+02 
       5.933463737275e-01       1.985987144481e+02 
       6.238638458458e-01       1.753770558328e+02 
       6.590669257916e-01       1.527906855250e+02 
       7.009246080454e-01       1.304673669180e+02 
       7.528593308799e-01       1.081830079928e+02 
       8.213469537518e-01       8.554723742048e+01 
       9.196980813302e-01       6.231400313582e+01 
       1.075112183810e+00       3.922037514947e+01 
       1.322697471132e+00       2.004141653183e+01 
       1.662328205042e+00       8.637325495421e+00 
       2.092692408506e+00       3.159727514702e+00 
       2.634543445090e+00       8.941767962398e-01 
       3.316693691389e+00       1.534560212654e-01 
       4.175469971226e+00       4.452696062890e-03 
       5.256605252960e+00       6.641361909631e-03 
       6.617673932723e+00       1.207843637495e-02 
       8.331157880872e+00       5.849787001662e-03 
       1.048830636590e+01       9.282484844874e-04 
       1.320399541071e+01       1.284328650944e-06 
       1.662284535976e+01       4.180450423290e-05 
       2.092692243973e+01       9.732859589950e-06 
       2.634543445002e+01       2.694067585744e-09 
       3.316693691389e+01       1.426985671993e-07 
       4.175469971226e+01       4.282481009606e-10 
       5.256605252960e+01       5.734371949153e-11 
       6.617673932723e+01       1.556951151965e-10 
