# Matter power spectrum P(k) at redshift z=99
# for k=1.04775e-05 to 67.6233 h/Mpc,
# number of wavenumbers equal to 246
#    1:k (h/Mpc)              2:P (Mpc/h)^3        
       1.047750691046e-05       7.261927681373e-03 
       1.131335172503e-05       7.820331652983e-03 
       1.221587619537e-05       8.421675996048e-03 
       1.319039970183e-05       9.069258202491e-03 
       1.424266597921e-05       9.766638412820e-03 
       1.537887696968e-05       1.051764070875e-02 
       1.660572937635e-05       1.132639106805e-02 
       1.793045413292e-05       1.219733232801e-02 
       1.936085902198e-05       1.313524225871e-02 
       2.090537469327e-05       1.414527123499e-02 
       2.257310435294e-05       1.523296273930e-02 
       2.437387741694e-05       1.640429446404e-02 
       2.631830744443e-05       1.766569584183e-02 
       2.841785469300e-05       1.902408737139e-02 
       3.068489366414e-05       2.048692972917e-02 
       3.313278603720e-05       2.206225516097e-02 
       3.577595942169e-05       2.375870707605e-02 
       3.862999239199e-05       2.558560730382e-02 
       4.171170630578e-05       2.755297766470e-02 
       4.503926444729e-05       2.967161930685e-02 
       4.863227907969e-05       3.195316454457e-02 
       5.251192703764e-05       3.441013523191e-02 
       5.670107454120e-05       3.705601726732e-02 
       6.122441196689e-05       3.990533418084e-02 
       6.610859936996e-05       4.297372173080e-02 
       7.138242361596e-05       4.627802146941e-02 
       7.707696804727e-05       4.983636199814e-02 
       8.322579568497e-05       5.366826853320e-02 
       8.986514704559e-05       5.779476401124e-02 
       9.703415373875e-05       6.223848250949e-02 
       1.047750691046e-04       6.702379873245e-02 
       1.131335172503e-04       7.217695161572e-02 
       1.221587619537e-04       7.772619082390e-02 
       1.319039970183e-04       8.370193441873e-02 
       1.424266597921e-04       9.013692517771e-02 
       1.537887696968e-04       9.706641253582e-02 
       1.660572937635e-04       1.045283355457e-01 
       1.793045413292e-04       1.125635350345e-01 
       1.936085902198e-04       1.212159616343e-01 
       2.090537469327e-04       1.305329134195e-01 
       2.257310435294e-04       1.405652847809e-01 
       2.437387741694e-04       1.513678304256e-01 
       2.631830744443e-04       1.629994506717e-01 
       2.841785469300e-04       1.755234923214e-01 
       3.068489366414e-04       1.890080672555e-01 
       3.313278603720e-04       2.035264004741e-01 
       3.577595942169e-04       2.191571806163e-01 
       3.862999239199e-04       2.359849440264e-01 
       4.171170630578e-04       2.541004744414e-01 
       4.503926444729e-04       2.736012083371e-01 
       4.863227907969e-04       2.945916794295e-01 
       5.251192703764e-04       3.171839528765e-01 
       5.670107454121e-04       3.414980767855e-01 
       6.122441196689e-04       3.676625417246e-01 
       6.610859936996e-04       3.958147256761e-01 
       7.138242361596e-04       4.261013289617e-01 
       7.707696804727e-04       4.586787797626e-01 
       8.322579568497e-04       4.937136006575e-01 
       8.986514704559e-04       5.313826807343e-01 
       9.703415373875e-04       5.718734978538e-01 
       1.047750691046e-03       6.153841636354e-01 
       1.131335172503e-03       6.621233246805e-01 
       1.221587619537e-03       7.123098228287e-01 
       1.319039970183e-03       7.661720592697e-01 
       1.424266597921e-03       8.239546306735e-01 
       1.537887696968e-03       8.859011183080e-01 
       1.660572937635e-03       9.522588016656e-01 
       1.793045413292e-03       1.023280100908e+00 
       1.936085902198e-03       1.099216305731e+00 
       2.090537469327e-03       1.180312991667e+00 
       2.257310435294e-03       1.266804117125e+00 
       2.437387741694e-03       1.358904854733e+00 
       2.631830744443e-03       1.456802684526e+00 
       2.841785469300e-03       1.560646891919e+00 
       3.068489366414e-03       1.670536063903e+00 
       3.313278603720e-03       1.786503853558e+00 
       3.577595942169e-03       1.908502932097e+00 
       3.862999239199e-03       2.036387731885e+00 
       4.171170630578e-03       2.169896193059e+00 
       4.503926444729e-03       2.308631879616e+00 
       4.863227907969e-03       2.452047291085e+00 
       5.251192703764e-03       2.599430627495e+00 
       5.670107454120e-03       2.749896930241e+00 
       6.122441196689e-03       2.902386510351e+00 
       6.610859936996e-03       3.055668700733e+00 
       7.138242361596e-03       3.208356453866e+00 
       7.707696804727e-03       3.358923882324e+00 
       8.322579568496e-03       3.505725579234e+00 
       8.986514704559e-03       3.647009692918e+00 
       9.703415373875e-03       3.780923272943e+00 
       1.047750691046e-02       3.905491031401e+00 
       1.131335172503e-02       4.018587575609e+00 
       1.221587619537e-02       4.117901506956e+00 
       1.319039970183e-02       4.200915312475e+00 
       1.424266597920e-02       4.264943501314e+00 
       1.537887696964e-02       4.307218315964e+00 
       1.660572937560e-02       4.325064018278e+00 
       1.793045412207e-02       4.316055707595e+00 
       1.936085889642e-02       4.278227554157e+00 
       2.090537351881e-02       4.210197816758e+00 
       2.257309534705e-02       4.111420129854e+00 
       2.437382002240e-02       3.982420347312e+00 
       2.631799943729e-02       3.825165470132e+00 
       2.841644544598e-02       3.643282166887e+00 
       3.067933354524e-02       3.442195845543e+00 
       3.311368469821e-02       3.229245787743e+00 
       3.571840442514e-02       3.013513618141e+00 
       3.847720347390e-02       2.805275787489e+00 
       4.135335537314e-02       2.614406146462e+00 
       4.429361666563e-02       2.448132490032e+00 
       4.724366437916e-02       2.309233133162e+00 
       5.016480834039e-02       2.196110764097e+00 
       5.303989618930e-02       2.104360619259e+00 
       5.586870668205e-02       2.028460488934e+00 
       5.866042679206e-02       1.963148263814e+00 
       6.142798931504e-02       1.903777317080e+00 
       6.418496438662e-02       1.846474000610e+00 
       6.694418832236e-02       1.788189320671e+00 
       6.971731104453e-02       1.726708860925e+00 
       7.251476154108e-02       1.660650339937e+00 
       7.534587669814e-02       1.589462573476e+00 
       7.821907664495e-02       1.513429299786e+00 
       8.114203771084e-02       1.433560688914e+00 
       8.412184533139e-02       1.351486076452e+00 
       8.716512277352e-02       1.269265847469e+00 
       9.027813693913e-02       1.189180886101e+00 
       9.346688429613e-02       1.113492132041e+00 
       9.673716026122e-02       1.044167219927e+00 
       1.000946150608e-01       9.826989977764e-01 
       1.035447986307e-01       9.299298825373e-01 
       1.070931966524e-01       8.859513099009e-01 
       1.107452594180e-01       8.500617381880e-01 
       1.145064248899e-01       8.207962309383e-01 
       1.183821370656e-01       7.960141321412e-01 
       1.223778605591e-01       7.731342761713e-01 
       1.264990921707e-01       7.494400030756e-01 
       1.307513701078e-01       7.225468865240e-01 
       1.351402814485e-01       6.908964808330e-01 
       1.396714683894e-01       6.541688031539e-01 
       1.443506337875e-01       6.134152336534e-01 
       1.491835464900e-01       5.708574563713e-01 
       1.541760469368e-01       5.293527158503e-01 
       1.593340535209e-01       4.916987375644e-01 
       1.646635701934e-01       4.599080180299e-01 
       1.701706958081e-01       4.347164448869e-01 
       1.758616357070e-01       4.153962297590e-01 
       1.817427160581e-01       3.999250303042e-01 
       1.878204014651e-01       3.856700573867e-01 
       1.941013163855e-01       3.697970217295e-01 
       2.005922709060e-01       3.505327621897e-01 
       2.073002914514e-01       3.280307398581e-01 
       2.142326570343e-01       3.042008547583e-01 
       2.213969417044e-01       2.815983313855e-01 
       2.288010639201e-01       2.622441336829e-01 
       2.364533436625e-01       2.469485609711e-01 
       2.443625682390e-01       2.350000638298e-01 
       2.525380678946e-01       2.244044754908e-01 
       2.609898025770e-01       2.130801174830e-01 
       2.697284614969e-01       2.000884007676e-01 
       2.787655775073e-01       1.860069342763e-01 
       2.881136588192e-01       1.725038722656e-01 
       2.977863412019e-01       1.610522772864e-01 
       3.077985646248e-01       1.517479306241e-01 
       3.181667793367e-01       1.435457271974e-01 
       3.289091877084e-01       1.351677870041e-01 
       3.400460298905e-01       1.261507002518e-01 
       3.515999235695e-01       1.171884110666e-01 
       3.635962710278e-01       1.091635169737e-01 
       3.760637505499e-01       1.022959489922e-01 
       3.890349143014e-01       9.592440345200e-02 
       4.025469215929e-01       8.949417605796e-02 
       4.166424455447e-01       8.309841559178e-02 
       4.313708034899e-01       7.720221567283e-02 
       4.467893781976e-01       7.188728920054e-02 
       4.629654198623e-01       6.685570333573e-02 
       4.799783500912e-01       6.190444076776e-02 
       4.979227318246e-01       5.720911161737e-02 
       5.169121269689e-01       5.288973980387e-02 
       5.370841403262e-01       4.875679697367e-02 
       5.586070463286e-01       4.477792343812e-02 
       5.816885093582e-01       4.103908467907e-02 
       6.065870143577e-01       3.747705956303e-02 
       6.336266466978e-01       3.406366767246e-02 
       6.632156057925e-01       3.082198302832e-02 
       6.958678637575e-01       2.771591464263e-02 
       7.322247983784e-01       2.475479281231e-02 
       7.730680193171e-01       2.192745239669e-02 
       8.193049551574e-01       1.924422510568e-02 
       8.718988013754e-01       1.671750450997e-02 
       9.317218028590e-01       1.437264375405e-02 
       9.993660906273e-01       1.223934081883e-02 
       1.075037109879e+00       1.034153293036e-02 
       1.158653485387e+00       8.688962263581e-03 
       1.250099156961e+00       7.274072685851e-03 
       1.349432400897e+00       6.075263969067e-03 
       1.456947456991e+00       5.065780035293e-03 
       1.573135110893e+00       4.218645055566e-03 
       1.698621895119e+00       3.509193465717e-03 
       1.834127512423e+00       2.915897997421e-03 
       1.980444933977e+00       2.420367245185e-03 
       2.138435191130e+00       2.007003388620e-03 
       2.309029198543e+00       1.662548159244e-03 
       2.493232376993e+00       1.375845832585e-03 
       2.692130394536e+00       1.137465626522e-03 
       2.906895533764e+00       9.394627054593e-04 
       3.138793596840e+00       7.751772935724e-04 
       3.389191365541e+00       6.389748482608e-04 
       3.659564656886e+00       5.261818876842e-04 
       3.951507021438e+00       4.328570875739e-04 
       4.266739135513e+00       3.557156080648e-04 
       4.607118942658e+00       2.920048510298e-04 
       4.974652604172e+00       2.394355457488e-04 
       5.371506323193e+00       1.960984379346e-04 
       5.800019112071e+00       1.604039875311e-04 
       6.262716578240e+00       1.310300981871e-04 
       6.762325809881e+00       1.068821763873e-04 
       7.301791449077e+00       8.704759462339e-05 
       7.884293047211e+00       7.077300664944e-05 
       8.513263804891e+00       5.743372051656e-05 
       9.192410806865e+00       4.651102115135e-05 
       9.925736871166e+00       3.757809276074e-05 
       1.071756414128e+01       3.028175042869e-05 
       1.157255956041e+01       2.433107248072e-05 
       1.249576237789e+01       1.948478820206e-05 
       1.349261385000e+01       1.554529507540e-05 
       1.456898931011e+01       1.234947412528e-05 
       1.573123279727e+01       9.762481828887e-06 
       1.698619444729e+01       7.674407773118e-06 
       1.834127086665e+01       5.994055321059e-06 
       1.980444872733e+01       4.646900530665e-06 
       2.138435183937e+01       3.571540572635e-06 
       2.309029197863e+01       2.717630170811e-06 
       2.493232376942e+01       2.043839325318e-06 
       2.692130394533e+01       1.516066107161e-06 
       2.906895533764e+01       1.106466521227e-06 
       3.138793596840e+01       7.920388219148e-07 
       3.389191365541e+01       5.538976751449e-07 
       3.659564656886e+01       3.764972110027e-07 
       3.951507021438e+01       2.470397696466e-07 
       4.266739135513e+01       1.549802792537e-07 
       4.607118942658e+01       9.166668974872e-08 
       4.974652604172e+01       4.999732999024e-08 
       5.371506323193e+01       2.419580038894e-08 
       5.800019112071e+01       9.606283982871e-09 
       6.262716578240e+01       2.540907935149e-09 
       6.762325809881e+01       1.475096274970e-10 
