# Matter power spectrum P(k) at redshift z=99
# for k=1.04775e-05 to 66.1767 h/Mpc,
# number of wavenumbers equal to 130
#    1:k (h/Mpc)              2:P (Mpc/h)^3        
       1.047750691046e-05       7.261927680862e-03 
       1.319039970183e-05       9.069258201849e-03 
       1.660572937635e-05       1.132639106725e-02 
       2.090537469327e-05       1.414527123399e-02 
       2.631830744443e-05       1.766569584058e-02 
       3.313278603720e-05       2.206225515942e-02 
       4.171170630578e-05       2.755297766277e-02 
       5.251192703764e-05       3.441013522947e-02 
       6.610859936996e-05       4.297372172778e-02 
       8.322579568497e-05       5.366826852944e-02 
       1.047750691046e-04       6.702379872774e-02 
       1.319039970183e-04       8.370193441286e-02 
       1.660572937635e-04       1.045283355384e-01 
       2.090537469327e-04       1.305329134104e-01 
       2.631830744443e-04       1.629994506605e-01 
       3.313278603720e-04       2.035264004601e-01 
       4.171170630578e-04       2.541004744243e-01 
       5.251192703764e-04       3.171839528557e-01 
       6.610859936996e-04       3.958147256513e-01 
       8.322579568497e-04       4.937136006272e-01 
       1.047750691046e-03       6.153841636041e-01 
       1.319039970183e-03       7.661720592323e-01 
       1.660572937635e-03       9.522588016467e-01 
       2.090537469327e-03       1.180312991699e+00 
       2.631830744443e-03       1.456802684686e+00 
       3.313278603720e-03       1.786503854042e+00 
       4.171170630578e-03       2.169896196536e+00 
       5.251192703764e-03       2.599430630721e+00 
       6.610859936996e-03       3.055668710182e+00 
       8.322579568497e-03       3.505725598613e+00 
       1.047750691046e-02       3.905491490924e+00 
       1.319039970183e-02       4.200915321817e+00 
       1.660572937633e-02       4.325065596707e+00 
       2.090537453514e-02       4.210200931689e+00 
       2.631818545635e-02       3.825153881883e+00 
       3.311571692125e-02       3.229064212985e+00 
       4.113809243311e-02       2.627725527434e+00 
       4.792590854610e-02       2.280788069929e+00 
       5.284436902701e-02       2.110085350111e+00 
       5.689644391095e-02       2.003539166016e+00 
       6.051252627066e-02       1.923056245013e+00 
       6.388413457411e-02       1.852732605468e+00 
       6.711249296401e-02       1.784563430397e+00 
       7.025823437965e-02       1.714274015373e+00 
       7.336115587705e-02       1.639813027202e+00 
       7.644928796912e-02       1.560661815976e+00 
       7.954353299775e-02       1.477461235905e+00 
       8.266024078725e-02       1.391696200452e+00 
       8.581273398637e-02       1.305464175218e+00 
       8.901225918437e-02       1.221126308436e+00 
       9.226860540985e-02       1.141079205352e+00 
       9.559052048996e-02       1.067451717263e+00 
       9.898599946599e-02       1.001891460721e+00 
       1.024624891378e-01       9.453747026217e-01 
       1.060270359164e-01       8.981498716985e-01 
       1.096863943056e-01       8.596140554384e-01 
       1.134471073830e-01       8.284066496425e-01 
       1.173155669539e-01       8.024675626144e-01 
       1.212980586983e-01       7.792300718223e-01 
       1.254007961065e-01       7.559183586418e-01 
       1.296299459934e-01       7.299835158767e-01 
       1.339916477160e-01       6.995929539455e-01 
       1.384920277736e-01       6.640779885591e-01 
       1.431372111762e-01       6.241465775732e-01 
       1.479333307714e-01       5.817633776051e-01 
       1.528865355934e-01       5.396942589759e-01 
       1.580029992204e-01       5.008144373708e-01 
       1.632889290723e-01       4.673999295095e-01 
       1.687505775527e-01       4.405342027144e-01 
       1.743942559171e-01       4.198649592962e-01 
       1.802263517371e-01       4.036599788827e-01 
       1.862533508214e-01       3.893596198595e-01 
       1.924818644494e-01       3.741350611823e-01 
       1.989186627765e-01       3.558019204648e-01 
       2.055707152847e-01       3.339990880677e-01 
       2.124452391818e-01       3.102659696005e-01 
       2.195497567139e-01       2.871238064911e-01 
       2.268921624510e-01       2.668087110372e-01 
       2.344808017550e-01       2.504839575448e-01 
       2.423245618548e-01       2.378339304714e-01 
       2.504329772620e-01       2.271119422908e-01 
       2.588163516754e-01       2.161168856521e-01 
       2.674858990930e-01       2.035457461319e-01 
       2.764539076010e-01       1.895977334266e-01 
       2.857339303080e-01       1.757571163219e-01 
       2.953410092148e-01       1.637002737834e-01 
       3.052919395542e-01       1.539065305683e-01 
       3.156055844677e-01       1.455313244794e-01 
       3.263032530092e-01       1.372503402426e-01 
       3.374091587054e-01       1.283020140760e-01 
       3.489509817175e-01       1.191717613772e-01 
       3.609605657343e-01       1.108076044754e-01 
       3.734747921333e-01       1.036450158318e-01 
       3.865366902904e-01       9.714140986524e-02 
       4.001968667448e-01       9.061575548762e-02 
       4.145153713076e-01       8.403714748206e-02 
       4.295641718077e-01       7.789142799298e-02 
       4.454304922144e-01       7.234191609160e-02 
       4.622214006969e-01       6.709362667020e-02 
       4.800702491654e-01       6.189195594984e-02 
       4.991459272112e-01       5.692657645420e-02 
       5.196665217302e-01       5.231622246909e-02 
       5.419201087032e-01       4.783268564123e-02 
       5.662975451962e-01       4.348698362589e-02 
       5.933463737275e-01       3.933120268070e-02 
       6.238638458458e-01       3.525346241303e-02 
       6.590669257916e-01       3.126282296334e-02 
       7.009246080454e-01       2.728739807248e-02 
       7.528593308799e-01       2.327852131638e-02 
       8.213469537518e-01       1.914828802749e-02 
       9.196980813302e-01       1.481701775724e-02 
       1.075112183810e+00       1.035098596737e-02 
       1.322697471132e+00       6.379472349689e-03 
       1.662328205042e+00       3.705677350437e-03 
       2.092692408506e+00       2.124547420394e-03 
       2.634543445090e+00       1.207965992069e-03 
       3.316693691389e+00       6.817154452482e-04 
       4.175469971226e+00       3.821238754911e-04 
       5.256605252960e+00       2.128747163503e-04 
       6.617673932723e+00       1.179231514304e-04 
       8.331157880872e+00       6.498764390550e-05 
       1.048830636590e+01       3.564573153469e-05 
       1.320399541071e+01       1.946652227256e-05 
       1.662284535976e+01       1.058791797685e-05 
       2.092692243973e+01       5.737346473314e-06 
       2.634543445002e+01       3.098119449819e-06 
       3.316693691389e+01       1.667507579406e-06 
       4.175469971226e+01       8.947253662802e-07 
       5.256605252960e+01       4.786624578624e-07 
       6.617673932723e+01       2.553325964176e-07 
