# Matter power spectrum P(k) at redshift z=0
# for k=1.04775e-05 to 66.1767 h/Mpc,
# number of wavenumbers equal to 130
#    1:k (h/Mpc)              2:P (Mpc/h)^3        
       1.047750691046e-05       5.020964811308e+01 
       1.319039970183e-05       6.270562594783e+01 
       1.660572937635e-05       7.831147247912e+01 
       2.090537469327e-05       9.780108069298e+01 
       2.631830744443e-05       1.221408203809e+02 
       3.313278603720e-05       1.525374501932e+02 
       4.171170630578e-05       1.904975994008e+02 
       5.251192703764e-05       2.379022224249e+02 
       6.610859936996e-05       2.970989227882e+02 
       8.322579568497e-05       3.710167318946e+02 
       1.047750691046e-04       4.633080766742e+02 
       1.319039970183e-04       5.785234129336e+02 
       1.660572937635e-04       7.223242666092e+02 
       2.090537469327e-04       9.017396271824e+02 
       2.631830744443e-04       1.125468123750e+03 
       3.313278603720e-04       1.404223053681e+03 
       4.171170630578e-04       1.751108028790e+03 
       5.251192703764e-04       2.181998448133e+03 
       6.610859936996e-04       2.715889983592e+03 
       8.322579568497e-04       3.375152337135e+03 
       1.047750691046e-03       4.185552174308e+03 
       1.319039970183e-03       5.175742741826e+03 
       1.660572937635e-03       6.376123051780e+03 
       2.090537469327e-03       7.815671908452e+03 
       2.631830744443e-03       9.517783069101e+03 
       3.313278603720e-03       1.149357460343e+04 
       4.171170630578e-03       1.373266009015e+04 
       5.251192703764e-03       1.619063614536e+04 
       6.610859936996e-03       1.877460425787e+04 
       8.322579568497e-03       2.132606834781e+04 
       1.047750691046e-02       2.360549390402e+04 
       1.319039970183e-02       2.528218778582e+04 
       1.660572937633e-02       2.595028027845e+04 
       2.090537453514e-02       2.520932744614e+04 
       2.631818545635e-02       2.287033973453e+04 
       3.311571692125e-02       1.928624294457e+04 
       4.113809243311e-02       1.568427578895e+04 
       4.792590854610e-02       1.361060505618e+04 
       5.284436902701e-02       1.259128291467e+04 
       5.689644391095e-02       1.195555864063e+04 
       6.051252627066e-02       1.147544923857e+04 
       6.388413457411e-02       1.105588430176e+04 
       6.711249296401e-02       1.064900971713e+04 
       7.025823437965e-02       1.022927338557e+04 
       7.336115587705e-02       9.784538091736e+03 
       7.644928796912e-02       9.311618727377e+03 
       7.954353299775e-02       8.814531674357e+03 
       8.266024078725e-02       8.302134682416e+03 
       8.581273398637e-02       7.786935443160e+03 
       8.901225918437e-02       7.283164234091e+03 
       9.226860540985e-02       6.805140471050e+03 
       9.559052048996e-02       6.365612512199e+03 
       9.898599946599e-02       5.974378110174e+03 
       1.024624891378e-01       5.637351140296e+03 
       1.060270359164e-01       5.355790426532e+03 
       1.096863943056e-01       5.126252050970e+03 
       1.134471073830e-01       4.940493143222e+03 
       1.173155669539e-01       4.786159416409e+03 
       1.212980586983e-01       4.647940745001e+03 
       1.254007961065e-01       4.509146417628e+03 
       1.296299459934e-01       4.354538137635e+03 
       1.339916477160e-01       4.173209324515e+03 
       1.384920277736e-01       3.961166081185e+03 
       1.431372111762e-01       3.722680805973e+03 
       1.479333307714e-01       3.469549879342e+03 
       1.528865355934e-01       3.218359747619e+03 
       1.580029992204e-01       2.986270702383e+03 
       1.632889290723e-01       2.786964565420e+03 
       1.687505775527e-01       2.626836069140e+03 
       1.743942559171e-01       2.503771836537e+03 
       1.802263517371e-01       2.407327094509e+03 
       1.862533508214e-01       2.322254284607e+03 
       1.924818644494e-01       2.231557090723e+03 
       1.989186627765e-01       2.122188041733e+03 
       2.055707152847e-01       1.992034925066e+03 
       2.124452391818e-01       1.850320944473e+03 
       2.195497567139e-01       1.712170145767e+03 
       2.268921624510e-01       1.590987893232e+03 
       2.344808017550e-01       1.493667930348e+03 
       2.423245618548e-01       1.418305481182e+03 
       2.504329772620e-01       1.354464587052e+03 
       2.588163516754e-01       1.288932604817e+03 
       2.674858990930e-01       1.213938952355e+03 
       2.764539076010e-01       1.130692674716e+03 
       2.857339303080e-01       1.048098163449e+03 
       2.953410092148e-01       9.761814484641e+02 
       3.052919395542e-01       9.178085874176e+02 
       3.156055844677e-01       8.678973238842e+02 
       3.263032530092e-01       8.185245679029e+02 
       3.374091587054e-01       7.651456903729e+02 
       3.489509817175e-01       7.106706974042e+02 
       3.609605657343e-01       6.607864973875e+02 
       3.734747921333e-01       6.180833387744e+02 
       3.865366902904e-01       5.793104181887e+02 
       4.001968667448e-01       5.403899738767e+02 
       4.145153713076e-01       5.011501218506e+02 
       4.295641718077e-01       4.644973421019e+02 
       4.454304922144e-01       4.314081103241e+02 
       4.622214006969e-01       4.001128267641e+02 
       4.800702491654e-01       3.690891392111e+02 
       4.991459272112e-01       3.394745962239e+02 
       5.196665217302e-01       3.119858092827e+02 
       5.419201087032e-01       2.852467188878e+02 
       5.662975451962e-01       2.593309514346e+02 
       5.933463737275e-01       2.345478275869e+02 
       6.238638458458e-01       2.102306949849e+02 
       6.590669257916e-01       1.864336525334e+02 
       7.009246080454e-01       1.627245884289e+02 
       7.528593308799e-01       1.388180351328e+02 
       8.213469537518e-01       1.141878513641e+02 
       9.196980813302e-01       8.835889869381e+01 
       1.075112183810e+00       6.172590696021e+01 
       1.322697471132e+00       3.804237755765e+01 
       1.662328205042e+00       2.209778129866e+01 
       2.092692408506e+00       1.266895244337e+01 
       2.634543445090e+00       7.203178015690e+00 
       3.316693691389e+00       4.064987207972e+00 
       4.175469971226e+00       2.278487647002e+00 
       5.256605252960e+00       1.269247141755e+00 
       6.617673932723e+00       7.030590583737e-01 
       8.331157880872e+00       3.874123604000e-01 
       1.048830636590e+01       2.124601001281e-01 
       1.320399541071e+01       1.159968846322e-01 
       1.662284535976e+01       6.306759868473e-02 
       2.092692243973e+01       3.415552658307e-02 
       2.634543445002e+01       1.842749518684e-02 
       3.316693691389e+01       9.904932828155e-03 
       4.175469971226e+01       5.303723314797e-03 
       5.256605252960e+01       2.828390246434e-03 
       6.617673932723e+01       1.501444174857e-03 
