# Matter power spectrum P(k) at redshift z=0
# for k=1.04775e-05 to 66.1767 h/Mpc,
# number of wavenumbers equal to 130
#    1:k (h/Mpc)              2:P (Mpc/h)^3        
       1.047750691046e-05       5.020964811320e+01 
       1.319039970183e-05       6.270562594960e+01 
       1.660572937635e-05       7.831147247912e+01 
       2.090537469327e-05       9.780108069471e+01 
       2.631830744443e-05       1.221408203809e+02 
       3.313278603720e-05       1.525374501932e+02 
       4.171170630578e-05       1.904975994014e+02 
       5.251192703764e-05       2.379022224238e+02 
       6.610859936996e-05       2.970989227884e+02 
       8.322579568497e-05       3.710167318946e+02 
       1.047750691046e-04       4.633080766742e+02 
       1.319039970183e-04       5.785234129340e+02 
       1.660572937635e-04       7.223242666092e+02 
       2.090537469327e-04       9.017396271824e+02 
       2.631830744443e-04       1.125468123751e+03 
       3.313278603720e-04       1.404223053681e+03 
       4.171170630578e-04       1.751108028790e+03 
       5.251192703764e-04       2.181998448132e+03 
       6.610859936996e-04       2.715889983591e+03 
       8.322579568497e-04       3.375152337131e+03 
       1.047750691046e-03       4.185552174266e+03 
       1.319039970183e-03       5.175742739104e+03 
       1.660572937635e-03       6.376123051685e+03 
       2.090537469327e-03       7.815671862619e+03 
       2.631830744443e-03       9.517783068472e+03 
       3.313278603720e-03       1.149357460168e+04 
       4.171170630578e-03       1.373266008628e+04 
       5.251192703764e-03       1.619063609578e+04 
       6.610859936996e-03       1.877460419437e+04 
       8.322579568497e-03       2.132607253248e+04 
       1.047750691046e-02       2.360547843356e+04 
       1.319039970183e-02       2.528218988588e+04 
       1.660572937633e-02       2.595027434251e+04 
       2.090537453514e-02       2.520936154913e+04 
       2.631818545635e-02       2.287032874487e+04 
       3.311571692125e-02       1.928625115837e+04 
       4.113809243311e-02       1.568427856940e+04 
       4.792590854610e-02       1.361062169180e+04 
       5.284436902701e-02       1.259127944499e+04 
       5.689644391095e-02       1.195556846864e+04 
       6.051252627066e-02       1.147546209969e+04 
       6.388413457411e-02       1.105583838568e+04 
       6.711249296401e-02       1.064895275971e+04 
       7.025823437965e-02       1.022927029228e+04 
       7.336115587705e-02       9.784502344244e+03 
       7.644928796912e-02       9.311652024155e+03 
       7.954353299775e-02       8.814517044339e+03 
       8.266024078725e-02       8.302104222272e+03 
       8.581273398637e-02       7.786900096820e+03 
       8.901225918437e-02       7.283158194925e+03 
       9.226860540985e-02       6.805147389074e+03 
       9.559052048996e-02       6.365610432168e+03 
       9.898599946599e-02       5.974366200220e+03 
       1.024624891378e-01       5.637318811111e+03 
       1.060270359164e-01       5.355732225178e+03 
       1.096863943056e-01       5.126208672272e+03 
       1.134471073830e-01       4.940444079348e+03 
       1.173155669539e-01       4.786125855540e+03 
       1.212980586983e-01       4.647912414718e+03 
       1.254007961065e-01       4.509093576929e+03 
       1.296299459934e-01       4.354505896227e+03 
       1.339916477160e-01       4.173165406118e+03 
       1.384920277736e-01       3.961140299175e+03 
       1.431372111762e-01       3.722628704414e+03 
       1.479333307714e-01       3.469523510040e+03 
       1.528865355934e-01       3.218293474886e+03 
       1.580029992204e-01       2.986220930734e+03 
       1.632889290723e-01       2.786913001256e+03 
       1.687505775527e-01       2.626781016112e+03 
       1.743942559171e-01       2.503715395984e+03 
       1.802263517371e-01       2.407278554427e+03 
       1.862533508214e-01       2.322201825755e+03 
       1.924818644494e-01       2.231503606869e+03 
       1.989186627765e-01       2.122139403076e+03 
       2.055707152847e-01       1.991986822365e+03 
       2.124452391818e-01       1.850274148244e+03 
       2.195497567139e-01       1.712122848250e+03 
       2.268921624510e-01       1.590933789459e+03 
       2.344808017550e-01       1.493614770048e+03 
       2.423245618548e-01       1.418259118552e+03 
       2.504329772620e-01       1.354418311416e+03 
       2.588163516754e-01       1.288881636670e+03 
       2.674858990930e-01       1.213885053969e+03 
       2.764539076010e-01       1.130640125210e+03 
       2.857339303080e-01       1.048047291296e+03 
       2.953410092148e-01       9.761333939686e+02 
       3.052919395542e-01       9.177579873491e+02 
       3.156055844677e-01       8.678458218045e+02 
       3.263032530092e-01       8.184740073394e+02 
       3.374091587054e-01       7.650953484935e+02 
       3.489509817175e-01       7.106197910285e+02 
       3.609605657343e-01       6.607346042259e+02 
       3.734747921333e-01       6.180356725172e+02 
       3.865366902904e-01       5.792607547186e+02 
       4.001968667448e-01       5.403399521585e+02 
       4.145153713076e-01       5.010983499818e+02 
       4.295641718077e-01       4.644494673847e+02 
       4.454304922144e-01       4.313554836769e+02 
       4.622214006969e-01       4.000630241895e+02 
       4.800702491654e-01       3.690407531468e+02 
       4.991459272112e-01       3.394270247722e+02 
       5.196665217302e-01       3.119361579320e+02 
       5.419201087032e-01       2.851972832185e+02 
       5.662975451962e-01       2.592833546666e+02 
       5.933463737275e-01       2.345004113582e+02 
       6.238638458458e-01       2.101830428001e+02 
       6.590669257916e-01       1.863861202334e+02 
       7.009246080454e-01       1.626784364405e+02 
       7.528593308799e-01       1.387727628193e+02 
       8.213469537518e-01       1.141434311468e+02 
       9.196980813302e-01       8.831621618974e+01 
       1.075112183810e+00       6.168518396287e+01 
       1.322697471132e+00       3.800495691266e+01 
       1.662328205042e+00       2.206334534038e+01 
       2.092692408506e+00       1.263784671031e+01 
       2.634543445090e+00       7.175106675040e+00 
       3.316693691389e+00       4.039932771031e+00 
       4.175469971226e+00       2.256247914414e+00 
       5.256605252960e+00       1.249645275614e+00 
       6.617673932723e+00       6.859098134705e-01 
       8.331157880872e+00       3.725446208009e-01 
       1.048830636590e+01       1.996952458643e-01 
       1.320399541071e+01       1.051728496405e-01 
       1.662284535976e+01       5.403369858104e-02 
       2.092692243973e+01       2.676921666144e-02 
       2.634543445002e+01       1.255350204598e-02 
       3.316693691389e+01       5.405623597590e-03 
       4.175469971226e+01       2.027451989968e-03 
       5.256605252960e+01       5.975989819900e-04 
       6.617673932723e+01       1.069036338126e-04 
