# Matter power spectrum P(k) at redshift z=0
# for k=1.04775e-05 to 67.6233 h/Mpc,
# number of wavenumbers equal to 246
#    1:k (h/Mpc)              2:P (Mpc/h)^3        
       1.047750691046e-05       5.020963572702e+01 
       1.131335172503e-05       5.407047294374e+01 
       1.221587619537e-05       5.822819505173e+01 
       1.319039970183e-05       6.270561394421e+01 
       1.424266597921e-05       6.752730771216e+01 
       1.537887696968e-05       7.271974838020e+01 
       1.660572937635e-05       7.831145988171e+01 
       1.793045413292e-05       8.433312281081e+01 
       1.936085902198e-05       9.081779094015e+01 
       2.090537469327e-05       9.780105853690e+01 
       2.257310435294e-05       1.053212915230e+02 
       2.437387741694e-05       1.134197176647e+02 
       2.631830744443e-05       1.221408151487e+02 
       2.841785469300e-05       1.315324484696e+02 
       3.068489366414e-05       1.416461570747e+02 
       3.313278603720e-05       1.525374327365e+02 
       3.577595942169e-05       1.642660468441e+02 
       3.862999239199e-05       1.768963389191e+02 
       4.171170630578e-05       1.904975957013e+02 
       4.503926444729e-05       2.051444200176e+02 
       4.863227907969e-05       2.209171357747e+02 
       5.251192703764e-05       2.379022220305e+02 
       5.670107454120e-05       2.561927806190e+02 
       6.122441196689e-05       2.758890467446e+02 
       6.610859936996e-05       2.970989231009e+02 
       7.138242361596e-05       3.199385581922e+02 
       7.707696804727e-05       3.445329731120e+02 
       8.322579568497e-05       3.710167327580e+02 
       8.986514704559e-05       3.995346456870e+02 
       9.703415373875e-05       4.302425399641e+02 
       1.047750691046e-04       4.633080774250e+02 
       1.131335172503e-04       4.989116274774e+02 
       1.221587619537e-04       5.372471944566e+02 
       1.319039970183e-04       5.785234117626e+02 
       1.424266597921e-04       6.229645924972e+02 
       1.537887696968e-04       6.708118466476e+02 
       1.660572937635e-04       7.223242645396e+02 
       1.793045413292e-04       7.777801527748e+02 
       1.936085902198e-04       8.374783558221e+02 
       2.090537469327e-04       9.017396187527e+02 
       2.257310435294e-04       9.709080133262e+02 
       2.437387741694e-04       1.045352429605e+03 
       2.631830744443e-04       1.125468092319e+03 
       2.841785469300e-04       1.211678136792e+03 
       3.068489366414e-04       1.304435184556e+03 
       3.313278603720e-04       1.404222962804e+03 
       3.577595942169e-04       1.511557885751e+03 
       3.862999239199e-04       1.626990646178e+03 
       4.171170630578e-04       1.751107748118e+03 
       4.503926444729e-04       1.884532978633e+03 
       4.863227907969e-04       2.027928796117e+03 
       5.251192703764e-04       2.181997604256e+03 
       5.670107454121e-04       2.347482883573e+03 
       6.122441196689e-04       2.525170113956e+03 
       6.610859936996e-04       2.715887452592e+03 
       7.138242361596e-04       2.920506044976e+03 
       7.707696804727e-04       3.139939855207e+03 
       8.322579568497e-04       3.375144802604e+03 
       8.986514704559e-04       3.627117025334e+03 
       9.703415373875e-04       3.896889953874e+03 
       1.047750691046e-03       4.185529997212e+03 
       1.131335172503e-03       4.494130740009e+03 
       1.221587619537e-03       4.823805488654e+03 
       1.319039970183e-03       5.175678305782e+03 
       1.424266597921e-03       5.550927476029e+03 
       1.537887696968e-03       5.950656690747e+03 
       1.660572937635e-03       6.375935574272e+03 
       1.793045413292e-03       6.827807737832e+03 
       1.936085902198e-03       7.307248572765e+03 
       2.090537469327e-03       7.815139842329e+03 
       2.257310435294e-03       8.352241250500e+03 
       2.437387741694e-03       8.919158984229e+03 
       2.631830744443e-03       9.516309525803e+03 
       2.841785469300e-03       1.014387885836e+04 
       3.068489366414e-03       1.080177816515e+04 
       3.313278603720e-03       1.148959260573e+04 
       3.577595942169e-03       1.220652212011e+04 
       3.862999239199e-03       1.295131237444e+04 
       4.171170630578e-03       1.372218262925e+04 
       4.503926444729e-03       1.451674450737e+04 
       4.863227907969e-03       1.533189425025e+04 
       5.251192703764e-03       1.616385150918e+04 
       5.670107454120e-03       1.700794272300e+04 
       6.122441196689e-03       1.785835119510e+04 
       6.610859936996e-03       1.870827784225e+04 
       7.138242361596e-03       1.954967003476e+04 
       7.707696804727e-03       2.037306619698e+04 
       8.322579568496e-03       2.116751495991e+04 
       8.986514704559e-03       2.192024545353e+04 
       9.703415373875e-03       2.261680581049e+04 
       1.047750691046e-02       2.324063682687e+04 
       1.131335172503e-02       2.377316274805e+04 
       1.221587619537e-02       2.419354342187e+04 
       1.319039970183e-02       2.447899605989e+04 
       1.424266597920e-02       2.460469153045e+04 
       1.537887696964e-02       2.454453388301e+04 
       1.660572937560e-02       2.427147379251e+04 
       1.793045412207e-02       2.375896348922e+04 
       1.936085889642e-02       2.298270445936e+04 
       2.090537351881e-02       2.192284622139e+04 
       2.257309534705e-02       2.056723975719e+04 
       2.437382002240e-02       1.891539775611e+04 
       2.631799943729e-02       1.698299161016e+04 
       2.841644544598e-02       1.480707653288e+04 
       3.067933354524e-02       1.245106643033e+04 
       3.311368469821e-02       1.000898152712e+04 
       3.571840442514e-02       7.605670072282e+03 
       3.847720347390e-02       5.387234333676e+03 
       4.135335537314e-02       3.494708333708e+03 
       4.429361666563e-02       2.025127184876e+03 
       4.724366437916e-02       1.002666678050e+03 
       5.016480834039e-02       3.822918380029e+02 
       5.303989618930e-02       7.937763986589e+01 
       5.586870668205e-02       2.865169416470e-02 
       5.866042679206e-02       5.894415975941e+01 
       6.142798931504e-02       1.863228403786e+02 
       6.418496438662e-02       3.291927189557e+02 
       6.694418832236e-02       4.505105260371e+02 
       6.971731104453e-02       5.277230414227e+02 
       7.251476154108e-02       5.510745587515e+02 
       7.534587669814e-02       5.216352867294e+02 
       7.821907664495e-02       4.489229035801e+02 
       8.114203771084e-02       3.483410914082e+02 
       8.412184533139e-02       2.381115684311e+02 
       8.716512277352e-02       1.362349237246e+02 
       9.027813693913e-02       5.757096034314e+01 
       9.346688429613e-02       1.149932199037e+01 
       9.673716026122e-02       4.862602225536e-01 
       1.000946150608e-01       1.988739616636e+01 
       1.035447986307e-01       5.913319773279e+01 
       1.070931966524e-01       1.041797352360e+02 
       1.107452594180e-01       1.408176847265e+02 
       1.145064248899e-01       1.581397566327e+02 
       1.183821370656e-01       1.513092870075e+02 
       1.223778605591e-01       1.227907502925e+02 
       1.264990921707e-01       8.153091693566e+01 
       1.307513701078e-01       4.009950462523e+01 
       1.351402814485e-01       1.050323549313e+01 
       1.396714683894e-01       2.805780638706e-03 
       1.443506337875e-01       8.477408436371e+00 
       1.491835464900e-01       2.856079515718e+01 
       1.541760469368e-01       4.876546147112e+01 
       1.593340535209e-01       5.855323267005e+01 
       1.646635701934e-01       5.313883477870e+01 
       1.701706958081e-01       3.565783548096e+01 
       1.758616357070e-01       1.529782252510e+01 
       1.817427160581e-01       2.073655514758e+00 
       1.878204014651e-01       1.074965018042e+00 
       1.941013163855e-01       9.654615777822e+00 
       2.005922709060e-01       1.951159771365e+01 
       2.073002914514e-01       2.261120622707e+01 
       2.142326570343e-01       1.686000428694e+01 
       2.213969417044e-01       7.059595601978e+00 
       2.288010639201e-01       5.921754157657e-01 
       2.364533436625e-01       1.172513829463e+00 
       2.443625682390e-01       5.932215809381e+00 
       2.525380678946e-01       8.824834743402e+00 
       2.609898025770e-01       6.764247215919e+00 
       2.697284614969e-01       2.264254693362e+00 
       2.787655775073e-01       8.441850331660e-03 
       2.881136588192e-01       1.299956832622e+00 
       2.977863412019e-01       3.172651210961e+00 
       3.077985646248e-01       2.726372266133e+00 
       3.181667793367e-01       7.894991134737e-01 
       3.289091877084e-01       1.297454005505e-02 
       3.400460298905e-01       7.829455714048e-01 
       3.515999235695e-01       1.187397693834e+00 
       3.635962710278e-01       5.016945485297e-01 
       3.760637505499e-01       7.269443645366e-04 
       3.890349143014e-01       2.704755458721e-01 
       4.025469215929e-01       3.931985062285e-01 
       4.166424455447e-01       8.985879012394e-02 
       4.313708034899e-01       2.355757942690e-02 
       4.467893781976e-01       1.396882423763e-01 
       4.629654198623e-01       5.486911221219e-02 
       4.799783500912e-01       4.213051944656e-03 
       4.979227318246e-01       4.369237440614e-02 
       5.169121269689e-01       8.977003924031e-03 
       5.370841403262e-01       6.809942453055e-03 
       5.586070463286e-01       8.973487511010e-03 
       5.816885093582e-01       4.161880709778e-04 
       6.065870143577e-01       3.094957284301e-03 
       6.336266466978e-01       1.390957404607e-04 
       6.632156057925e-01       5.701461165268e-04 
       6.958678637575e-01       1.838177144069e-04 
       7.322247983784e-01       2.533349241067e-08 
       7.730680193171e-01       1.636282331139e-05 
       8.193049551574e-01       7.097998033918e-06 
       8.718988013754e-01       1.330178323250e-06 
       9.317218028590e-01       2.234025486092e-08 
       9.993660906273e-01       1.626161501613e-08 
       1.075037109879e+00       3.021587554690e-09 
       1.158653485387e+00       1.013934203897e-10 
       1.250099156961e+00       1.056725528753e-08 
       1.349432400897e+00       3.384631414908e-09 
       1.456947456991e+00       3.913734315054e-10 
       1.573135110893e+00       1.343624199556e-09 
       1.698621895119e+00       8.817224573284e-12 
       1.834127512423e+00       4.472886384560e-10 
       1.980444933977e+00       8.184488042787e-11 
       2.138435191130e+00       2.343119748955e-11 
       2.309029198543e+00       7.545019229984e-10 
       2.493232376993e+00       3.260401772502e-12 
       2.692130394536e+00       7.931724164883e-14 
       2.906895533764e+00       1.266124289803e-11 
       3.138793596840e+00       1.876803040237e-11 
       3.389191365541e+00       2.248823544925e-11 
       3.659564656886e+00       7.680482862151e-12 
       3.951507021438e+00       6.706330695624e-12 
       4.266739135513e+00       1.374845884252e-14 
       4.607118942658e+00       7.595128738370e-13 
       4.974652604172e+00       1.950502491206e-12 
       5.371506323193e+00       4.676017509614e-14 
       5.800019112071e+00       1.598797438326e-14 
       6.262716578240e+00       1.063040792429e-16 
       6.762325809881e+00       3.867637673259e-13 
       7.301791449077e+00       3.212896025302e-13 
       7.884293047211e+00       1.233777922562e-13 
       8.513263804891e+00       1.911424906005e-15 
       9.192410806865e+00       1.022242867022e-13 
       9.925736871166e+00       1.524860279960e-15 
       1.071756414128e+01       5.084610448065e-16 
       1.157255956041e+01       2.925767403534e-14 
       1.249576237789e+01       2.052873120324e-14 
       1.349261385000e+01       1.271250271083e-14 
       1.456898931011e+01       6.687805396626e-15 
       1.573123279727e+01       7.200480423740e-17 
       1.698619444729e+01       3.467013228707e-17 
       1.834127086665e+01       2.963269978839e-17 
       1.980444872733e+01       5.026263634269e-17 
       2.138435183937e+01       5.620132654767e-17 
       2.309029197863e+01       6.688029570462e-16 
       2.493232376942e+01       3.769177422508e-16 
       2.692130394533e+01       3.169168432702e-18 
       2.906895533764e+01       4.835072828685e-18 
       3.138793596840e+01       1.915604393744e-18 
       3.389191365541e+01       5.287804872033e-17 
       3.659564656886e+01       1.817433608806e-18 
       3.951507021438e+01       1.424162057790e-17 
       4.266739135513e+01       1.483751114956e-17 
       4.607118942658e+01       8.374307732567e-18 
       4.974652604172e+01       4.034469723719e-19 
       5.371506323193e+01       1.242755203546e-18 
       5.800019112071e+01       7.837776180874e-19 
       6.262716578240e+01       5.359832911748e-19 
       6.762325809881e+01       1.822680815087e-19 
