# Matter power spectrum P(k) at redshift z=99
# for k=1.04775e-05 to 66.1767 h/Mpc,
# number of wavenumbers equal to 130
#    1:k (h/Mpc)              2:P (Mpc/h)^3        
       1.047750691046e-05       7.261928182506e-03 
       1.319039970183e-05       9.069258831151e-03 
       1.660572937635e-05       1.132639270304e-02 
       2.090537469327e-05       1.414527220860e-02 
       2.631830744443e-05       1.766569690743e-02 
       3.313278603720e-05       2.206225667879e-02 
       4.171170630578e-05       2.755297955039e-02 
       5.251192703764e-05       3.441013759849e-02 
       6.610859936996e-05       4.297372469031e-02 
       8.322579568497e-05       5.366827222384e-02 
       1.047750691046e-04       6.702380334078e-02 
       1.319039970183e-04       8.370194026062e-02 
       1.660572937635e-04       1.045283427060e-01 
       2.090537469327e-04       1.305329223170e-01 
       2.631830744443e-04       1.629994612651e-01 
       3.313278603720e-04       2.035264141234e-01 
       4.171170630578e-04       2.541004912331e-01 
       5.251192703764e-04       3.171839732504e-01 
       6.610859936996e-04       3.958147499347e-01 
       8.322579568497e-04       4.937136286643e-01 
       1.047750691046e-03       6.153841939965e-01 
       1.319039970183e-03       7.661720877356e-01 
       1.660572937635e-03       9.522588171842e-01 
       2.090537469327e-03       1.180312960947e+00 
       2.631830744443e-03       1.456802523915e+00 
       3.313278603720e-03       1.786503363814e+00 
       4.171170630578e-03       2.169894923413e+00 
       5.251192703764e-03       2.599427291823e+00 
       6.610859936996e-03       3.055660637237e+00 
       8.322579568497e-03       3.505704697669e+00 
       1.047750691046e-02       3.905441547386e+00 
       1.319039970183e-02       4.200801338443e+00 
       1.660572937633e-02       4.324809223313e+00 
       2.090537453514e-02       4.209664458061e+00 
       2.631818545635e-02       3.824081270399e+00 
       3.311571692125e-02       3.227098097711e+00 
       4.113809243311e-02       2.624485713977e+00 
       4.792590854610e-02       2.276397011943e+00 
       5.284436902701e-02       2.104832898873e+00 
       5.689644391095e-02       1.997595848507e+00 
       6.051252627066e-02       1.916520486187e+00 
       6.388413457411e-02       1.845673328173e+00 
       6.711249296401e-02       1.777044851263e+00 
       7.025823437965e-02       1.706345958603e+00 
       7.336115587705e-02       1.631516690985e+00 
       7.644928796912e-02       1.552031296268e+00 
       7.954353299775e-02       1.468530018044e+00 
       8.266024078725e-02       1.382504362743e+00 
       8.581273398637e-02       1.296011774311e+00 
       8.901225918437e-02       1.211431106662e+00 
       9.226860540985e-02       1.131141025177e+00 
       9.559052048996e-02       1.057248545777e+00 
       9.898599946599e-02       9.914037535368e-01 
       1.024624891378e-01       9.345823488011e-01 
       1.060270359164e-01       8.870010204843e-01 
       1.096863943056e-01       8.480808598607e-01 
       1.134471073830e-01       8.164591896138e-01 
       1.173155669539e-01       7.900925572327e-01 
       1.212980586983e-01       7.664278382902e-01 
       1.254007961065e-01       7.427145457309e-01 
       1.296299459934e-01       7.164265360350e-01 
       1.339916477160e-01       6.857501747903e-01 
       1.384920277736e-01       6.500242228497e-01 
       1.431372111762e-01       6.099452129653e-01 
       1.479333307714e-01       5.674702549038e-01 
       1.528865355934e-01       5.253233894427e-01 
       1.580029992204e-01       4.863471681660e-01 
       1.632889290723e-01       4.527844760721e-01 
       1.687505775527e-01       4.256958714132e-01 
       1.743942559171e-01       4.047321597106e-01 
       1.802263517371e-01       3.881713669801e-01 
       1.862533508214e-01       3.735184376659e-01 
       1.924818644494e-01       3.579977281032e-01 
       1.989186627765e-01       3.394749327844e-01 
       2.055707152847e-01       3.175994940204e-01 
       2.124452391818e-01       2.938733030669e-01 
       2.195497567139e-01       2.707590265914e-01 
       2.268921624510e-01       2.504276990032e-01 
       2.344808017550e-01       2.339994159146e-01 
       2.423245618548e-01       2.211631281424e-01 
       2.504329772620e-01       2.102280384812e-01 
       2.588163516754e-01       1.990753151435e-01 
       2.674858990930e-01       1.864533014045e-01 
       2.764539076010e-01       1.725573853286e-01 
       2.857339303080e-01       1.588071413735e-01 
       2.953410092148e-01       1.467942943860e-01 
       3.052919395542e-01       1.369699014183e-01 
       3.156055844677e-01       1.285294912801e-01 
       3.263032530092e-01       1.202251273082e-01 
       3.374091587054e-01       1.113445358231e-01 
       3.489509817175e-01       1.023412822315e-01 
       3.609605657343e-01       9.409563401518e-02 
       3.734747921333e-01       8.700431546502e-02 
       3.865366902904e-01       8.056582444359e-02 
       4.001968667448e-01       7.415813192219e-02 
       4.145153713076e-01       6.775263687552e-02 
       4.295641718077e-01       6.178661619334e-02 
       4.454304922144e-01       5.640284874697e-02 
       4.622214006969e-01       5.133875564145e-02 
       4.800702491654e-01       4.636957751030e-02 
       4.991459272112e-01       4.166029683865e-02 
       5.196665217302e-01       3.731256598194e-02 
       5.419201087032e-01       3.313215431128e-02 
       5.662975451962e-01       2.912937569013e-02 
       5.933463737275e-01       2.534946673630e-02 
       6.238638458458e-01       2.170597505998e-02 
       6.590669257916e-01       1.821268324036e-02 
       7.009246080454e-01       1.482644772503e-02 
       7.528593308799e-01       1.153398492590e-02 
       8.213469537518e-01       8.316472039286e-03 
       9.196980813302e-01       5.215201921439e-03 
       1.075112183810e+00       2.472100724298e-03 
       1.322697471132e+00       6.874322893078e-04 
       1.662328205042e+00       6.890205610725e-05 
       2.092692408506e+00       3.837237797208e-06 
       2.634543445090e+00       3.229251844709e-05 
       3.316693691389e+00       2.443079310313e-05 
       4.175469971226e+00       5.516628923465e-06 
       5.256605252960e+00       4.036307894473e-08 
       6.617673932723e+00       2.508574391788e-07 
       8.331157880872e+00       5.918315047576e-08 
       1.048830636590e+01       8.975215803269e-10 
       1.320399541071e+01       1.045972945550e-09 
       1.662284535976e+01       2.231152014272e-11 
       2.092692243973e+01       8.208383117721e-14 
       2.634543445002e+01       4.670975917519e-13 
       3.316693691389e+01       4.234023269944e-14 
       4.175469971226e+01       3.123429346638e-14 
       5.256605252960e+01       1.203057468602e-14 
       6.617673932723e+01       4.427184284080e-15 
