# Matter power spectrum P(k) at redshift z=0
# for k=1.04775e-05 to 66.1767 h/Mpc,
# number of wavenumbers equal to 130
#    1:k (h/Mpc)              2:P (Mpc/h)^3        
       1.047750691046e-05       5.020964838542e+01 
       1.319039970183e-05       6.270562849592e+01 
       1.660572937635e-05       7.831148226911e+01 
       2.090537469327e-05       9.780107240801e+01 
       2.631830744443e-05       1.221408193719e+02 
       3.313278603720e-05       1.525374505233e+02 
       4.171170630578e-05       1.904976001784e+02 
       5.251192703764e-05       2.379022228374e+02 
       6.610859936996e-05       2.970989231292e+02 
       8.322579568497e-05       3.710167326465e+02 
       1.047750691046e-04       4.633080766716e+02 
       1.319039970183e-04       5.785234117974e+02 
       1.660572937635e-04       7.223242666038e+02 
       2.090537469327e-04       9.017396271690e+02 
       2.631830744443e-04       1.125468122564e+03 
       3.313278603720e-04       1.404223053596e+03 
       4.171170630578e-04       1.751108028483e+03 
       5.251192703764e-04       2.181998447022e+03 
       6.610859936996e-04       2.715889982409e+03 
       8.322579568497e-04       3.375152330954e+03 
       1.047750691046e-03       4.185552156429e+03 
       1.319039970183e-03       5.175742689794e+03 
       1.660572937635e-03       6.376122865838e+03 
       2.090537469327e-03       7.815671310263e+03 
       2.631830744443e-03       9.517781419207e+03 
       3.313278603720e-03       1.149356985266e+04 
       4.171170630578e-03       1.373264749515e+04 
       5.251192703764e-03       1.619060073867e+04 
       6.610859936996e-03       1.877451118414e+04 
       8.322579568497e-03       2.132583771720e+04 
       1.047750691046e-02       2.360492221647e+04 
       1.319039970183e-02       2.528088653639e+04 
       1.660572937633e-02       2.594735899229e+04 
       2.090537453514e-02       2.520313892826e+04 
       2.631818545635e-02       2.285786893483e+04 
       3.311571692125e-02       1.926298612481e+04 
       4.113809243311e-02       1.564562287480e+04 
       4.792590854610e-02       1.355774510779e+04 
       5.284436902701e-02       1.252778522971e+04 
       5.689644391095e-02       1.188332610349e+04 
       6.051252627066e-02       1.139563954688e+04 
       6.388413457411e-02       1.096932792268e+04 
       6.711249296401e-02       1.055628009046e+04 
       7.025823437965e-02       1.013111978839e+04 
       7.336115587705e-02       9.681272369052e+03 
       7.644928796912e-02       9.203776857574e+03 
       7.954353299775e-02       8.702443343267e+03 
       8.266024078725e-02       8.186172015568e+03 
       8.581273398637e-02       7.667223528923e+03 
       8.901225918437e-02       7.159805700106e+03 
       9.226860540985e-02       6.678153595860e+03 
       9.559052048996e-02       6.234805220712e+03 
       9.898599946599e-02       5.839450527899e+03 
       1.024624891378e-01       5.497940422996e+03 
       1.060270359164e-01       5.211539102388e+03 
       1.096863943056e-01       4.976686168182e+03 
       1.134471073830e-01       4.785209082139e+03 
       1.173155669539e-01       4.625038744251e+03 
       1.212980586983e-01       4.480921497016e+03 
       1.254007961065e-01       4.336610159957e+03 
       1.296299459934e-01       4.177069167225e+03 
       1.339916477160e-01       3.991663816638e+03 
       1.384920277736e-01       3.776485656837e+03 
       1.431372111762e-01       3.535794753384e+03 
       1.479333307714e-01       3.281106334132e+03 
       1.528865355934e-01       3.028595361610e+03 
       1.580029992204e-01       2.795028854004e+03 
       1.632889290723e-01       2.593527171393e+03 
       1.687505775527e-01       2.430266680712e+03 
       1.743942559171e-01       2.303109437984e+03 
       1.802263517371e-01       2.201925667100e+03 
       1.862533508214e-01       2.112108877316e+03 
       1.924818644494e-01       2.017462360919e+03 
       1.989186627765e-01       1.905598565913e+03 
       2.055707152847e-01       1.774528726013e+03 
       2.124452391818e-01       1.633061560276e+03 
       2.195497567139e-01       1.495478699108e+03 
       2.268921624510e-01       1.374291312253e+03 
       2.344808017550e-01       1.275867271165e+03 
       2.423245618548e-01       1.198355133929e+03 
       2.504329772620e-01       1.132047413925e+03 
       2.588163516754e-01       1.064843704702e+03 
       2.674858990930e-01       9.896951757713e+02 
       2.764539076010e-01       9.077349788937e+02 
       2.857339303080e-01       8.270031977180e+02 
       2.953410092148e-01       7.564070263580e+02 
       3.052919395542e-01       6.983976053669e+02 
       3.156055844677e-01       6.484563545752e+02 
       3.263032530092e-01       5.996868536954e+02 
       3.374091587054e-01       5.481957865607e+02 
       3.489509817175e-01       4.964788863271e+02 
       3.609605657343e-01       4.492945946670e+02 
       3.734747921333e-01       4.087455499503e+02 
       3.865366902904e-01       3.721140556292e+02 
       4.001968667448e-01       3.361063376313e+02 
       4.145153713076e-01       3.005869099536e+02 
       4.295641718077e-01       2.678121304524e+02 
       4.454304922144e-01       2.384938615292e+02 
       4.622214006969e-01       2.112840730379e+02 
       4.800702491654e-01       1.850612070893e+02 
       4.991459272112e-01       1.606386177947e+02 
       5.196665217302e-01       1.385018825226e+02 
       5.419201087032e-01       1.177317069611e+02 
       5.662975451962e-01       9.838946877587e+01 
       5.933463737275e-01       8.070409231045e+01 
       6.238638458458e-01       6.432982890683e+01 
       6.590669257916e-01       4.939129288303e+01 
       7.009246080454e-01       3.581576938406e+01 
       7.528593308799e-01       2.372719719449e+01 
       8.213469537518e-01       1.335263442039e+01 
       9.196980813302e-01       5.302585895037e+00 
       1.075112183810e+00       7.394317402493e-01 
       1.322697471132e+00       1.088509604546e-01 
       1.662328205042e+00       6.521171475002e-01 
       2.092692408506e+00       4.520603350040e-01 
       2.634543445090e+00       8.502247303074e-02 
       3.316693691389e+00       1.589074413401e-06 
       4.175469971226e+00       5.705235355560e-03 
       5.256605252960e+00       6.479024063097e-04 
       6.617673932723e+00       6.916018264510e-05 
       8.331157880872e+00       9.392729637679e-06 
       1.048830636590e+01       9.693963300864e-07 
       1.320399541071e+01       2.747170300317e-08 
       1.662284535976e+01       2.243973337688e-09 
       2.092692243973e+01       9.974398330786e-10 
       2.634543445002e+01       4.050767904401e-10 
       3.316693691389e+01       1.602030558385e-10 
       4.175469971226e+01       5.638161859132e-11 
       5.256605252960e+01       1.786091626577e-11 
       6.617673932723e+01       5.103896654549e-12 
