# Matter power spectrum P(k) at redshift z=0
# for k=1.04775e-05 to 66.1767 h/Mpc,
# number of wavenumbers equal to 130
#    1:k (h/Mpc)              2:P (Mpc/h)^3        
       1.047750691046e-05       5.020964811306e+01 
       1.319039970183e-05       6.270562594786e+01 
       1.660572937635e-05       7.831147247912e+01 
       2.090537469327e-05       9.780108069295e+01 
       2.631830744443e-05       1.221408203809e+02 
       3.313278603720e-05       1.525374501932e+02 
       4.171170630578e-05       1.904975994010e+02 
       5.251192703764e-05       2.379022224249e+02 
       6.610859936996e-05       2.970989227881e+02 
       8.322579568497e-05       3.710167318946e+02 
       1.047750691046e-04       4.633080766742e+02 
       1.319039970183e-04       5.785234129333e+02 
       1.660572937635e-04       7.223242666092e+02 
       2.090537469327e-04       9.017396271824e+02 
       2.631830744443e-04       1.125468123750e+03 
       3.313278603720e-04       1.404223053681e+03 
       4.171170630578e-04       1.751108028790e+03 
       5.251192703764e-04       2.181998448133e+03 
       6.610859936996e-04       2.715889983593e+03 
       8.322579568497e-04       3.375152337134e+03 
       1.047750691046e-03       4.185552174307e+03 
       1.319039970183e-03       5.175742744344e+03 
       1.660572937635e-03       6.376123051778e+03 
       2.090537469327e-03       7.815671904636e+03 
       2.631830744443e-03       9.517783069112e+03 
       3.313278603720e-03       1.149357460344e+04 
       4.171170630578e-03       1.373266012240e+04 
       5.251192703764e-03       1.619063614560e+04 
       6.610859936996e-03       1.877460421462e+04 
       8.322579568497e-03       2.132607031066e+04 
       1.047750691046e-02       2.360548181848e+04 
       1.319039970183e-02       2.528218671795e+04 
       1.660572937633e-02       2.595029309702e+04 
       2.090537453514e-02       2.520934862138e+04 
       2.631818545635e-02       2.287035377520e+04 
       3.311571692125e-02       1.928625059442e+04 
       4.113809243311e-02       1.568429645634e+04 
       4.792590854610e-02       1.361063770354e+04 
       5.284436902701e-02       1.259132520031e+04 
       5.689644391095e-02       1.195556948078e+04 
       6.051252627066e-02       1.147549939692e+04 
       6.388413457411e-02       1.105590088972e+04 
       6.711249296401e-02       1.064900187357e+04 
       7.025823437965e-02       1.022928070823e+04 
       7.336115587705e-02       9.784543660803e+03 
       7.644928796912e-02       9.311655444933e+03 
       7.954353299775e-02       8.814530941946e+03 
       8.266024078725e-02       8.302107187099e+03 
       8.581273398637e-02       7.786961184307e+03 
       8.901225918437e-02       7.283192279401e+03 
       9.226860540985e-02       6.805164508541e+03 
       9.559052048996e-02       6.365622980893e+03 
       9.898599946599e-02       5.974391654449e+03 
       1.024624891378e-01       5.637332547223e+03 
       1.060270359164e-01       5.355766659163e+03 
       1.096863943056e-01       5.126242723549e+03 
       1.134471073830e-01       4.940483900403e+03 
       1.173155669539e-01       4.786170129266e+03 
       1.212980586983e-01       4.647938733882e+03 
       1.254007961065e-01       4.509159369618e+03 
       1.296299459934e-01       4.354553706273e+03 
       1.339916477160e-01       4.173206382255e+03 
       1.384920277736e-01       3.961168352695e+03 
       1.431372111762e-01       3.722677873631e+03 
       1.479333307714e-01       3.469549913949e+03 
       1.528865355934e-01       3.218340518941e+03 
       1.580029992204e-01       2.986291697190e+03 
       1.632889290723e-01       2.786965607969e+03 
       1.687505775527e-01       2.626832989240e+03 
       1.743942559171e-01       2.503753854766e+03 
       1.802263517371e-01       2.407342069900e+03 
       1.862533508214e-01       2.322246691489e+03 
       1.924818644494e-01       2.231547495453e+03 
       1.989186627765e-01       2.122191375357e+03 
       2.055707152847e-01       1.992028724102e+03 
       2.124452391818e-01       1.850323969608e+03 
       2.195497567139e-01       1.712181885740e+03 
       2.268921624510e-01       1.590990753494e+03 
       2.344808017550e-01       1.493670542014e+03 
       2.423245618548e-01       1.418310503182e+03 
       2.504329772620e-01       1.354467400556e+03 
       2.588163516754e-01       1.288932345232e+03 
       2.674858990930e-01       1.213938237082e+03 
       2.764539076010e-01       1.130693296875e+03 
       2.857339303080e-01       1.048100709437e+03 
       2.953410092148e-01       9.761767511524e+02 
       3.052919395542e-01       9.178106816679e+02 
       3.156055844677e-01       8.678988275324e+02 
       3.263032530092e-01       8.185266080811e+02 
       3.374091587054e-01       7.651463780743e+02 
       3.489509817175e-01       7.106707634562e+02 
       3.609605657343e-01       6.607853376112e+02 
       3.734747921333e-01       6.180877063654e+02 
       3.865366902904e-01       5.793116620086e+02 
       4.001968667448e-01       5.403929959657e+02 
       4.145153713076e-01       5.011514429492e+02 
       4.295641718077e-01       4.644988511867e+02 
       4.454304922144e-01       4.314084104270e+02 
       4.622214006969e-01       4.001142173354e+02 
       4.800702491654e-01       3.690894283547e+02 
       4.991459272112e-01       3.394775463457e+02 
       5.196665217302e-01       3.119873385489e+02 
       5.419201087032e-01       2.852467319077e+02 
       5.662975451962e-01       2.593316273434e+02 
       5.933463737275e-01       2.345477030865e+02 
       6.238638458458e-01       2.102305423122e+02 
       6.590669257916e-01       1.864338395157e+02 
       7.009246080454e-01       1.627250576239e+02 
       7.528593308799e-01       1.388181736168e+02 
       8.213469537518e-01       1.141880948028e+02 
       9.196980813302e-01       8.835918304092e+01 
       1.075112183810e+00       6.172618175310e+01 
       1.322697471132e+00       3.804297726422e+01 
       1.662328205042e+00       2.209809814038e+01 
       2.092692408506e+00       1.266918648014e+01 
       2.634543445090e+00       7.203390603536e+00 
       3.316693691389e+00       4.065148853217e+00 
       4.175469971226e+00       2.278627466576e+00 
       5.256605252960e+00       1.269355038415e+00 
       6.617673932723e+00       7.031428307279e-01 
       8.331157880872e+00       3.874784944037e-01 
       1.048830636590e+01       2.125101493899e-01 
       1.320399541071e+01       1.160353341547e-01 
       1.662284535976e+01       6.309901070950e-02 
       2.092692243973e+01       3.417974020648e-02 
       2.634543445002e+01       1.844610764307e-02 
       3.316693691389e+01       9.919186401913e-03 
       4.175469971226e+01       5.314631047478e-03 
       5.256605252960e+01       2.836688339255e-03 
       6.617673932723e+01       1.507689414221e-03 
