# Matter power spectrum P(k) at redshift z=99
# for k=1.04775e-05 to 66.1767 h/Mpc,
# number of wavenumbers equal to 130
#    1:k (h/Mpc)              2:P (Mpc/h)^3        
       1.047750691046e-05       7.261927680925e-03 
       1.319039970183e-05       9.069258201929e-03 
       1.660572937635e-05       1.132639106735e-02 
       2.090537469327e-05       1.414527123411e-02 
       2.631830744443e-05       1.766569584074e-02 
       3.313278603720e-05       2.206225515962e-02 
       4.171170630578e-05       2.755297766301e-02 
       5.251192703764e-05       3.441013522978e-02 
       6.610859936996e-05       4.297372172815e-02 
       8.322579568497e-05       5.366826852991e-02 
       1.047750691046e-04       6.702379872833e-02 
       1.319039970183e-04       8.370193441360e-02 
       1.660572937635e-04       1.045283355393e-01 
       2.090537469327e-04       1.305329134115e-01 
       2.631830744443e-04       1.629994506619e-01 
       3.313278603720e-04       2.035264004619e-01 
       4.171170630578e-04       2.541004744264e-01 
       5.251192703764e-04       3.171839528583e-01 
       6.610859936996e-04       3.958147256544e-01 
       8.322579568497e-04       4.937136006309e-01 
       1.047750691046e-03       6.153841636080e-01 
       1.319039970183e-03       7.661720592297e-01 
       1.660572937635e-03       9.522588016492e-01 
       2.090537469327e-03       1.180312991696e+00 
       2.631830744443e-03       1.456802684666e+00 
       3.313278603720e-03       1.786503853983e+00 
       4.171170630578e-03       2.169896196979e+00 
       5.251192703764e-03       2.599430630329e+00 
       6.610859936996e-03       3.055668714943e+00 
       8.322579568497e-03       3.505725596256e+00 
       1.047750691046e-02       3.905492339417e+00 
       1.319039970183e-02       4.200915253319e+00 
       1.660572937633e-02       4.325061448466e+00 
       2.090537453514e-02       4.210201920455e+00 
       2.631818545635e-02       3.825147552759e+00 
       3.311571692125e-02       3.229064138324e+00 
       4.113809243311e-02       2.627724292856e+00 
       4.792590854610e-02       2.280790674796e+00 
       5.284436902701e-02       2.110086260690e+00 
       5.689644391095e-02       2.003538965860e+00 
       6.051252627066e-02       1.923055840335e+00 
       6.388413457411e-02       1.852731127227e+00 
       6.711249296401e-02       1.784566196172e+00 
       7.025823437965e-02       1.714274220596e+00 
       7.336115587705e-02       1.639813168574e+00 
       7.644928796912e-02       1.560662132856e+00 
       7.954353299775e-02       1.477455165000e+00 
       8.266024078725e-02       1.391696937559e+00 
       8.581273398637e-02       1.305461889842e+00 
       8.901225918437e-02       1.221122975968e+00 
       9.226860540985e-02       1.141079851543e+00 
       9.559052048996e-02       1.067449834895e+00 
       9.898599946599e-02       1.001888343343e+00 
       1.024624891378e-01       9.453826664268e-01 
       1.060270359164e-01       8.981486900539e-01 
       1.096863943056e-01       8.596114330197e-01 
       1.134471073830e-01       8.284049075862e-01 
       1.173155669539e-01       8.024664540834e-01 
       1.212980586983e-01       7.792327225090e-01 
       1.254007961065e-01       7.559169479991e-01 
       1.296299459934e-01       7.299829271545e-01 
       1.339916477160e-01       6.995927060684e-01 
       1.384920277736e-01       6.640776706232e-01 
       1.431372111762e-01       6.241447245151e-01 
       1.479333307714e-01       5.817615869488e-01 
       1.528865355934e-01       5.396898521502e-01 
       1.580029992204e-01       5.008119272375e-01 
       1.632889290723e-01       4.673972120580e-01 
       1.687505775527e-01       4.405320050832e-01 
       1.743942559171e-01       4.198647445590e-01 
       1.802263517371e-01       4.036581653151e-01 
       1.862533508214e-01       3.893587788186e-01 
       1.924818644494e-01       3.741337125299e-01 
       1.989186627765e-01       3.558013083445e-01 
       2.055707152847e-01       3.339983304347e-01 
       2.124452391818e-01       3.102652855365e-01 
       2.195497567139e-01       2.871214423899e-01 
       2.268921624510e-01       2.668068539119e-01 
       2.344808017550e-01       2.504823533691e-01 
       2.423245618548e-01       2.378325017874e-01 
       2.504329772620e-01       2.271109119826e-01 
       2.588163516754e-01       2.161156687211e-01 
       2.674858990930e-01       2.035441614816e-01 
       2.764539076010e-01       1.895965441165e-01 
       2.857339303080e-01       1.757557685255e-01 
       2.953410092148e-01       1.636986203170e-01 
       3.052919395542e-01       1.539053799440e-01 
       3.156055844677e-01       1.455300306645e-01 
       3.263032530092e-01       1.372489441629e-01 
       3.374091587054e-01       1.283009343725e-01 
       3.489509817175e-01       1.191702649439e-01 
       3.609605657343e-01       1.108063807553e-01 
       3.734747921333e-01       1.036438973178e-01 
       3.865366902904e-01       9.714014652656e-02 
       4.001968667448e-01       9.061468146183e-02 
       4.145153713076e-01       8.403616114669e-02 
       4.295641718077e-01       7.788984480963e-02 
       4.454304922144e-01       7.234072979492e-02 
       4.622214006969e-01       6.709279685828e-02 
       4.800702491654e-01       6.189092421951e-02 
       4.991459272112e-01       5.692533408216e-02 
       5.196665217302e-01       5.231527266426e-02 
       5.419201087032e-01       4.783164296665e-02 
       5.662975451962e-01       4.348603621690e-02 
       5.933463737275e-01       3.933018910646e-02 
       6.238638458458e-01       3.525262365190e-02 
       6.590669257916e-01       3.126205731430e-02 
       7.009246080454e-01       2.728651490291e-02 
       7.528593308799e-01       2.327759387168e-02 
       8.213469537518e-01       1.914746073160e-02 
       9.196980813302e-01       1.481628337232e-02 
       1.075112183810e+00       1.035025348250e-02 
       1.322697471132e+00       6.378879425164e-03 
       1.662328205042e+00       3.705176118237e-03 
       2.092692408506e+00       2.124145550446e-03 
       2.634543445090e+00       1.207637646044e-03 
       3.316693691389e+00       6.814449392299e-04 
       4.175469971226e+00       3.819062740874e-04 
       5.256605252960e+00       2.127031804220e-04 
       6.617673932723e+00       1.177870423698e-04 
       8.331157880872e+00       6.487994604116e-05 
       1.048830636590e+01       3.556128679124e-05 
       1.320399541071e+01       1.940090320287e-05 
       1.662284535976e+01       1.053708563807e-05 
       2.092692243973e+01       5.698206679248e-06 
       2.634543445002e+01       3.068091336594e-06 
       3.316693691389e+01       1.644551398108e-06 
       4.175469971226e+01       8.772696945265e-07 
       5.256605252960e+01       4.654428934686e-07 
       6.617673932723e+01       2.453726846216e-07 
