# Matter power spectrum P(k) at redshift z=0
# for k=1.04775e-05 to 67.6233 h/Mpc,
# number of wavenumbers equal to 246
#    1:k (h/Mpc)              2:P (Mpc/h)^3        
       1.047750691046e-05       5.020963346830e+01 
       1.131335172503e-05       5.407048579373e+01 
       1.221587619537e-05       5.822819708675e+01 
       1.319039970183e-05       6.270560694754e+01 
       1.424266597921e-05       6.752730813409e+01 
       1.537887696968e-05       7.271975801333e+01 
       1.660572937635e-05       7.831144919686e+01 
       1.793045413292e-05       8.433311668086e+01 
       1.936085902198e-05       9.081777914662e+01 
       2.090537469327e-05       9.780105576920e+01 
       2.257310435294e-05       1.053212797576e+02 
       2.437387741694e-05       1.134197091451e+02 
       2.631830744443e-05       1.221408118192e+02 
       2.841785469300e-05       1.315324486760e+02 
       3.068489366414e-05       1.416461503455e+02 
       3.313278603720e-05       1.525374294412e+02 
       3.577595942169e-05       1.642660412389e+02 
       3.862999239199e-05       1.768963302375e+02 
       4.171170630578e-05       1.904975909659e+02 
       4.503926444729e-05       2.051444179193e+02 
       4.863227907969e-05       2.209171360508e+02 
       5.251192703764e-05       2.379022184655e+02 
       5.670107454120e-05       2.561927779953e+02 
       6.122441196689e-05       2.758890454716e+02 
       6.610859936996e-05       2.970989193461e+02 
       7.138242361596e-05       3.199385547144e+02 
       7.707696804727e-05       3.445329703148e+02 
       8.322579568497e-05       3.710167290782e+02 
       8.986514704559e-05       3.995346419069e+02 
       9.703415373875e-05       4.302425352942e+02 
       1.047750691046e-04       4.633080713030e+02 
       1.131335172503e-04       4.989116183378e+02 
       1.221587619537e-04       5.372471835967e+02 
       1.319039970183e-04       5.785233982533e+02 
       1.424266597921e-04       6.229645756234e+02 
       1.537887696968e-04       6.708118269829e+02 
       1.660572937635e-04       7.223242373813e+02 
       1.793045413292e-04       7.777801186937e+02 
       1.936085902198e-04       8.374783136023e+02 
       2.090537469327e-04       9.017395644316e+02 
       2.257310435294e-04       9.709079449785e+02 
       2.437387741694e-04       1.045352343960e+03 
       2.631830744443e-04       1.125467986428e+03 
       2.841785469300e-04       1.211678001336e+03 
       3.068489366414e-04       1.304435014634e+03 
       3.313278603720e-04       1.404222748463e+03 
       3.577595942169e-04       1.511557616554e+03 
       3.862999239199e-04       1.626990309370e+03 
       4.171170630578e-04       1.751107325236e+03 
       4.503926444729e-04       1.884532444457e+03 
       4.863227907969e-04       2.027928126679e+03 
       5.251192703764e-04       2.181996762021e+03 
       5.670107454121e-04       2.347481827817e+03 
       6.122441196689e-04       2.525168785359e+03 
       6.610859936996e-04       2.715885787924e+03 
       7.138242361596e-04       2.920503947646e+03 
       7.707696804727e-04       3.139937223023e+03 
       8.322579568497e-04       3.375141499828e+03 
       8.986514704559e-04       3.627112877176e+03 
       9.703415373875e-04       3.896884739498e+03 
       1.047750691046e-03       4.185523442034e+03 
       1.131335172503e-03       4.494122502391e+03 
       1.221587619537e-03       4.823795144291e+03 
       1.319039970183e-03       5.175665323911e+03 
       1.424266597921e-03       5.550910875355e+03 
       1.537887696968e-03       5.950635350640e+03 
       1.660572937635e-03       6.375908255871e+03 
       1.793045413292e-03       6.827772785339e+03 
       1.936085902198e-03       7.307204005795e+03 
       2.090537469327e-03       7.815083136684e+03 
       2.257310435294e-03       8.352169185950e+03 
       2.437387741694e-03       8.919067679814e+03 
       2.631830744443e-03       9.516193960828e+03 
       2.841785469300e-03       1.014373284576e+04 
       3.068489366414e-03       1.080159381684e+04 
       3.313278603720e-03       1.148936037042e+04 
       3.577595942169e-03       1.220622979273e+04 
       3.862999239199e-03       1.295094516789e+04 
       4.171170630578e-03       1.372172122804e+04 
       4.503926444729e-03       1.451616507902e+04 
       4.863227907969e-03       1.533116684239e+04 
       5.251192703764e-03       1.616293243486e+04 
       5.670107454120e-03       1.700681024666e+04 
       6.122441196689e-03       1.785694616681e+04 
       6.610859936996e-03       1.870639504363e+04 
       7.138242361596e-03       1.954732841979e+04 
       7.707696804727e-03       2.037030997767e+04 
       8.322579568496e-03       2.116415562594e+04 
       8.986514704559e-03       2.191608497880e+04 
       9.703415373875e-03       2.261165408114e+04 
       1.047750691046e-02       2.323432596342e+04 
       1.131335172503e-02       2.376543840265e+04 
       1.221587619537e-02       2.418416916304e+04 
       1.319039970183e-02       2.446761451991e+04 
       1.424266597920e-02       2.459097274306e+04 
       1.537887696964e-02       2.452806145797e+04 
       1.660572937560e-02       2.425182149567e+04 
       1.793045412207e-02       2.373579433830e+04 
       1.936085889642e-02       2.295544910354e+04 
       2.090537351881e-02       2.189129032818e+04 
       2.257309534705e-02       2.053104257648e+04 
       2.437382002240e-02       1.887457438274e+04 
       2.631799943729e-02       1.693775463088e+04 
       2.841644544598e-02       1.475804536600e+04 
       3.067933354524e-02       1.239932067752e+04 
       3.311368469821e-02       9.956133412967e+03 
       3.571840442514e-02       7.553909586789e+03 
       3.847720347390e-02       5.339017362975e+03 
       4.135335537314e-02       3.452543514613e+03 
       4.429361666563e-02       1.991072883149e+03 
       4.724366437916e-02       9.778149930084e+02 
       5.016480834039e-02       3.667877714054e+02 
       5.303989618930e-02       7.246618024112e+01 
       5.586870668205e-02       3.054989964282e-01 
       5.866042679206e-02       6.461598935515e+01 
       6.142798931504e-02       1.954554902271e+02 
       6.418496438662e-02       3.398653487041e+02 
       6.694418832236e-02       4.610115045924e+02 
       6.971731104453e-02       5.366758176488e+02 
       7.251476154108e-02       5.575430704992e+02 
       7.534587669814e-02       5.251266848341e+02 
       7.821907664495e-02       4.495127507269e+02 
       8.114203771084e-02       3.465178986179e+02 
       8.412184533139e-02       2.347307730375e+02 
       8.716512277352e-02       1.323770193815e+02 
       9.027813693913e-02       5.433493152885e+01 
       9.346688429613e-02       9.823274261043e+00 
       9.673716026122e-02       9.665240100855e-01 
       1.000946150608e-01       2.266099861468e+01 
       1.035447986307e-01       6.384038342906e+01 
       1.070931966524e-01       1.100333940975e+02 
       1.107452594180e-01       1.467772264998e+02 
       1.145064248899e-01       1.631622072630e+02 
       1.183821370656e-01       1.546191539852e+02 
       1.223778605591e-01       1.241064124908e+02 
       1.264990921707e-01       8.115035158798e+01 
       1.307513701078e-01       3.884330630976e+01 
       1.351402814485e-01       9.421220909957e+00 
       1.396714683894e-01       3.055510554227e-02 
       1.443506337875e-01       1.007376470477e+01 
       1.491835464900e-01       3.151666844147e+01 
       1.541760469368e-01       5.228176474744e+01 
       1.593340535209e-01       6.158016276276e+01 
       1.646635701934e-01       5.487681359403e+01 
       1.701706958081e-01       3.595768932907e+01 
       1.758616357070e-01       1.474016857497e+01 
       1.817427160581e-01       1.643915024683e+00 
       1.878204014651e-01       1.574817365684e+00 
       1.941013163855e-01       1.120772203158e+01 
       2.005922709060e-01       2.149635008310e+01 
       2.073002914514e-01       2.411743696263e+01 
       2.142326570343e-01       1.736940426765e+01 
       2.213969417044e-01       6.826697548717e+00 
       2.288010639201e-01       3.999409849244e-01 
       2.364533436625e-01       1.629784947338e+00 
       2.443625682390e-01       6.937705822227e+00 
       2.525380678946e-01       9.725015614982e+00 
       2.609898025770e-01       7.058733680054e+00 
       2.697284614969e-01       2.119359137652e+00 
       2.787655775073e-01       1.641752054108e-03 
       2.881136588192e-01       1.703326557165e+00 
       2.977863412019e-01       3.669348383492e+00 
       3.077985646248e-01       2.904955770458e+00 
       3.181667793367e-01       7.135230861593e-01 
       3.289091877084e-01       5.169444911656e-02 
       3.400460298905e-01       1.016246864481e+00 
       3.515999235695e-01       1.345860637497e+00 
       3.635962710278e-01       4.816161000907e-01 
       3.760637505499e-01       2.951847467728e-03 
       3.890349143014e-01       3.733617912097e-01 
       4.025469215929e-01       4.458604026787e-01 
       4.166424455447e-01       7.263113060117e-02 
       4.313708034899e-01       4.890658779237e-02 
       4.467893781976e-01       1.751616558251e-01 
       4.629654198623e-01       4.923820357700e-02 
       4.799783500912e-01       1.248353789927e-02 
       4.979227318246e-01       5.586809470424e-02 
       5.169121269689e-01       6.053698661362e-03 
       5.370841403262e-01       1.261677247828e-02 
       5.586070463286e-01       9.125375787040e-03 
       5.816885093582e-01       1.659715277041e-03 
       6.065870143577e-01       3.447194164348e-03 
       6.336266466978e-01       5.967978984260e-04 
       6.632156057925e-01       4.955893543355e-04 
       6.958678637575e-01       3.759920745230e-04 
       7.322247983784e-01       1.962528077123e-05 
       7.730680193171e-01       5.783345843138e-06 
       8.193049551574e-01       5.385781371416e-06 
       8.718988013754e-01       9.957379600035e-07 
       9.317218028590e-01       7.619571309484e-10 
       9.993660906273e-01       1.999167323881e-08 
       1.075037109879e+00       6.629487096548e-09 
       1.158653485387e+00       1.386716986664e-09 
       1.250099156961e+00       3.391757168400e-10 
       1.349432400897e+00       3.258736479874e-10 
       1.456947456991e+00       1.019894623476e-12 
       1.573135110893e+00       3.297156982709e-11 
       1.698621895119e+00       3.718542503910e-11 
       1.834127512423e+00       6.856327639610e-12 
       1.980444933977e+00       5.734952495327e-12 
       2.138435191130e+00       2.800403160683e-12 
       2.309029198543e+00       2.974456895356e-12 
       2.493232376993e+00       1.298692142574e-12 
       2.692130394536e+00       6.628293359558e-13 
       2.906895533764e+00       1.810534394400e-14 
       3.138793596840e+00       3.809871082910e-15 
       3.389191365541e+00       4.933894149427e-17 
       3.659564656886e+00       8.460926525532e-16 
       3.951507021438e+00       1.185962663853e-15 
       4.266739135513e+00       9.889933633288e-17 
       4.607118942658e+00       1.986254413895e-17 
       4.974652604172e+00       4.748606088764e-17 
       5.371506323193e+00       3.495869574981e-18 
       5.800019112071e+00       5.351172140451e-19 
       6.262716578240e+00       2.791688843357e-18 
       6.762325809881e+00       9.138245360437e-18 
       7.301791449077e+00       7.044217861512e-18 
       7.884293047211e+00       2.331586489696e-20 
       8.513263804891e+00       8.282024878761e-20 
       9.192410806865e+00       2.082472246686e-19 
       9.925736871166e+00       1.814392256925e-21 
       1.071756414128e+01       2.330075614839e-20 
       1.157255956041e+01       6.597280855319e-23 
       1.249576237789e+01       8.893615192572e-21 
       1.349261385000e+01       1.244418381514e-22 
       1.456898931011e+01       4.212395844271e-22 
       1.573123279727e+01       9.369836458104e-24 
       1.698619444729e+01       4.038603480319e-22 
       1.834127086665e+01       8.709992959902e-24 
       1.980444872733e+01       1.690892143055e-23 
       2.138435183937e+01       1.465327011566e-23 
       2.309029197863e+01       6.247872431786e-24 
       2.493232376942e+01       8.075613014848e-25 
       2.692130394533e+01       2.151559212748e-24 
       2.906895533764e+01       5.350625721413e-24 
       3.138793596840e+01       1.302051036097e-24 
       3.389191365541e+01       2.219441159178e-28 
       3.659564656886e+01       1.318276412580e-24 
       3.951507021438e+01       7.053544261062e-25 
       4.266739135513e+01       1.082050905524e-26 
       4.607118942658e+01       1.928036774514e-26 
       4.974652604172e+01       2.730408846078e-26 
       5.371506323193e+01       1.820448650288e-26 
       5.800019112071e+01       9.399214898660e-27 
       6.262716578240e+01       5.993735015983e-29 
       6.762325809881e+01       8.148583382992e-28 
