# Matter power spectrum P(k) at redshift z=0
# for k=1.04775e-05 to 66.1767 h/Mpc,
# number of wavenumbers equal to 130
#    1:k (h/Mpc)              2:P (Mpc/h)^3        
       1.047750691046e-05       5.020964811307e+01 
       1.319039970183e-05       6.270562594779e+01 
       1.660572937635e-05       7.831147247911e+01 
       2.090537469327e-05       9.780108069294e+01 
       2.631830744443e-05       1.221408203809e+02 
       3.313278603720e-05       1.525374501932e+02 
       4.171170630578e-05       1.904975994010e+02 
       5.251192703764e-05       2.379022224249e+02 
       6.610859936996e-05       2.970989227883e+02 
       8.322579568497e-05       3.710167318946e+02 
       1.047750691046e-04       4.633080766742e+02 
       1.319039970183e-04       5.785234129333e+02 
       1.660572937635e-04       7.223242666092e+02 
       2.090537469327e-04       9.017396271824e+02 
       2.631830744443e-04       1.125468123750e+03 
       3.313278603720e-04       1.404223053681e+03 
       4.171170630578e-04       1.751108028790e+03 
       5.251192703764e-04       2.181998448133e+03 
       6.610859936996e-04       2.715889983592e+03 
       8.322579568497e-04       3.375152337134e+03 
       1.047750691046e-03       4.185552174304e+03 
       1.319039970183e-03       5.175742744067e+03 
       1.660572937635e-03       6.376123051777e+03 
       2.090537469327e-03       7.815671868445e+03 
       2.631830744443e-03       9.517783069112e+03 
       3.313278603720e-03       1.149357460341e+04 
       4.171170630578e-03       1.373266009340e+04 
       5.251192703764e-03       1.619063614560e+04 
       6.610859936996e-03       1.877460417415e+04 
       8.322579568497e-03       2.132607231849e+04 
       1.047750691046e-02       2.360547647604e+04 
       1.319039970183e-02       2.528218646897e+04 
       1.660572937633e-02       2.595024889842e+04 
       2.090537453514e-02       2.520934984758e+04 
       2.631818545635e-02       2.287034400877e+04 
       3.311571692125e-02       1.928623075463e+04 
       4.113809243311e-02       1.568427536609e+04 
       4.792590854610e-02       1.361063613471e+04 
       5.284436902701e-02       1.259130549308e+04 
       5.689644391095e-02       1.195557527860e+04 
       6.051252627066e-02       1.147546354504e+04 
       6.388413457411e-02       1.105589407774e+04 
       6.711249296401e-02       1.064900140390e+04 
       7.025823437965e-02       1.022931490808e+04 
       7.336115587705e-02       9.784524153855e+03 
       7.644928796912e-02       9.311646415048e+03 
       7.954353299775e-02       8.814544137692e+03 
       8.266024078725e-02       8.302119253179e+03 
       8.581273398637e-02       7.786952226377e+03 
       8.901225918437e-02       7.283169258903e+03 
       9.226860540985e-02       6.805174552723e+03 
       9.559052048996e-02       6.365655862933e+03 
       9.898599946599e-02       5.974416345205e+03 
       1.024624891378e-01       5.637324534436e+03 
       1.060270359164e-01       5.355770568211e+03 
       1.096863943056e-01       5.126247239545e+03 
       1.134471073830e-01       4.940478149080e+03 
       1.173155669539e-01       4.786172212893e+03 
       1.212980586983e-01       4.647922548538e+03 
       1.254007961065e-01       4.509141624520e+03 
       1.296299459934e-01       4.354549357112e+03 
       1.339916477160e-01       4.173213704808e+03 
       1.384920277736e-01       3.961170315267e+03 
       1.431372111762e-01       3.722682728167e+03 
       1.479333307714e-01       3.469547553365e+03 
       1.528865355934e-01       3.218341427280e+03 
       1.580029992204e-01       2.986292473576e+03 
       1.632889290723e-01       2.786970213153e+03 
       1.687505775527e-01       2.626833670349e+03 
       1.743942559171e-01       2.503754315789e+03 
       1.802263517371e-01       2.407339591161e+03 
       1.862533508214e-01       2.322250770430e+03 
       1.924818644494e-01       2.231555346682e+03 
       1.989186627765e-01       2.122189704043e+03 
       2.055707152847e-01       1.992026425595e+03 
       2.124452391818e-01       1.850313550354e+03 
       2.195497567139e-01       1.712181363191e+03 
       2.268921624510e-01       1.590987347624e+03 
       2.344808017550e-01       1.493666674294e+03 
       2.423245618548e-01       1.418309617077e+03 
       2.504329772620e-01       1.354464768209e+03 
       2.588163516754e-01       1.288935861201e+03 
       2.674858990930e-01       1.213937222279e+03 
       2.764539076010e-01       1.130694411308e+03 
       2.857339303080e-01       1.048101196386e+03 
       2.953410092148e-01       9.761818187689e+02 
       3.052919395542e-01       9.178138138296e+02 
       3.156055844677e-01       8.678984611277e+02 
       3.263032530092e-01       8.185240965101e+02 
       3.374091587054e-01       7.651446535966e+02 
       3.489509817175e-01       7.106714340871e+02 
       3.609605657343e-01       6.607869693520e+02 
       3.734747921333e-01       6.180843638468e+02 
       3.865366902904e-01       5.793116611359e+02 
       4.001968667448e-01       5.403904181569e+02 
       4.145153713076e-01       5.011506378769e+02 
       4.295641718077e-01       4.645007324551e+02 
       4.454304922144e-01       4.314089869359e+02 
       4.622214006969e-01       4.001133522415e+02 
       4.800702491654e-01       3.690893083954e+02 
       4.991459272112e-01       3.394769173044e+02 
       5.196665217302e-01       3.119853770770e+02 
       5.419201087032e-01       2.852464146080e+02 
       5.662975451962e-01       2.593312764077e+02 
       5.933463737275e-01       2.345488854771e+02 
       6.238638458458e-01       2.102306378007e+02 
       6.590669257916e-01       1.864336803264e+02 
       7.009246080454e-01       1.627256360995e+02 
       7.528593308799e-01       1.388183228414e+02 
       8.213469537518e-01       1.141881831469e+02 
       9.196980813302e-01       8.835969203772e+01 
       1.075112183810e+00       6.172610400423e+01 
       1.322697471132e+00       3.804272829045e+01 
       1.662328205042e+00       2.209807418871e+01 
       2.092692408506e+00       1.266926863115e+01 
       2.634543445090e+00       7.203346404881e+00 
       3.316693691389e+00       4.065148746809e+00 
       4.175469971226e+00       2.278625929852e+00 
       5.256605252960e+00       1.269354059784e+00 
       6.617673932723e+00       7.031363881496e-01 
       8.331157880872e+00       3.874800096955e-01 
       1.048830636590e+01       2.125117320558e-01 
       1.320399541071e+01       1.160370025699e-01 
       1.662284535976e+01       6.309921025623e-02 
       2.092692243973e+01       3.417996950314e-02 
       2.634543445002e+01       1.844607604325e-02 
       3.316693691389e+01       9.919271213614e-03 
       4.175469971226e+01       5.314580054699e-03 
       5.256605252960e+01       2.836690242320e-03 
       6.617673932723e+01       1.507676477456e-03 
