# Matter power spectrum P(k) at redshift z=99
# for k=1.04775e-05 to 67.6233 h/Mpc,
# number of wavenumbers equal to 246
#    1:k (h/Mpc)              2:P (Mpc/h)^3        
       1.047750691046e-05       7.262976922326e-03 
       1.131335172503e-05       7.821461611467e-03 
       1.221587619537e-05       8.422892571228e-03 
       1.319039970183e-05       9.070567808683e-03 
       1.424266597921e-05       9.768047075119e-03 
       1.537887696968e-05       1.051915868109e-02 
       1.660572937635e-05       1.132802829984e-02 
       1.793045413292e-05       1.219909362046e-02 
       1.936085902198e-05       1.313713747241e-02 
       2.090537469327e-05       1.414731342450e-02 
       2.257310435294e-05       1.523516466935e-02 
       2.437387741694e-05       1.640666379516e-02 
       2.631830744443e-05       1.766824449636e-02 
       2.841785469300e-05       1.902683236134e-02 
       3.068489366414e-05       2.048988680997e-02 
       3.313278603720e-05       2.206543845022e-02 
       3.577595942169e-05       2.376213824253e-02 
       3.862999239199e-05       2.558929951394e-02 
       4.171170630578e-05       2.755695411183e-02 
       4.503926444729e-05       2.967590266805e-02 
       4.863227907969e-05       3.195777618805e-02 
       5.251192703764e-05       3.441510116676e-02 
       5.670107454120e-05       3.706136536192e-02 
       6.122441196689e-05       3.991109123640e-02 
       6.610859936996e-05       4.297992261133e-02 
       7.138242361596e-05       4.628469685960e-02 
       7.707696804727e-05       4.984354943237e-02 
       8.322579568497e-05       5.367600672723e-02 
       8.986514704559e-05       5.780309476889e-02 
       9.703415373875e-05       6.224745167609e-02 
       1.047750691046e-04       6.703345397684e-02 
       1.131335172503e-04       7.218734307813e-02 
       1.221587619537e-04       7.773737699973e-02 
       1.319039970183e-04       8.371397254895e-02 
       1.424266597921e-04       9.014988085459e-02 
       1.537887696968e-04       9.708035169268e-02 
       1.660572937635e-04       1.045433325066e-01 
       1.793045413292e-04       1.125796656744e-01 
       1.936085902198e-04       1.212333081853e-01 
       2.090537469327e-04       1.305515649890e-01 
       2.257310435294e-04       1.405853329710e-01 
       2.437387741694e-04       1.513893742159e-01 
       2.631830744443e-04       1.630225925670e-01 
       2.841785469300e-04       1.755483401528e-01 
       3.068489366414e-04       1.890347339326e-01 
       3.313278603720e-04       2.035550024849e-01 
       3.577595942169e-04       2.191878359386e-01 
       3.862999239199e-04       2.360177744546e-01 
       4.171170630578e-04       2.541355967517e-01 
       4.503926444729e-04       2.736387435834e-01 
       4.863227907969e-04       2.946317367423e-01 
       5.251192703764e-04       3.172266313646e-01 
       5.670107454121e-04       3.415434602673e-01 
       6.122441196689e-04       3.677106887633e-01 
       6.610859936996e-04       3.958656604264e-01 
       7.138242361596e-04       4.261550275919e-01 
       7.707696804727e-04       4.587351548221e-01 
       8.322579568497e-04       4.937724728504e-01 
       8.986514704559e-04       5.314437634676e-01 
       9.703415373875e-04       5.719363468455e-01 
       1.047750691046e-03       6.154481379595e-01 
       1.131335172503e-03       6.621875215096e-01 
       1.221587619537e-03       7.123729952962e-01 
       1.319039970183e-03       7.662325160640e-01 
       1.424266597921e-03       8.240101569418e-01 
       1.537887696968e-03       8.859485466100e-01 
       1.660572937635e-03       9.522939079742e-01 
       1.793045413292e-03       1.023297313145e+00 
       1.936085902198e-03       1.099208303418e+00 
       2.090537469327e-03       1.180270086167e+00 
       2.257310435294e-03       1.266713592979e+00 
       2.437387741694e-03       1.358749829620e+00 
       2.631830744443e-03       1.456560850030e+00 
       2.841785469300e-03       1.560288634434e+00 
       3.068489366414e-03       1.670022036583e+00 
       3.313278603720e-03       1.785781676599e+00 
       3.577595942169e-03       1.907502813761e+00 
       3.862999239199e-03       2.035016402525e+00 
       4.171170630578e-03       2.168028970256e+00 
       4.503926444729e-03       2.306102047747e+00 
       4.863227907969e-03       2.448631939122e+00 
       5.251192703764e-03       2.594832214863e+00 
       5.670107454120e-03       2.743718766239e+00 
       6.122441196689e-03       2.894100927811e+00 
       6.610859936996e-03       3.044577909684e+00 
       7.138242361596e-03       3.193541120955e+00 
       7.707696804727e-03       3.339179331961e+00 
       8.322579568496e-03       3.479485199221e+00 
       8.986514704559e-03       3.612251423497e+00 
       9.703415373875e-03       3.735052539950e+00 
       1.047750691046e-02       3.845213593931e+00 
       1.131335172503e-02       3.939750039851e+00 
       1.221587619537e-02       4.015313452956e+00 
       1.319039970183e-02       4.068146985361e+00 
       1.424266597920e-02       4.094102820077e+00 
       1.537887696964e-02       4.088727298294e+00 
       1.660572937560e-02       4.047454914978e+00 
       1.793045412207e-02       3.965837260602e+00 
       1.936085889642e-02       3.839857999653e+00 
       2.090537351881e-02       3.666247911638e+00 
       2.257309534705e-02       3.442988294816e+00 
       2.437382002240e-02       3.169946543007e+00 
       2.631799943729e-02       2.849671008139e+00 
       2.841644544598e-02       2.488299918770e+00 
       3.067933354524e-02       2.096351664871e+00 
       3.311368469821e-02       1.689421383661e+00 
       3.571840442514e-02       1.288211785119e+00 
       3.847720347390e-02       9.170164088770e-01 
       4.135335537314e-02       5.993334858719e-01 
       4.429361666563e-02       3.514347370180e-01 
       4.724366437916e-02       1.775724825946e-01 
       5.016480834039e-02       7.054395284710e-02 
       5.303989618930e-02       1.653080832730e-02 
       5.586870668205e-02       1.322720332237e-04 
       5.866042679206e-02       7.316772936516e-03 
       6.142798931504e-02       2.657615410366e-02 
       6.418496438662e-02       4.913959732299e-02 
       6.694418832236e-02       6.883895246337e-02 
       6.971731104453e-02       8.186097677154e-02 
       7.251476154108e-02       8.647377714571e-02 
       7.534587669814e-02       8.269495471486e-02 
       7.821907664495e-02       7.192542798439e-02 
       8.114203771084e-02       5.651883824756e-02 
       8.412184533139e-02       3.931246608500e-02 
       8.716512277352e-02       2.313202465592e-02 
       9.027813693913e-02       1.034331371403e-02 
       9.346688429613e-02       2.476111228788e-03 
       9.673716026122e-02       9.959380703624e-07 
       1.000946150608e-01       2.292253041145e-03 
       1.035447986307e-01       7.803586810187e-03 
       1.070931966524e-01       1.443591170692e-02 
       1.107452594180e-01       2.003566106295e-02 
       1.145064248899e-01       2.291679484969e-02 
       1.183821370656e-01       2.227950830427e-02 
       1.223778605591e-01       1.840000589151e-02 
       1.264990921707e-01       1.252073941417e-02 
       1.307513701078e-01       6.440229752228e-03 
       1.351402814485e-01       1.910761563907e-03 
       1.396714683894e-01       3.398749731269e-05 
       1.443506337875e-01       8.765561782145e-04 
       1.491835464900e-01       3.475154835471e-03 
       1.541760469368e-01       6.261286936279e-03 
       1.593340535209e-01       7.754602745219e-03 
       1.646635701934e-01       7.229626432757e-03 
       1.701706958081e-01       5.024213953504e-03 
       1.758616357070e-01       2.309330814179e-03 
       1.817427160581e-01       4.124310800843e-04 
       1.878204014651e-01       6.053264066979e-05 
       1.941013163855e-01       9.975585650643e-04 
       2.005922709060e-01       2.221101462331e-03 
       2.073002914514e-01       2.707111735744e-03 
       2.142326570343e-01       2.123395334722e-03 
       2.213969417044e-01       9.764138238274e-04 
       2.288010639201e-01       1.291526842173e-04 
       2.364533436625e-01       7.282939339307e-05 
       2.443625682390e-01       5.529377275142e-04 
       2.525380678946e-01       9.114779300335e-04 
       2.609898025770e-01       7.589839226632e-04 
       2.697284614969e-01       2.981490225570e-04 
       2.787655775073e-01       1.138332932622e-05 
       2.881136588192e-01       8.483352760888e-05 
       2.977863412019e-01       2.688484285896e-04 
       3.077985646248e-01       2.640501789244e-04 
       3.181667793367e-01       9.740565767404e-05 
       3.289091877084e-01       5.809284180647e-07 
       3.400460298905e-01       4.582955673331e-05 
       3.515999235695e-01       9.078765868748e-05 
       3.635962710278e-01       4.975197054863e-05 
       3.760637505499e-01       2.362655782588e-06 
       3.890349143014e-01       1.158447241686e-05 
       4.025469215929e-01       2.555656957750e-05 
       4.166424455447e-01       9.527575446752e-06 
       4.313708034899e-01       1.231187415253e-07 
       4.467893781976e-01       6.235416153151e-06 
       4.629654198623e-01       4.247598163469e-06 
       4.799783500912e-01       1.131515412977e-08 
       4.979227318246e-01       1.486470257663e-06 
       5.169121269689e-01       7.739172494227e-07 
       5.370841403262e-01       4.846025356512e-08 
       5.586070463286e-01       3.599413746489e-07 
       5.816885093582e-01       7.559829160770e-09 
       6.065870143577e-01       7.816559860360e-08 
       6.336266466978e-01       2.839604608890e-09 
       6.632156057925e-01       1.497669075294e-08 
       6.958678637575e-01       3.860308438460e-11 
       7.322247983784e-01       5.722103052629e-10 
       7.730680193171e-01       4.295104944609e-10 
       8.193049551574e-01       3.703178291026e-11 
       8.718988013754e-01       9.278977539987e-13 
       9.317218028590e-01       3.187834291471e-12 
       9.993660906273e-01       7.461474422888e-12 
       1.075037109879e+00       6.138222499329e-14 
       1.158653485387e+00       1.254556772752e-15 
       1.250099156961e+00       2.109242833109e-12 
       1.349432400897e+00       3.617621625134e-13 
       1.456947456991e+00       5.590899804286e-14 
       1.573135110893e+00       2.385132699329e-13 
       1.698621895119e+00       8.559057599840e-16 
       1.834127512423e+00       8.733487380480e-14 
       1.980444933977e+00       1.460885415663e-14 
       2.138435191130e+00       1.289063607273e-15 
       2.309029198543e+00       1.153916648721e-13 
       2.493232376993e+00       1.332542668211e-16 
       2.692130394536e+00       1.440843780667e-16 
       2.906895533764e+00       2.939723469733e-15 
       3.138793596840e+00       2.569578063860e-15 
       3.389191365541e+00       3.814748316889e-15 
       3.659564656886e+00       1.009015264552e-15 
       3.951507021438e+00       1.171764210275e-15 
       4.266739135513e+00       8.595842852387e-18 
       4.607118942658e+00       1.329099597593e-16 
       4.974652604172e+00       2.892585660115e-16 
       5.371506323193e+00       1.100008375188e-17 
       5.800019112071e+00       8.099759531539e-18 
       6.262716578240e+00       1.240086311304e-18 
       6.762325809881e+00       7.939888485511e-17 
       7.301791449077e+00       5.028130232465e-17 
       7.884293047211e+00       1.910535357963e-17 
       8.513263804891e+00       7.763205686081e-19 
       9.192410806865e+00       1.565980333082e-17 
       9.925736871166e+00       3.403182858950e-19 
       1.071756414128e+01       1.173148586162e-19 
       1.157255956041e+01       4.796580560847e-18 
       1.249576237789e+01       3.445322064471e-18 
       1.349261385000e+01       2.287018666324e-18 
       1.456898931011e+01       1.535988854507e-18 
       1.573123279727e+01       1.770935608912e-20 
       1.698619444729e+01       7.870815078936e-22 
       1.834127086665e+01       1.351031082352e-20 
       1.980444872733e+01       1.802951053062e-20 
       2.138435183937e+01       2.787465981961e-20 
       2.309029197863e+01       1.813345482218e-19 
       2.493232376942e+01       1.256380567137e-19 
       2.692130394533e+01       2.160716288113e-20 
       2.906895533764e+01       5.281349702315e-21 
       3.138793596840e+01       2.547575326765e-22 
       3.389191365541e+01       2.153506098529e-20 
       3.659564656886e+01       2.653643954124e-22 
       3.951507021438e+01       7.115268578655e-21 
       4.266739135513e+01       9.287486940234e-21 
       4.607118942658e+01       5.813700250279e-21 
       4.974652604172e+01       2.226522335053e-22 
       5.371506323193e+01       1.228680549103e-22 
       5.800019112071e+01       1.409036549976e-22 
       6.262716578240e+01       1.267270123063e-21 
       6.762325809881e+01       1.156443634012e-22 
