# Matter power spectrum P(k) at redshift z=0
# for k=1.04775e-05 to 66.1767 h/Mpc,
# number of wavenumbers equal to 130
#    1:k (h/Mpc)              2:P (Mpc/h)^3        
       1.047750691046e-05       5.020964811307e+01 
       1.319039970183e-05       6.270562594775e+01 
       1.660572937635e-05       7.831147247912e+01 
       2.090537469327e-05       9.780108069296e+01 
       2.631830744443e-05       1.221408203809e+02 
       3.313278603720e-05       1.525374501932e+02 
       4.171170630578e-05       1.904975994009e+02 
       5.251192703764e-05       2.379022224249e+02 
       6.610859936996e-05       2.970989227881e+02 
       8.322579568497e-05       3.710167318945e+02 
       1.047750691046e-04       4.633080766742e+02 
       1.319039970183e-04       5.785234129340e+02 
       1.660572937635e-04       7.223242666092e+02 
       2.090537469327e-04       9.017396271824e+02 
       2.631830744443e-04       1.125468123750e+03 
       3.313278603720e-04       1.404223053681e+03 
       4.171170630578e-04       1.751108028790e+03 
       5.251192703764e-04       2.181998448133e+03 
       6.610859936996e-04       2.715889983593e+03 
       8.322579568497e-04       3.375152337133e+03 
       1.047750691046e-03       4.185552174304e+03 
       1.319039970183e-03       5.175742742653e+03 
       1.660572937635e-03       6.376123051779e+03 
       2.090537469327e-03       7.815671868446e+03 
       2.631830744443e-03       9.517783069112e+03 
       3.313278603720e-03       1.149357460346e+04 
       4.171170630578e-03       1.373266009585e+04 
       5.251192703764e-03       1.619063614556e+04 
       6.610859936996e-03       1.877460414413e+04 
       8.322579568497e-03       2.132607231919e+04 
       1.047750691046e-02       2.360548959680e+04 
       1.319039970183e-02       2.528218651636e+04 
       1.660572937633e-02       2.595027926344e+04 
       2.090537453514e-02       2.520936789531e+04 
       2.631818545635e-02       2.287035043398e+04 
       3.311571692125e-02       1.928626391675e+04 
       4.113809243311e-02       1.568425328341e+04 
       4.792590854610e-02       1.361062572793e+04 
       5.284436902701e-02       1.259131813418e+04 
       5.689644391095e-02       1.195555226767e+04 
       6.051252627066e-02       1.147549199608e+04 
       6.388413457411e-02       1.105590233276e+04 
       6.711249296401e-02       1.064898028076e+04 
       7.025823437965e-02       1.022929571571e+04 
       7.336115587705e-02       9.784522589308e+03 
       7.644928796912e-02       9.311661824982e+03 
       7.954353299775e-02       8.814531037230e+03 
       8.266024078725e-02       8.302119433441e+03 
       8.581273398637e-02       7.786945799717e+03 
       8.901225918437e-02       7.283163898160e+03 
       9.226860540985e-02       6.805132718976e+03 
       9.559052048996e-02       6.365627795061e+03 
       9.898599946599e-02       5.974396612424e+03 
       1.024624891378e-01       5.637323565988e+03 
       1.060270359164e-01       5.355773099196e+03 
       1.096863943056e-01       5.126230110206e+03 
       1.134471073830e-01       4.940478868716e+03 
       1.173155669539e-01       4.786157186852e+03 
       1.212980586983e-01       4.647933678701e+03 
       1.254007961065e-01       4.509149153668e+03 
       1.296299459934e-01       4.354545260929e+03 
       1.339916477160e-01       4.173207653178e+03 
       1.384920277736e-01       3.961172938795e+03 
       1.431372111762e-01       3.722686290778e+03 
       1.479333307714e-01       3.469526330786e+03 
       1.528865355934e-01       3.218334850168e+03 
       1.580029992204e-01       2.986297578880e+03 
       1.632889290723e-01       2.786967200248e+03 
       1.687505775527e-01       2.626830603960e+03 
       1.743942559171e-01       2.503750267652e+03 
       1.802263517371e-01       2.407343092841e+03 
       1.862533508214e-01       2.322256559786e+03 
       1.924818644494e-01       2.231553463862e+03 
       1.989186627765e-01       2.122191650605e+03 
       2.055707152847e-01       1.992026323568e+03 
       2.124452391818e-01       1.850321576035e+03 
       2.195497567139e-01       1.712184125336e+03 
       2.268921624510e-01       1.590986370287e+03 
       2.344808017550e-01       1.493668738498e+03 
       2.423245618548e-01       1.418310562219e+03 
       2.504329772620e-01       1.354466021271e+03 
       2.588163516754e-01       1.288934211446e+03 
       2.674858990930e-01       1.213935265921e+03 
       2.764539076010e-01       1.130692604483e+03 
       2.857339303080e-01       1.048098292995e+03 
       2.953410092148e-01       9.761834104726e+02 
       3.052919395542e-01       9.178089171855e+02 
       3.156055844677e-01       8.679012491644e+02 
       3.263032530092e-01       8.185267124205e+02 
       3.374091587054e-01       7.651469100306e+02 
       3.489509817175e-01       7.106721440743e+02 
       3.609605657343e-01       6.607843510602e+02 
       3.734747921333e-01       6.180841632770e+02 
       3.865366902904e-01       5.793092582497e+02 
       4.001968667448e-01       5.403907733910e+02 
       4.145153713076e-01       5.011519431581e+02 
       4.295641718077e-01       4.644984379664e+02 
       4.454304922144e-01       4.314075938819e+02 
       4.622214006969e-01       4.001142646245e+02 
       4.800702491654e-01       3.690901503662e+02 
       4.991459272112e-01       3.394762991921e+02 
       5.196665217302e-01       3.119855202111e+02 
       5.419201087032e-01       2.852460987956e+02 
       5.662975451962e-01       2.593309574955e+02 
       5.933463737275e-01       2.345486985272e+02 
       6.238638458458e-01       2.102311880823e+02 
       6.590669257916e-01       1.864334146811e+02 
       7.009246080454e-01       1.627252577656e+02 
       7.528593308799e-01       1.388185477379e+02 
       8.213469537518e-01       1.141882193020e+02 
       9.196980813302e-01       8.835930037413e+01 
       1.075112183810e+00       6.172613861652e+01 
       1.322697471132e+00       3.804257892644e+01 
       1.662328205042e+00       2.209795345370e+01 
       2.092692408506e+00       1.266910179973e+01 
       2.634543445090e+00       7.203363604801e+00 
       3.316693691389e+00       4.065117251090e+00 
       4.175469971226e+00       2.278610326413e+00 
       5.256605252960e+00       1.269349176315e+00 
       6.617673932723e+00       7.031278610363e-01 
       8.331157880872e+00       3.874756451152e-01 
       1.048830636590e+01       2.125096733334e-01 
       1.320399541071e+01       1.160364871556e-01 
       1.662284535976e+01       6.309878259846e-02 
       2.092692243973e+01       3.417916600501e-02 
       2.634543445002e+01       1.844564446256e-02 
       3.316693691389e+01       9.918823718200e-03 
       4.175469971226e+01       5.314432528003e-03 
       5.256605252960e+01       2.836513088790e-03 
       6.617673932723e+01       1.507518237872e-03 
