# Matter power spectrum P(k) at redshift z=0
# for k=1.04775e-05 to 66.1767 h/Mpc,
# number of wavenumbers equal to 130
#    1:k (h/Mpc)              2:P (Mpc/h)^3        
       1.047750691046e-05       5.020964824882e+01 
       1.319039970183e-05       6.270562869466e+01 
       1.660572937635e-05       7.831148226990e+01 
       2.090537469327e-05       9.780106872492e+01 
       2.631830744443e-05       1.221408188786e+02 
       3.313278603720e-05       1.525374505948e+02 
       4.171170630578e-05       1.904976001765e+02 
       5.251192703764e-05       2.379022230552e+02 
       6.610859936996e-05       2.970989292852e+02 
       8.322579568497e-05       3.710167324281e+02 
       1.047750691046e-04       4.633080766442e+02 
       1.319039970183e-04       5.785234126582e+02 
       1.660572937635e-04       7.223242669205e+02 
       2.090537469327e-04       9.017396262835e+02 
       2.631830744443e-04       1.125468123269e+03 
       3.313278603720e-04       1.404223052270e+03 
       4.171170630578e-04       1.751108027326e+03 
       5.251192703764e-04       2.181998446238e+03 
       6.610859936996e-04       2.715889982201e+03 
       8.322579568497e-04       3.375152327130e+03 
       1.047750691046e-03       4.185552145316e+03 
       1.319039970183e-03       5.175742657179e+03 
       1.660572937635e-03       6.376122759892e+03 
       2.090537469327e-03       7.815670969897e+03 
       2.631830744443e-03       9.517780343841e+03 
       3.313278603720e-03       1.149356672122e+04 
       4.171170630578e-03       1.373263844964e+04 
       5.251192703764e-03       1.619057676133e+04 
       6.610859936996e-03       1.877444874232e+04 
       8.322579568497e-03       2.132568107779e+04 
       1.047750691046e-02       2.360453989810e+04 
       1.319039970183e-02       2.527998488954e+04 
       1.660572937633e-02       2.594532461634e+04 
       2.090537453514e-02       2.519873448103e+04 
       2.631818545635e-02       2.284895455213e+04 
       3.311571692125e-02       1.924629581104e+04 
       4.113809243311e-02       1.561761094199e+04 
       4.792590854610e-02       1.351915354080e+04 
       5.284436902701e-02       1.248128065402e+04 
       5.689644391095e-02       1.183026762865e+04 
       6.051252627066e-02       1.133686962686e+04 
       6.388413457411e-02       1.090538051158e+04 
       6.711249296401e-02       1.048771800036e+04 
       7.025823437965e-02       1.005822470077e+04 
       7.336115587705e-02       9.604498071152e+03 
       7.644928796912e-02       9.123471150230e+03 
       7.954353299775e-02       8.618831580445e+03 
       8.266024078725e-02       8.099406124464e+03 
       8.581273398637e-02       7.577629229853e+03 
       8.901225918437e-02       7.067387020091e+03 
       9.226860540985e-02       6.582887841378e+03 
       9.559052048996e-02       6.136608704166e+03 
       9.898599946599e-02       5.738182554138e+03 
       1.024624891378e-01       5.393384810651e+03 
       1.060270359164e-01       5.103338179573e+03 
       1.096863943056e-01       4.864546779718e+03 
       1.134471073830e-01       4.668951628416e+03 
       1.173155669539e-01       4.504467079562e+03 
       1.212980586983e-01       4.356137900603e+03 
       1.254007961065e-01       4.207854981307e+03 
       1.296299459934e-01       4.044911049206e+03 
       1.339916477160e-01       3.856772590354e+03 
       1.384920277736e-01       3.639623464826e+03 
       1.431372111762e-01       3.397694703947e+03 
       1.479333307714e-01       3.142310475307e+03 
       1.528865355934e-01       2.889380847291e+03 
       1.580029992204e-01       2.655291043814e+03 
       1.632889290723e-01       2.452799299907e+03 
       1.687505775527e-01       2.287906273735e+03 
       1.743942559171e-01       2.158445173429e+03 
       1.802263517371e-01       2.054546496956e+03 
       1.862533508214e-01       1.962122807321e+03 
       1.924818644494e-01       1.865536314079e+03 
       1.989186627765e-01       1.752869001261e+03 
       2.055707152847e-01       1.622275968515e+03 
       2.124452391818e-01       1.482223897663e+03 
       2.195497567139e-01       1.346362884220e+03 
       2.268921624510e-01       1.226580993201e+03 
       2.344808017550e-01       1.128833255765e+03 
       2.423245618548e-01       1.051279411164e+03 
       2.504329772620e-01       9.848107148276e+02 
       2.588163516754e-01       9.180924888765e+02 
       2.674858990930e-01       8.445929574199e+02 
       2.764539076010e-01       7.654043090653e+02 
       2.857339303080e-01       6.879298128178e+02 
       2.953410092148e-01       6.202824809889e+02 
       3.052919395542e-01       5.646178381525e+02 
       3.156055844677e-01       5.168128742830e+02 
       3.263032530092e-01       4.706717768595e+02 
       3.374091587054e-01       4.227429671783e+02 
       3.489509817175e-01       3.752349497773e+02 
       3.609605657343e-01       3.322745624845e+02 
       3.734747921333e-01       2.956189058171e+02 
       3.865366902904e-01       2.629074910040e+02 
       4.001968667448e-01       2.313423337853e+02 
       4.145153713076e-01       2.007999179247e+02 
       4.295641718077e-01       1.731149066646e+02 
       4.454304922144e-01       1.488209678556e+02 
       4.622214006969e-01       1.268118114379e+02 
       4.800702491654e-01       1.061950019260e+02 
       4.991459272112e-01       8.757118377544e+01 
       5.196665217302e-01       7.127425267447e+01 
       5.419201087032e-01       5.661305425756e+01 
       5.662975451962e-01       4.361468277836e+01 
       5.933463737275e-01       3.241806397047e+01 
       6.238638458458e-01       2.279122637411e+01 
       6.590669257916e-01       1.480855574442e+01 
       7.009246080454e-01       8.439988394382e+00 
       7.528593308799e-01       3.769532687005e+00 
       8.213469537518e-01       9.119126862045e-01 
       9.196980813302e-01       6.245905769251e-04 
       1.075112183810e+00       7.231387180463e-01 
       1.322697471132e+00       1.318360905225e+00 
       1.662328205042e+00       6.324290666449e-01 
       2.092692408506e+00       6.142040373952e-02 
       2.634543445090e+00       5.334490742421e-03 
       3.316693691389e+00       8.417910467421e-03 
       4.175469971226e+00       8.954446549109e-05 
       5.256605252960e+00       1.661384791673e-04 
       6.617673932723e+00       2.656867250437e-08 
       8.331157880872e+00       4.910498744926e-07 
       1.048830636590e+01       8.244728939608e-08 
       1.320399541071e+01       6.362440958588e-10 
       1.662284535976e+01       1.611747648579e-09 
       2.092692243973e+01       5.001007886280e-10 
       2.634543445002e+01       1.717091612813e-10 
       3.316693691389e+01       5.166876320121e-11 
       4.175469971226e+01       1.308768842059e-11 
       5.256605252960e+01       2.575077252712e-12 
       6.617673932723e+01       3.271718040923e-13 
