# Matter power spectrum P(k) at redshift z=0
# for k=1.04775e-05 to 66.1767 h/Mpc,
# number of wavenumbers equal to 130
#    1:k (h/Mpc)              2:P (Mpc/h)^3        
       1.047750691046e-05       5.020964811338e+01 
       1.319039970183e-05       6.270562595110e+01 
       1.660572937635e-05       7.831147247912e+01 
       2.090537469327e-05       9.780108069628e+01 
       2.631830744443e-05       1.221408203810e+02 
       3.313278603720e-05       1.525374501932e+02 
       4.171170630578e-05       1.904975994019e+02 
       5.251192703764e-05       2.379022224227e+02 
       6.610859936996e-05       2.970989227882e+02 
       8.322579568497e-05       3.710167318946e+02 
       1.047750691046e-04       4.633080766743e+02 
       1.319039970183e-04       5.785234129339e+02 
       1.660572937635e-04       7.223242666092e+02 
       2.090537469327e-04       9.017396271824e+02 
       2.631830744443e-04       1.125468123752e+03 
       3.313278603720e-04       1.404223053681e+03 
       4.171170630578e-04       1.751108028788e+03 
       5.251192703764e-04       2.181998448132e+03 
       6.610859936996e-04       2.715889983592e+03 
       8.322579568497e-04       3.375152337129e+03 
       1.047750691046e-03       4.185552174292e+03 
       1.319039970183e-03       5.175742740835e+03 
       1.660572937635e-03       6.376123051651e+03 
       2.090537469327e-03       7.815671865707e+03 
       2.631830744443e-03       9.517783067991e+03 
       3.313278603720e-03       1.149357460024e+04 
       4.171170630578e-03       1.373266009182e+04 
       5.251192703764e-03       1.619063612304e+04 
       6.610859936996e-03       1.877460416978e+04 
       8.322579568497e-03       2.132606822024e+04 
       1.047750691046e-02       2.360548239221e+04 
       1.319039970183e-02       2.528218643987e+04 
       1.660572937633e-02       2.595026838347e+04 
       2.090537453514e-02       2.520937020416e+04 
       2.631818545635e-02       2.287036366726e+04 
       3.311571692125e-02       1.928624898155e+04 
       4.113809243311e-02       1.568423691902e+04 
       4.792590854610e-02       1.361064279996e+04 
       5.284436902701e-02       1.259129228177e+04 
       5.689644391095e-02       1.195554978708e+04 
       6.051252627066e-02       1.147542013499e+04 
       6.388413457411e-02       1.105583679029e+04 
       6.711249296401e-02       1.064896373554e+04 
       7.025823437965e-02       1.022923123428e+04 
       7.336115587705e-02       9.784453402656e+03 
       7.644928796912e-02       9.311579831179e+03 
       7.954353299775e-02       8.814450188034e+03 
       8.266024078725e-02       8.302098054604e+03 
       8.581273398637e-02       7.786891936873e+03 
       8.901225918437e-02       7.283164484761e+03 
       9.226860540985e-02       6.805083022903e+03 
       9.559052048996e-02       6.365576468823e+03 
       9.898599946599e-02       5.974318275628e+03 
       1.024624891378e-01       5.637278420054e+03 
       1.060270359164e-01       5.355736416847e+03 
       1.096863943056e-01       5.126208615074e+03 
       1.134471073830e-01       4.940427208922e+03 
       1.173155669539e-01       4.786119565547e+03 
       1.212980586983e-01       4.647876699420e+03 
       1.254007961065e-01       4.509076958841e+03 
       1.296299459934e-01       4.354498800115e+03 
       1.339916477160e-01       4.173150151544e+03 
       1.384920277736e-01       3.961102638021e+03 
       1.431372111762e-01       3.722591453608e+03 
       1.479333307714e-01       3.469491167665e+03 
       1.528865355934e-01       3.218268023046e+03 
       1.580029992204e-01       2.986208037517e+03 
       1.632889290723e-01       2.786898775107e+03 
       1.687505775527e-01       2.626767142543e+03 
       1.743942559171e-01       2.503701691661e+03 
       1.802263517371e-01       2.407260857251e+03 
       1.862533508214e-01       2.322175311242e+03 
       1.924818644494e-01       2.231474170927e+03 
       1.989186627765e-01       2.122117126021e+03 
       2.055707152847e-01       1.991948037824e+03 
       2.124452391818e-01       1.850250976899e+03 
       2.195497567139e-01       1.712098624975e+03 
       2.268921624510e-01       1.590906883480e+03 
       2.344808017550e-01       1.493590947292e+03 
       2.423245618548e-01       1.418230902534e+03 
       2.504329772620e-01       1.354392219457e+03 
       2.588163516754e-01       1.288861537912e+03 
       2.674858990930e-01       1.213864433353e+03 
       2.764539076010e-01       1.130620490438e+03 
       2.857339303080e-01       1.048026286986e+03 
       2.953410092148e-01       9.761123756786e+02 
       3.052919395542e-01       9.177392548647e+02 
       3.156055844677e-01       8.678250535620e+02 
       3.263032530092e-01       8.184555289049e+02 
       3.374091587054e-01       7.650769569566e+02 
       3.489509817175e-01       7.106030499228e+02 
       3.609605657343e-01       6.607172408830e+02 
       3.734747921333e-01       6.180157023295e+02 
       3.865366902904e-01       5.792453064786e+02 
       4.001968667448e-01       5.403234352762e+02 
       4.145153713076e-01       5.010853112413e+02 
       4.295641718077e-01       4.644335902535e+02 
       4.454304922144e-01       4.313426106852e+02 
       4.622214006969e-01       4.000506003880e+02 
       4.800702491654e-01       3.690274692714e+02 
       4.991459272112e-01       3.394134361202e+02 
       5.196665217302e-01       3.119255817616e+02 
       5.419201087032e-01       2.851870879685e+02 
       5.662975451962e-01       2.592732805426e+02 
       5.933463737275e-01       2.344914738989e+02 
       6.238638458458e-01       2.101749065195e+02 
       6.590669257916e-01       1.863800242625e+02 
       7.009246080454e-01       1.626729636609e+02 
       7.528593308799e-01       1.387686269241e+02 
       8.213469537518e-01       1.141408263970e+02 
       9.196980813302e-01       8.831506418810e+01 
       1.075112183810e+00       6.168608591818e+01 
       1.322697471132e+00       3.800841837449e+01 
       1.662328205042e+00       2.206912737547e+01 
       2.092692408506e+00       1.264540992927e+01 
       2.634543445090e+00       7.183815201270e+00 
       3.316693691389e+00       4.049304666720e+00 
       4.175469971226e+00       2.265880975911e+00 
       5.256605252960e+00       1.259196108713e+00 
       6.617673932723e+00       6.951028356007e-01 
       8.331157880872e+00       3.811610342699e-01 
       1.048830636590e+01       2.075819364688e-01 
       1.320399541071e+01       1.122167878649e-01 
       1.662284535976e+01       6.016077403232e-02 
       2.092692243973e+01       3.193649967991e-02 
       2.634543445002e+01       1.674843008646e-02 
       3.316693691389e+01       8.647508067304e-03 
       4.175469971226e+01       4.373776668095e-03 
       5.256605252960e+01       2.151264196801e-03 
       6.617673932723e+01       1.018089968395e-03 
