# Matter power spectrum P(k) at redshift z=99
# for k=1.04775e-05 to 67.6233 h/Mpc,
# number of wavenumbers equal to 246
#    1:k (h/Mpc)              2:P (Mpc/h)^3        
       1.047750691046e-05       7.261931005520e-03 
       1.131335172503e-05       7.820335333011e-03 
       1.221587619537e-05       8.421679867772e-03 
       1.319039970183e-05       9.069262350774e-03 
       1.424266597921e-05       9.766641061245e-03 
       1.537887696968e-05       1.051764463588e-02 
       1.660572937635e-05       1.132639800532e-02 
       1.793045413292e-05       1.219733789983e-02 
       1.936085902198e-05       1.313524825660e-02 
       2.090537469327e-05       1.414527543028e-02 
       2.257310435294e-05       1.523297125819e-02 
       2.437387741694e-05       1.640430185343e-02 
       2.631830744443e-05       1.766570377171e-02 
       2.841785469300e-05       1.902409602376e-02 
       3.068489366414e-05       2.048694013987e-02 
       3.313278603720e-05       2.206226522674e-02 
       3.577595942169e-05       2.375871760536e-02 
       3.862999239199e-05       2.558561866731e-02 
       4.171170630578e-05       2.755298995892e-02 
       4.503926444729e-05       2.967163286293e-02 
       4.863227907969e-05       3.195317920730e-02 
       5.251192703764e-05       3.441015108249e-02 
       5.670107454120e-05       3.705603414151e-02 
       6.122441196689e-05       3.990535270342e-02 
       6.610859936996e-05       4.297374136808e-02 
       7.138242361596e-05       4.627804269310e-02 
       7.707696804727e-05       4.983638475337e-02 
       8.322579568497e-05       5.366829357191e-02 
       8.986514704559e-05       5.779479054826e-02 
       9.703415373875e-05       6.223851162187e-02 
       1.047750691046e-04       6.702382931274e-02 
       1.131335172503e-04       7.217698416117e-02 
       1.221587619537e-04       7.772622625130e-02 
       1.319039970183e-04       8.370197183500e-02 
       1.424266597921e-04       9.013696770000e-02 
       1.537887696968e-04       9.706645665709e-02 
       1.660572937635e-04       1.045283830382e-01 
       1.793045413292e-04       1.125635858474e-01 
       1.936085902198e-04       1.212160165813e-01 
       2.090537469327e-04       1.305329724472e-01 
       2.257310435294e-04       1.405653482429e-01 
       2.437387741694e-04       1.513678985849e-01 
       2.631830744443e-04       1.629995234952e-01 
       2.841785469300e-04       1.755235709701e-01 
       3.068489366414e-04       1.890081516771e-01 
       3.313278603720e-04       2.035264905757e-01 
       3.577595942169e-04       2.191572776396e-01 
       3.862999239199e-04       2.359850484463e-01 
       4.171170630578e-04       2.541005856469e-01 
       4.503926444729e-04       2.736013271617e-01 
       4.863227907969e-04       2.945918061655e-01 
       5.251192703764e-04       3.171840878777e-01 
       5.670107454121e-04       3.414982195649e-01 
       6.122441196689e-04       3.676626937868e-01 
       6.610859936996e-04       3.958148863620e-01 
       7.138242361596e-04       4.261014988337e-01 
       7.707696804727e-04       4.586789569489e-01 
       8.322579568497e-04       4.937137866690e-01 
       8.986514704559e-04       5.313828721066e-01 
       9.703415373875e-04       5.718736962098e-01 
       1.047750691046e-03       6.153843654119e-01 
       1.131335172503e-03       6.621235268906e-01 
       1.221587619537e-03       7.123100207815e-01 
       1.319039970183e-03       7.661722490137e-01 
       1.424266597921e-03       8.239548076912e-01 
       1.537887696968e-03       8.859012704584e-01 
       1.660572937635e-03       9.522589107378e-01 
       1.793045413292e-03       1.023280144603e+00 
       1.936085902198e-03       1.099216250585e+00 
       2.090537469327e-03       1.180312800297e+00 
       2.257310435294e-03       1.266803731945e+00 
       2.437387741694e-03       1.358904203336e+00 
       2.631830744443e-03       1.456801669564e+00 
       2.841785469300e-03       1.560645383571e+00 
       3.068489366414e-03       1.670533887120e+00 
       3.313278603720e-03       1.786500775278e+00 
       3.577595942169e-03       1.908498637834e+00 
       3.862999239199e-03       2.036381796827e+00 
       4.171170630578e-03       2.169888095873e+00 
       4.503926444729e-03       2.308620747557e+00 
       4.863227907969e-03       2.452032122761e+00 
       5.251192703764e-03       2.599410018770e+00 
       5.670107454120e-03       2.749868948561e+00 
       6.122441196689e-03       2.902348678129e+00 
       6.610859936996e-03       3.055617381811e+00 
       7.138242361596e-03       3.208287502649e+00 
       7.707696804727e-03       3.358830926965e+00 
       8.322579568496e-03       3.505600569731e+00 
       8.986514704559e-03       3.646843584148e+00 
       9.703415373875e-03       3.780700886437e+00 
       1.047750691046e-02       3.905195066057e+00 
       1.131335172503e-02       4.018195609480e+00 
       1.221587619537e-02       4.117384938651e+00 
       1.319039970183e-02       4.200239404165e+00 
       1.424266597920e-02       4.264058916673e+00 
       1.537887696964e-02       4.306071531231e+00 
       1.660572937560e-02       4.323576035357e+00 
       1.793045412207e-02       4.314148853954e+00 
       1.936085889642e-02       4.275787208721e+00 
       2.090537351881e-02       4.207101536755e+00 
       2.257309534705e-02       4.107502322724e+00 
       2.437382002240e-02       3.977511836007e+00 
       2.631799943729e-02       3.819072086070e+00 
       2.841644544598e-02       3.635768573516e+00 
       3.067933354524e-02       3.433019561182e+00 
       3.311368469821e-02       3.218166329425e+00 
       3.571840442514e-02       3.000269033061e+00 
       3.847720347390e-02       2.789655164172e+00 
       4.135335537314e-02       2.596236054500e+00 
       4.429361666563e-02       2.427296282063e+00 
       4.724366437916e-02       2.285712638377e+00 
       5.016480834039e-02       2.169939414283e+00 
       5.303989618930e-02       2.075627798870e+00 
       5.586870668205e-02       1.997265449292e+00 
       5.866042679206e-02       1.929633552806e+00 
       6.142798931504e-02       1.868083874322e+00 
       6.418496438662e-02       1.808784870873e+00 
       6.694418832236e-02       1.748686968630e+00 
       6.971731104453e-02       1.685584814943e+00 
       7.251476154108e-02       1.618102107749e+00 
       7.534587669814e-02       1.545680229961e+00 
       7.821907664495e-02       1.468586150389e+00 
       8.114203771084e-02       1.387805126266e+00 
       8.412184533139e-02       1.304930886105e+00 
       8.716512277352e-02       1.221982426159e+00 
       9.027813693913e-02       1.141202661397e+00 
       9.346688429613e-02       1.064780422793e+00 
       9.673716026122e-02       9.946429236509e-01 
       1.000946150608e-01       9.322437587602e-01 
       1.035447986307e-01       8.783909029614e-01 
       1.070931966524e-01       8.331625696468e-01 
       1.107452594180e-01       7.958718602195e-01 
       1.145064248899e-01       7.650915000956e-01 
       1.183821370656e-01       7.387709284000e-01 
       1.223778605591e-01       7.144268689575e-01 
       1.264990921707e-01       6.894644318813e-01 
       1.307513701078e-01       6.615994309689e-01 
       1.351402814485e-01       6.293575602576e-01 
       1.396714683894e-01       5.924295106568e-01 
       1.443506337875e-01       5.518098171642e-01 
       1.491835464900e-01       5.096053254021e-01 
       1.541760469368e-01       4.685131989281e-01 
       1.593340535209e-01       4.311459810512e-01 
       1.646635701934e-01       3.993717499686e-01 
       1.701706958081e-01       3.738547535674e-01 
       1.758616357070e-01       3.539137426287e-01 
       1.817427160581e-01       3.376670689665e-01 
       1.878204014651e-01       3.227208444763e-01 
       1.941013163855e-01       3.064979502090e-01 
       2.005922709060e-01       2.873937684663e-01 
       2.073002914514e-01       2.655441563690e-01 
       2.142326570343e-01       2.426666545175e-01 
       2.213969417044e-01       2.210329329253e-01 
       2.288010639201e-01       2.024087042146e-01 
       2.364533436625e-01       1.874843162550e-01 
       2.443625682390e-01       1.756219977544e-01 
       2.525380678946e-01       1.651046635113e-01 
       2.609898025770e-01       1.541541542213e-01 
       2.697284614969e-01       1.419783893661e-01 
       2.787655775073e-01       1.290608546948e-01 
       2.881136588192e-01       1.167808997297e-01 
       2.977863412019e-01       1.063277046158e-01 
       3.077985646248e-01       9.776404873543e-02 
       3.181667793367e-01       9.024335133249e-02 
       3.289091877084e-01       8.275490274319e-02 
       3.400460298905e-01       7.493495405788e-02 
       3.515999235695e-01       6.731154753616e-02 
       3.635962710278e-01       6.053955678904e-02 
       3.760637505499e-01       5.477061209312e-02 
       3.890349143014e-01       4.951159818488e-02 
       4.025469215929e-01       4.436261097178e-02 
       4.166424455447e-01       3.938241699968e-02 
       4.313708034899e-01       3.488283540806e-02 
       4.467893781976e-01       3.090813872063e-02 
       4.629654198623e-01       2.725591819859e-02 
       4.799783500912e-01       2.379162794076e-02 
       4.979227318246e-01       2.061705360067e-02 
       5.169121269689e-01       1.779679973584e-02 
       5.370841403262e-01       1.521489229690e-02 
       5.586070463286e-01       1.284755796613e-02 
       5.816885093582e-01       1.073553065192e-02 
       6.065870143577e-01       8.841590450302e-03 
       6.336266466978e-01       7.147435399332e-03 
       6.632156057925e-01       5.659973990725e-03 
       6.958678637575e-01       4.360038734967e-03 
       7.322247983784e-01       3.247861291210e-03 
       7.730680193171e-01       2.315061570428e-03 
       8.193049551574e-01       1.559096560738e-03 
       8.718988013754e-01       9.736702653424e-04 
       9.317218028590e-01       5.492066920281e-04 
       9.993660906273e-01       2.682902407840e-04 
       1.075037109879e+00       1.045062602201e-04 
       1.158653485387e+00       2.591654092998e-05 
       1.250099156961e+00       1.051916023135e-06 
       1.349432400897e+00       4.061004128289e-06 
       1.456947456991e+00       1.697601209877e-05 
       1.573135110893e+00       2.922413953635e-05 
       1.698621895119e+00       3.602018932916e-05 
       1.834127512423e+00       3.649423475098e-05 
       1.980444933977e+00       3.201515101483e-05 
       2.138435191130e+00       2.481584312256e-05 
       2.309029198543e+00       1.706120403790e-05 
       2.493232376993e+00       1.030793787978e-05 
       2.692130394536e+00       5.336939320459e-06 
       2.906895533764e+00       2.241384576261e-06 
       3.138793596840e+00       6.685689914130e-07 
       3.389191365541e+00       8.760749136842e-08 
       3.659564656886e+00       4.074290013591e-09 
       3.951507021438e+00       7.545969175802e-08 
       4.266739135513e+00       1.310648372854e-07 
       4.607118942658e+00       1.283389340242e-07 
       4.974652604172e+00       8.866101261815e-08 
       5.371506323193e+00       4.488171220596e-08 
       5.800019112071e+00       1.567975306538e-08 
       6.262716578240e+00       2.910178318567e-09 
       6.762325809881e+00       3.009132367610e-11 
       7.301791449077e+00       4.018804573775e-10 
       7.884293047211e+00       7.519115819657e-10 
       8.513263804891e+00       5.561458932516e-10 
       9.192410806865e+00       2.299227856541e-10 
       9.925736871166e+00       4.875187937809e-11 
       1.071756414128e+01       2.183630006052e-12 
       1.157255956041e+01       9.852240736885e-13 
       1.249576237789e+01       1.632888127456e-12 
       1.349261385000e+01       3.277062084951e-13 
       1.456898931011e+01       4.119750092907e-14 
       1.573123279727e+01       3.991819807080e-13 
       1.698619444729e+01       4.930933011203e-13 
       1.834127086665e+01       3.552437556568e-13 
       1.980444872733e+01       2.066000646060e-13 
       2.138435183937e+01       1.310962376662e-13 
       2.309029197863e+01       9.820113584627e-14 
       2.493232376942e+01       7.855762089445e-14 
       2.692130394533e+01       6.172062529456e-14 
       2.906895533764e+01       4.729083201850e-14 
       3.138793596840e+01       3.506301019556e-14 
       3.389191365541e+01       2.572442871476e-14 
       3.659564656886e+01       1.898017516235e-14 
       3.951507021438e+01       1.386098380022e-14 
       4.266739135513e+01       1.003175077483e-14 
       4.607118942658e+01       7.140829503940e-15 
       4.974652604172e+01       5.078871709917e-15 
       5.371506323193e+01       3.609495149293e-15 
       5.800019112071e+01       2.566701135356e-15 
       6.262716578240e+01       1.815651189051e-15 
       6.762325809881e+01       1.328879940643e-15 
