# Matter power spectrum P(k) at redshift z=0
# for k=1.04775e-05 to 66.1767 h/Mpc,
# number of wavenumbers equal to 130
#    1:k (h/Mpc)              2:P (Mpc/h)^3        
       1.047750691046e-05       5.020964824760e+01 
       1.319039970183e-05       6.270563157200e+01 
       1.660572937635e-05       7.831148227444e+01 
       2.090537469327e-05       9.780106924229e+01 
       2.631830744443e-05       1.221408204643e+02 
       3.313278603720e-05       1.525374505696e+02 
       4.171170630578e-05       1.904976001564e+02 
       5.251192703764e-05       2.379022232886e+02 
       6.610859936996e-05       2.970989227169e+02 
       8.322579568497e-05       3.710167326431e+02 
       1.047750691046e-04       4.633080771012e+02 
       1.319039970183e-04       5.785234124472e+02 
       1.660572937635e-04       7.223242666084e+02 
       2.090537469327e-04       9.017396257858e+02 
       2.631830744443e-04       1.125468123491e+03 
       3.313278603720e-04       1.404223053605e+03 
       4.171170630578e-04       1.751108026931e+03 
       5.251192703764e-04       2.181998446328e+03 
       6.610859936996e-04       2.715889982534e+03 
       8.322579568497e-04       3.375152327976e+03 
       1.047750691046e-03       4.185552147712e+03 
       1.319039970183e-03       5.175742662459e+03 
       1.660572937635e-03       6.376122795575e+03 
       2.090537469327e-03       7.815671162616e+03 
       2.631830744443e-03       9.517780777166e+03 
       3.313278603720e-03       1.149356812437e+04 
       4.171170630578e-03       1.373264278756e+04 
       5.251192703764e-03       1.619058939026e+04 
       6.610859936996e-03       1.877448316043e+04 
       8.322579568497e-03       2.132577698573e+04 
       1.047750691046e-02       2.360477889380e+04 
       1.319039970183e-02       2.528056922913e+04 
       1.660572937633e-02       2.594669971985e+04 
       2.090537453514e-02       2.520181511673e+04 
       2.631818545635e-02       2.285544958699e+04 
       3.311571692125e-02       1.925909029011e+04 
       4.113809243311e-02       1.563996345853e+04 
       4.792590854610e-02       1.355086650344e+04 
       5.284436902701e-02       1.252025449759e+04 
       5.689644391095e-02       1.187548704762e+04 
       6.051252627066e-02       1.138776053887e+04 
       6.388413457411e-02       1.096159025501e+04 
       6.711249296401e-02       1.054895320388e+04 
       7.025823437965e-02       1.012427375428e+04 
       7.336115587705e-02       9.675146013764e+03 
       7.644928796912e-02       9.198512456996e+03 
       7.954353299775e-02       8.698092785048e+03 
       8.266024078725e-02       8.182775111658e+03 
       8.581273398637e-02       7.664932949226e+03 
       8.901225918437e-02       7.158620853728e+03 
       9.226860540985e-02       6.677995133229e+03 
       9.559052048996e-02       6.235770775079e+03 
       9.898599946599e-02       5.841503339066e+03 
       1.024624891378e-01       5.501029596048e+03 
       1.060270359164e-01       5.215647501555e+03 
       1.096863943056e-01       4.981823627968e+03 
       1.134471073830e-01       4.791407048247e+03 
       1.173155669539e-01       4.632283328106e+03 
       1.212980586983e-01       4.489308864145e+03 
       1.254007961065e-01       4.346147713523e+03 
       1.296299459934e-01       4.187877779922e+03 
       1.339916477160e-01       4.003768777512e+03 
       1.384920277736e-01       3.789957322607e+03 
       1.431372111762e-01       3.550583010267e+03 
       1.479333307714e-01       3.297238401036e+03 
       1.528865355934e-01       3.046063236541e+03 
       1.580029992204e-01       2.813776823789e+03 
       1.632889290723e-01       2.613578596626e+03 
       1.687505775527e-01       2.451651650396e+03 
       1.743942559171e-01       2.325926836285e+03 
       1.802263517371e-01       2.226162596050e+03 
       1.862533508214e-01       2.137818979073e+03 
       1.924818644494e-01       2.044584982722e+03 
       1.989186627765e-01       1.933999790723e+03 
       2.055707152847e-01       1.804053792158e+03 
       2.124452391818e-01       1.663574277288e+03 
       2.195497567139e-01       1.526886576511e+03 
       2.268921624510e-01       1.406632682964e+03 
       2.344808017550e-01       1.309244160924e+03 
       2.423245618548e-01       1.232849102998e+03 
       2.504329772620e-01       1.167691932989e+03 
       2.588163516754e-01       1.101510314927e+03 
       2.674858990930e-01       1.027126715566e+03 
       2.764539076010e-01       9.456820228184e+02 
       2.857339303080e-01       8.653298887925e+02 
       2.953410092148e-01       7.951409629281e+02 
       3.052919395542e-01       7.376510331456e+02 
       3.156055844677e-01       6.882560898349e+02 
       3.263032530092e-01       6.398871270626e+02 
       3.374091587054e-01       5.885194558546e+02 
       3.489509817175e-01       5.367179984399e+02 
       3.609605657343e-01       4.894027760892e+02 
       3.734747921333e-01       4.487720058347e+02 
       3.865366902904e-01       4.120108385848e+02 
       4.001968667448e-01       3.756746311889e+02 
       4.145153713076e-01       3.396079899251e+02 
       4.295641718077e-01       3.061976877988e+02 
       4.454304922144e-01       2.762078289677e+02 
       4.622214006969e-01       2.482069113055e+02 
       4.800702491654e-01       2.209837300015e+02 
       4.991459272112e-01       1.954150317066e+02 
       5.196665217302e-01       1.720381265253e+02 
       5.419201087032e-01       1.498296982278e+02 
       5.662975451962e-01       1.288496203183e+02 
       5.933463737275e-01       1.093419796621e+02 
       6.238638458458e-01       9.088466844246e+01 
       6.590669257916e-01       7.357971383516e+01 
       7.009246080454e-01       5.726825629659e+01 
       7.528593308799e-01       4.198047584887e+01 
       8.213469537518e-01       2.778825574063e+01 
       9.196980813302e-01       1.515080974680e+01 
       1.075112183810e+00       5.434033981905e+00 
       1.322697471132e+00       7.082978039616e-01 
       1.662328205042e+00       1.079281291628e-02 
       2.092692408506e+00       2.078458983385e-01 
       2.634543445090e+00       1.688570182529e-01 
       3.316693691389e+00       4.189228562450e-02 
       4.175469971226e+00       8.918789960542e-04 
       5.256605252960e+00       1.136925166859e-03 
       6.617673932723e+00       4.288592707011e-04 
       8.331157880872e+00       2.454837319521e-08 
       1.048830636590e+01       6.226720330150e-06 
       1.320399541071e+01       1.238079029406e-11 
       1.662284535976e+01       7.632440177214e-09 
       2.092692243973e+01       3.605984670179e-09 
       2.634543445002e+01       5.060482944923e-10 
       3.316693691389e+01       2.914653787436e-10 
       4.175469971226e+01       1.169181347783e-10 
       5.256605252960e+01       4.574004436446e-11 
       6.617673932723e+01       1.670280504656e-11 
