# Matter power spectrum P(k) at redshift z=99
# for k=1.04775e-05 to 66.1767 h/Mpc,
# number of wavenumbers equal to 130
#    1:k (h/Mpc)              2:P (Mpc/h)^3        
       1.047750691046e-05       7.261928525953e-03 
       1.319039970183e-05       9.069259260983e-03 
       1.660572937635e-05       1.132639414666e-02 
       2.090537469327e-05       1.414527290282e-02 
       2.631830744443e-05       1.766569775031e-02 
       3.313278603720e-05       2.206225771924e-02 
       4.171170630578e-05       2.755298084455e-02 
       5.251192703764e-05       3.441013922942e-02 
       6.610859936996e-05       4.297372671997e-02 
       8.322579568497e-05       5.366827475893e-02 
       1.047750691046e-04       6.702380650896e-02 
       1.319039970183e-04       8.370194479537e-02 
       1.660572937635e-04       1.045283476199e-01 
       2.090537469327e-04       1.305329284189e-01 
       2.631830744443e-04       1.629994687545e-01 
       3.313278603720e-04       2.035264234742e-01 
       4.171170630578e-04       2.541005027222e-01 
       5.251192703764e-04       3.171839871556e-01 
       6.610859936996e-04       3.958147664659e-01 
       8.322579568497e-04       4.937136476533e-01 
       1.047750691046e-03       6.153842143511e-01 
       1.319039970183e-03       7.661721062950e-01 
       1.660572937635e-03       9.522588265385e-01 
       2.090537469327e-03       1.180312928259e+00 
       2.631830744443e-03       1.456802374756e+00 
       3.313278603720e-03       1.786502905574e+00 
       4.171170630578e-03       2.169893685548e+00 
       5.251192703764e-03       2.599424009359e+00 
       6.610859936996e-03       3.055651793151e+00 
       8.322579568497e-03       3.505683184129e+00 
       1.047750691046e-02       3.905389755250e+00 
       1.319039970183e-02       4.200677888105e+00 
       1.660572937633e-02       4.324523247186e+00 
       2.090537453514e-02       4.209042253463e+00 
       2.631818545635e-02       3.822807501726e+00 
       3.311571692125e-02       3.224678378155e+00 
       4.113809243311e-02       2.620376059441e+00 
       4.792590854610e-02       2.270675360331e+00 
       5.284436902701e-02       2.097891455683e+00 
       5.689644391095e-02       1.989632495525e+00 
       6.051252627066e-02       1.907649267440e+00 
       6.388413457411e-02       1.835977944052e+00 
       6.711249296401e-02       1.766579017101e+00 
       7.025823437965e-02       1.695169314810e+00 
       7.336115587705e-02       1.619675814134e+00 
       7.644928796912e-02       1.539577003214e+00 
       7.954353299775e-02       1.455491443627e+00 
       8.266024078725e-02       1.368906822482e+00 
       8.581273398637e-02       1.281885355647e+00 
       8.901225918437e-02       1.196778870837e+00 
       9.226860540985e-02       1.115956365777e+00 
       9.559052048996e-02       1.041530178026e+00 
       9.898599946599e-02       9.751161263254e-01 
       1.024624891378e-01       9.176885436163e-01 
       1.060270359164e-01       8.694537856093e-01 
       1.096863943056e-01       8.298286494025e-01 
       1.134471073830e-01       7.974617957026e-01 
       1.173155669539e-01       7.703216323789e-01 
       1.212980586983e-01       7.458860110912e-01 
       1.254007961065e-01       7.214407411695e-01 
       1.296299459934e-01       6.944939768552e-01 
       1.339916477160e-01       6.632587300532e-01 
       1.384920277736e-01       6.270892506142e-01 
       1.431372111762e-01       5.866804641643e-01 
       1.479333307714e-01       5.439536671262e-01 
       1.528865355934e-01       5.015952721793e-01 
       1.580029992204e-01       4.623878426134e-01 
       1.632889290723e-01       4.285170879790e-01 
       1.687505775527e-01       4.010058873637e-01 
       1.743942559171e-01       3.795071132282e-01 
       1.802263517371e-01       3.623369601751e-01 
       1.862533508214e-01       3.470822806350e-01 
       1.924818644494e-01       3.310628143723e-01 
       1.989186627765e-01       3.122245043727e-01 
       2.055707152847e-01       2.902389405507e-01 
       2.124452391818e-01       2.665587479486e-01 
       2.195497567139e-01       2.435375648207e-01 
       2.268921624510e-01       2.232396868737e-01 
       2.344808017550e-01       2.067134969599e-01 
       2.423245618548e-01       1.936525498266e-01 
       2.504329772620e-01       1.824626346830e-01 
       2.588163516754e-01       1.711630136251e-01 
       2.674858990930e-01       1.585947860471e-01 
       2.764539076010e-01       1.449466776325e-01 
       2.857339303080e-01       1.315266099953e-01 
       2.953410092148e-01       1.197851687037e-01 
       3.052919395542e-01       1.101200646437e-01 
       3.156055844677e-01       1.017984729497e-01 
       3.263032530092e-01       9.370189675290e-02 
       3.374091587054e-01       8.520102994270e-02 
       3.489509817175e-01       7.669727661580e-02 
       3.609605657343e-01       6.895409877356e-02 
       3.734747921333e-01       6.230616485871e-02 
       3.865366902904e-01       5.631861390553e-02 
       4.001968667448e-01       5.046646982197e-02 
       4.145153713076e-01       4.472750497922e-02 
       4.295641718077e-01       3.945646063100e-02 
       4.454304922144e-01       3.476416052777e-02 
       4.622214006969e-01       3.043878123854e-02 
       4.800702491654e-01       2.630499826653e-02 
       4.991459272112e-01       2.248741542991e-02 
       5.196665217302e-01       1.906039435944e-02 
       5.419201087032e-01       1.588301556866e-02 
       5.662975451962e-01       1.296463376864e-02 
       5.933463737275e-01       1.033990680229e-02 
       6.238638458458e-01       7.958831380712e-03 
       6.590669257916e-01       5.842098076176e-03 
       7.009246080454e-01       3.983511327216e-03 
       7.528593308799e-01       2.407250552748e-03 
       8.213469537518e-01       1.154410900406e-03 
       9.196980813302e-01       3.137687834732e-04 
       1.075112183810e+00       1.853418238438e-06 
       1.322697471132e+00       1.034291775835e-04 
       1.662328205042e+00       1.445418640807e-04 
       2.092692408506e+00       5.285277737190e-05 
       2.634543445090e+00       2.695841336767e-06 
       3.316693691389e+00       1.093928613732e-06 
       4.175469971226e+00       6.378854082580e-07 
       5.256605252960e+00       2.917834927550e-10 
       6.617673932723e+00       1.159390342335e-08 
       8.331157880872e+00       1.522295775939e-10 
       1.048830636590e+01       3.084213737868e-12 
       1.320399541071e+01       1.902572005053e-12 
       1.662284535976e+01       3.730559015081e-14 
       2.092692243973e+01       2.194499991316e-14 
       2.634543445002e+01       3.617951165053e-15 
       3.316693691389e+01       2.129837123348e-16 
       4.175469971226e+01       3.307587209677e-18 
       5.256605252960e+01       3.165551732813e-18 
       6.617673932723e+01       3.517726636295e-19 
