# Matter power spectrum P(k) at redshift z=99
# for k=1.04775e-05 to 66.1767 h/Mpc,
# number of wavenumbers equal to 130
#    1:k (h/Mpc)              2:P (Mpc/h)^3        
       1.047750691046e-05       7.262990038714e-03 
       1.319039970183e-05       9.070584620474e-03 
       1.660572937635e-05       1.132804822288e-02 
       2.090537469327e-05       1.414733881261e-02 
       2.631830744443e-05       1.766827656553e-02 
       3.313278603720e-05       2.206547825195e-02 
       4.171170630578e-05       2.755700358404e-02 
       5.251192703764e-05       3.441516297894e-02 
       6.610859936996e-05       4.297999902007e-02 
       8.322579568497e-05       5.367610275079e-02 
       1.047750691046e-04       6.703357270316e-02 
       1.319039970183e-04       8.371412246401e-02 
       1.660572937635e-04       1.045435173785e-01 
       2.090537469327e-04       1.305517956095e-01 
       2.631830744443e-04       1.630228789399e-01 
       3.313278603720e-04       2.035553564362e-01 
       4.171170630578e-04       2.541360320348e-01 
       5.251192703764e-04       3.172271589954e-01 
       6.610859936996e-04       3.958662897176e-01 
       8.322579568497e-04       4.937731982117e-01 
       1.047750691046e-03       6.154489207836e-01 
       1.319039970183e-03       7.662332424586e-01 
       1.660572937635e-03       9.522942944716e-01 
       2.090537469327e-03       1.180269490284e+00 
       2.631830744443e-03       1.456557718416e+00 
       3.313278603720e-03       1.785772465445e+00 
       4.171170630578e-03       2.168005252108e+00 
       5.251192703764e-03       2.594773893367e+00 
       6.610859936996e-03       3.044437343119e+00 
       8.322579568497e-03       3.479153203541e+00 
       1.047750691046e-02       3.844452366336e+00 
       1.319039970183e-02       4.066478182565e+00 
       1.660572937633e-02       4.044002335234e+00 
       2.090537453514e-02       3.659624781060e+00 
       2.631818545635e-02       2.838301125646e+00 
       3.311571692125e-02       1.673035450024e+00 
       4.113809243311e-02       6.045976320490e-01 
       4.792590854610e-02       1.371100244697e-01 
       5.284436902701e-02       1.494463096018e-02 
       5.689644391095e-02       1.788064374434e-03 
       6.051252627066e-02       2.416771466819e-02 
       6.388413457411e-02       5.367977259569e-02 
       6.711249296401e-02       7.774190957825e-02 
       7.025823437965e-02       9.114884914555e-02 
       7.336115587705e-02       9.283718392843e-02 
       7.644928796912e-02       8.428490505399e-02 
       7.954353299775e-02       6.848845467836e-02 
       8.266024078725e-02       4.915286609041e-02 
       8.581273398637e-02       3.001076124495e-02 
       8.901225918437e-02       1.423084004029e-02 
       9.226860540985e-02       3.961412038079e-03 
       9.559052048996e-02       5.280282131679e-05 
       9.898599946599e-02       1.998476958914e-03 
       1.024624891378e-01       8.123548852644e-03 
       1.060270359164e-01       1.600073423600e-02 
       1.096863943056e-01       2.302965392239e-02 
       1.134471073830e-01       2.706525502142e-02 
       1.173155669539e-01       2.694988697120e-02 
       1.212980586983e-01       2.280241267019e-02 
       1.254007961065e-01       1.595532281302e-02 
       1.296299459934e-01       8.529448555896e-03 
       1.339916477160e-01       2.732472015178e-03 
       1.384920277736e-01       9.814734835895e-05 
       1.431372111762e-01       9.320022236524e-04 
       1.479333307714e-01       4.205355710234e-03 
       1.528865355934e-01       7.985984118191e-03 
       1.580029992204e-01       1.027986689158e-02 
       1.632889290723e-01       9.936921750035e-03 
       1.687505775527e-01       7.187818272081e-03 
       1.743942559171e-01       3.491046474605e-03 
       1.802263517371e-01       7.121922670029e-04 
       1.862533508214e-01       5.097727051787e-05 
       1.924818644494e-01       1.352570322138e-03 
       1.989186627765e-01       3.265663780928e-03 
       2.055707152847e-01       4.199037406037e-03 
       2.124452391818e-01       3.461745735433e-03 
       2.195497567139e-01       1.692577089016e-03 
       2.268921624510e-01       2.598387826168e-04 
       2.344808017550e-01       9.979861632957e-05 
       2.423245618548e-01       9.361012880234e-04 
       2.504329772620e-01       1.653868691738e-03 
       2.588163516754e-01       1.455867196003e-03 
       2.674858990930e-01       6.077370084490e-04 
       2.764539076010e-01       2.734308222307e-05 
       2.857339303080e-01       1.738713034789e-04 
       2.953410092148e-01       5.908061835307e-04 
       3.052919395542e-01       6.080239074498e-04 
       3.156055844677e-01       2.298626117084e-04 
       3.263032530092e-01       7.176710603237e-07 
       3.374091587054e-01       1.305470902528e-04 
       3.489509817175e-01       2.571897769033e-04 
       3.609605657343e-01       1.354621434630e-04 
       3.734747921333e-01       3.099465877819e-06 
       3.865366902904e-01       5.047095619947e-05 
       4.001968667448e-01       9.230673147498e-05 
       4.145153713076e-01       2.535192759487e-05 
       4.295641718077e-01       4.488986952737e-06 
       4.454304922144e-01       3.361617960294e-05 
       4.622214006969e-01       1.222876630147e-05 
       4.800702491654e-01       2.019081569100e-06 
       4.991459272112e-01       1.110954093871e-05 
       5.196665217302e-01       6.251850577083e-07 
       5.419201087032e-01       3.364762728297e-06 
       5.662975451962e-01       6.558026799561e-07 
       5.933463737275e-01       1.066239167455e-06 
       6.238638458458e-01       9.209852672737e-09 
       6.590669257916e-01       2.146913738484e-07 
       7.009246080454e-01       8.843517508524e-08 
       7.528593308799e-01       2.571934397725e-08 
       8.213469537518e-01       1.339408972653e-09 
       9.196980813302e-01       1.720839783982e-10 
       1.075112183810e+00       3.075574639646e-12 
       1.322697471132e+00       1.885298701723e-15 
       1.662328205042e+00       3.454292099252e-13 
       2.092692408506e+00       5.097272574373e-14 
       2.634543445090e+00       7.083677286821e-15 
       3.316693691389e+00       7.719947592980e-17 
       4.175469971226e+00       9.258651337768e-16 
       5.256605252960e+00       1.733093966512e-16 
       6.617673932723e+00       6.451530945694e-18 
       8.331157880872e+00       3.828370707415e-18 
       1.048830636590e+01       1.285525581584e-19 
       1.320399541071e+01       3.608102870883e-19 
       1.662284535976e+01       1.054581583725e-19 
       2.092692243973e+01       1.057885295782e-20 
       2.634543445002e+01       3.667318853832e-20 
       3.316693691389e+01       8.412619125401e-22 
       4.175469971226e+01       1.813795046687e-21 
       5.256605252960e+01       2.871993168955e-22 
       6.617673932723e+01       4.618176939821e-22 
