# Matter power spectrum P(k) at redshift z=0
# for k=1.04775e-05 to 67.6233 h/Mpc,
# number of wavenumbers equal to 246
#    1:k (h/Mpc)              2:P (Mpc/h)^3        
       1.047750691046e-05       5.020963120331e+01 
       1.131335172503e-05       5.407049339518e+01 
       1.221587619537e-05       5.822819386595e+01 
       1.319039970183e-05       6.270560726997e+01 
       1.424266597921e-05       6.752730839414e+01 
       1.537887696968e-05       7.271976085251e+01 
       1.660572937635e-05       7.831146677433e+01 
       1.793045413292e-05       8.433312292781e+01 
       1.936085902198e-05       9.081778790652e+01 
       2.090537469327e-05       9.780107480678e+01 
       2.257310435294e-05       1.053212860558e+02 
       2.437387741694e-05       1.134197356413e+02 
       2.631830744443e-05       1.221408132985e+02 
       2.841785469300e-05       1.315324493742e+02 
       3.068489366414e-05       1.416461527473e+02 
       3.313278603720e-05       1.525374347381e+02 
       3.577595942169e-05       1.642660407336e+02 
       3.862999239199e-05       1.768963406493e+02 
       4.171170630578e-05       1.904975939496e+02 
       4.503926444729e-05       2.051444187812e+02 
       4.863227907969e-05       2.209171361282e+02 
       5.251192703764e-05       2.379022215010e+02 
       5.670107454120e-05       2.561927789044e+02 
       6.122441196689e-05       2.758890453518e+02 
       6.610859936996e-05       2.970989214747e+02 
       7.138242361596e-05       3.199385568066e+02 
       7.707696804727e-05       3.445329737675e+02 
       8.322579568497e-05       3.710167328759e+02 
       8.986514704559e-05       3.995346458993e+02 
       9.703415373875e-05       4.302425401536e+02 
       1.047750691046e-04       4.633080774869e+02 
       1.131335172503e-04       4.989116278077e+02 
       1.221587619537e-04       5.372471947011e+02 
       1.319039970183e-04       5.785234108001e+02 
       1.424266597921e-04       6.229645927335e+02 
       1.537887696968e-04       6.708118477101e+02 
       1.660572937635e-04       7.223242649730e+02 
       1.793045413292e-04       7.777801521949e+02 
       1.936085902198e-04       8.374783556751e+02 
       2.090537469327e-04       9.017396179743e+02 
       2.257310435294e-04       9.709080141301e+02 
       2.437387741694e-04       1.045352428796e+03 
       2.631830744443e-04       1.125468093825e+03 
       2.841785469300e-04       1.211678137261e+03 
       3.068489366414e-04       1.304435186219e+03 
       3.313278603720e-04       1.404222961408e+03 
       3.577595942169e-04       1.511557886271e+03 
       3.862999239199e-04       1.626990647394e+03 
       4.171170630578e-04       1.751107751009e+03 
       4.503926444729e-04       1.884532979831e+03 
       4.863227907969e-04       2.027928799231e+03 
       5.251192703764e-04       2.181997612445e+03 
       5.670107454121e-04       2.347482893205e+03 
       6.122441196689e-04       2.525170130333e+03 
       6.610859936996e-04       2.715887473698e+03 
       7.138242361596e-04       2.920506073902e+03 
       7.707696804727e-04       3.139939896694e+03 
       8.322579568497e-04       3.375144865629e+03 
       8.986514704559e-04       3.627117114004e+03 
       9.703415373875e-04       3.896890084107e+03 
       1.047750691046e-03       4.185530178638e+03 
       1.131335172503e-03       4.494131001295e+03 
       1.221587619537e-03       4.823805871609e+03 
       1.319039970183e-03       5.175678847686e+03 
       1.424266597921e-03       5.550928242578e+03 
       1.537887696968e-03       5.950657777835e+03 
       1.660572937635e-03       6.375937152596e+03 
       1.793045413292e-03       6.827809903188e+03 
       1.936085902198e-03       7.307251702208e+03 
       2.090537469327e-03       7.815144124533e+03 
       2.257310435294e-03       8.352247317660e+03 
       2.437387741694e-03       8.919167517970e+03 
       2.631830744443e-03       9.516321530914e+03 
       2.841785469300e-03       1.014389586760e+04 
       3.068489366414e-03       1.080180120942e+04 
       3.313278603720e-03       1.148962489707e+04 
       3.577595942169e-03       1.220656669403e+04 
       3.862999239199e-03       1.295137415496e+04 
       4.171170630578e-03       1.372226730579e+04 
       4.503926444729e-03       1.451686014407e+04 
       4.863227907969e-03       1.533205262526e+04 
       5.251192703764e-03       1.616406711968e+04 
       5.670107454120e-03       1.700823527786e+04 
       6.122441196689e-03       1.785874683032e+04 
       6.610859936996e-03       1.870881261638e+04 
       7.138242361596e-03       1.955038375293e+04 
       7.707696804727e-03       2.037401918351e+04 
       8.322579568496e-03       2.116878250679e+04 
       8.986514704559e-03       2.192193847095e+04 
       9.703415373875e-03       2.261901992754e+04 
       1.047750691046e-02       2.324353951511e+04 
       1.131335172503e-02       2.377694978334e+04 
       1.221587619537e-02       2.419844940717e+04 
       1.319039970183e-02       2.448532229204e+04 
       1.424266597920e-02       2.461281280460e+04 
       1.537887696964e-02       2.455488554721e+04 
       1.660572937560e-02       2.428449132864e+04 
       1.793045412207e-02       2.377526242943e+04 
       1.936085889642e-02       2.300291830400e+04 
       2.090537351881e-02       2.194763962600e+04 
       2.257309534705e-02       2.059730411592e+04 
       2.437382002240e-02       1.895120906196e+04 
       2.631799943729e-02       1.702501674294e+04 
       2.841644544598e-02       1.485544503335e+04 
       3.067933354524e-02       1.250516311267e+04 
       3.311368469821e-02       1.006780694627e+04 
       3.571840442514e-02       7.667048753205e+03 
       3.847720347390e-02       5.448283846990e+03 
       4.135335537314e-02       3.551790873319e+03 
       4.429361666563e-02       2.074524768862e+03 
       4.724366437916e-02       1.041348624053e+03 
       5.016480834039e-02       4.083389191987e+02 
       5.303989618930e-02       9.220563679843e+01 
       5.586870668205e-02       2.992592770862e-01 
       5.866042679206e-02       4.834311036870e+01 
       6.142798931504e-02       1.673160256347e+02 
       6.418496438662e-02       3.046675890199e+02 
       6.694418832236e-02       4.235660985299e+02 
       6.971731104453e-02       5.013098654225e+02 
       7.251476154108e-02       5.277512377146e+02 
       7.534587669814e-02       5.032636800844e+02 
       7.821907664495e-02       4.365543238544e+02 
       8.114203771084e-02       3.420360070045e+02 
       8.412184533139e-02       2.369996791356e+02 
       8.716512277352e-02       1.386387489196e+02 
       9.027813693913e-02       6.128618613287e+01 
       9.346688429613e-02       1.417297584011e+01 
       9.673716026122e-02       4.181900941787e-02 
       1.000946150608e-01       1.495752573807e+01 
       1.035447986307e-01       4.936554591677e+01 
       1.070931966524e-01       9.035719277813e+01 
       1.107452594180e-01       1.247222703580e+02 
       1.145064248899e-01       1.421526211032e+02 
       1.183821370656e-01       1.378084490271e+02 
       1.223778605591e-01       1.134861406920e+02 
       1.264990921707e-01       7.693103505200e+01 
       1.307513701078e-01       3.930227306912e+01 
       1.351402814485e-01       1.144724244225e+01 
       1.396714683894e-01       1.546671133658e-01 
       1.443506337875e-01       5.770625973382e+00 
       1.491835464900e-01       2.223226072632e+01 
       1.541760469368e-01       3.971525281973e+01 
       1.593340535209e-01       4.897117999984e+01 
       1.646635701934e-01       4.549688638122e+01 
       1.701706958081e-01       3.147844983517e+01 
       1.758616357070e-01       1.433892684837e+01 
       1.817427160581e-01       2.471888146155e+00 
       1.878204014651e-01       4.464893203804e-01 
       1.941013163855e-01       6.580095524134e+00 
       2.005922709060e-01       1.444327398940e+01 
       2.073002914514e-01       1.749163249389e+01 
       2.142326570343e-01       1.363796556126e+01 
       2.213969417044e-01       6.199482596853e+00 
       2.288010639201e-01       7.766146833035e-01 
       2.364533436625e-01       5.277792246474e-01 
       2.443625682390e-01       3.740558474343e+00 
       2.525380678946e-01       6.080465608943e+00 
       2.609898025770e-01       5.012057098465e+00 
       2.697284614969e-01       1.930039468359e+00 
       2.787655775073e-01       6.093122470975e-02 
       2.881136588192e-01       6.156676242256e-01 
       2.977863412019e-01       1.871597413738e+00 
       3.077985646248e-01       1.806315185839e+00 
       3.181667793367e-01       6.462169346153e-01 
       3.289091877084e-01       1.630493348505e-03 
       3.400460298905e-01       3.437212161074e-01 
       3.515999235695e-01       6.533152465592e-01 
       3.635962710278e-01       3.458406502525e-01 
       3.760637505499e-01       1.293228057429e-02 
       3.890349143014e-01       9.352015078367e-02 
       4.025469215929e-01       1.924223282838e-01 
       4.166424455447e-01       6.727718693548e-02 
       4.313708034899e-01       1.823423980348e-03 
       4.467893781976e-01       5.091638509638e-02 
       4.629654198623e-01       3.200928360322e-02 
       4.799783500912e-01       1.231435933079e-06 
       4.979227318246e-01       1.307310018357e-02 
       5.169121269689e-01       5.955074662355e-03 
       5.370841403262e-01       6.398967887008e-04 
       5.586070463286e-01       3.176066686956e-03 
       5.816885093582e-01       2.444780384634e-05 
       6.065870143577e-01       7.746453921451e-04 
       6.336266466978e-01       1.097159174579e-05 
       6.632156057925e-01       1.541712105747e-04 
       6.958678637575e-01       3.301100269522e-06 
       7.322247983784e-01       5.070863467742e-06 
       7.730680193171e-01       4.937167784785e-06 
       8.193049551574e-01       6.416015459422e-07 
       8.718988013754e-01       4.471191949576e-08 
       9.317218028590e-01       7.569332458221e-09 
       9.993660906273e-01       4.881372084876e-08 
       1.075037109879e+00       4.348879121319e-10 
       1.158653485387e+00       1.041587713659e-11 
       1.250099156961e+00       1.281035239506e-08 
       1.349432400897e+00       2.693388826016e-09 
       1.456947456991e+00       4.253797015630e-10 
       1.573135110893e+00       1.520110347381e-09 
       1.698621895119e+00       8.007051713061e-12 
       1.834127512423e+00       4.710895831290e-10 
       1.980444933977e+00       8.024424510145e-11 
       2.138435191130e+00       1.398500977122e-11 
       2.309029198543e+00       7.233357598732e-10 
       2.493232376993e+00       7.921261238556e-13 
       2.692130394536e+00       1.126148629014e-13 
       2.906895533764e+00       1.505018982853e-11 
       3.138793596840e+00       1.590835278015e-11 
       3.389191365541e+00       2.534261490031e-11 
       3.659564656886e+00       5.645277129018e-12 
       3.951507021438e+00       6.509900967833e-12 
       4.266739135513e+00       1.035836155898e-13 
       4.607118942658e+00       5.339847069539e-13 
       4.974652604172e+00       1.736224175089e-12 
       5.371506323193e+00       5.841559588536e-14 
       5.800019112071e+00       2.378131536767e-14 
       6.262716578240e+00       9.389569257652e-15 
       6.762325809881e+00       4.499048044837e-13 
       7.301791449077e+00       2.092114270608e-13 
       7.884293047211e+00       1.763591528070e-13 
       8.513263804891e+00       6.394720067733e-16 
       9.192410806865e+00       4.329508178830e-14 
       9.925736871166e+00       1.920966811651e-15 
       1.071756414128e+01       5.584371547604e-15 
       1.157255956041e+01       4.938042527589e-14 
       1.249576237789e+01       3.686653783888e-14 
       1.349261385000e+01       1.797169273414e-14 
       1.456898931011e+01       3.201186983723e-15 
       1.573123279727e+01       9.182191499702e-16 
       1.698619444729e+01       2.045557369516e-15 
       1.834127086665e+01       2.320993468608e-15 
       1.980444872733e+01       7.954185715860e-16 
       2.138435183937e+01       6.886097139435e-16 
       2.309029197863e+01       7.223019333022e-16 
       2.493232376942e+01       6.337009487727e-16 
       2.692130394533e+01       3.725838898628e-16 
       2.906895533764e+01       3.865106451420e-17 
       3.138793596840e+01       1.102069769297e-16 
       3.389191365541e+01       4.356534794240e-17 
       3.659564656886e+01       7.452561882269e-18 
       3.951507021438e+01       2.690783709121e-17 
       4.266739135513e+01       1.847258889753e-17 
       4.607118942658e+01       1.749058556121e-17 
       4.974652604172e+01       4.162583885636e-19 
       5.371506323193e+01       2.084192525895e-18 
       5.800019112071e+01       2.000788501665e-18 
       6.262716578240e+01       1.389281415084e-18 
       6.762325809881e+01       4.374249583637e-19 
