# Matter power spectrum P(k) at redshift z=99
# for k=1.04775e-05 to 66.1767 h/Mpc,
# number of wavenumbers equal to 130
#    1:k (h/Mpc)              2:P (Mpc/h)^3        
       1.047750691046e-05       7.261929324943e-03 
       1.319039970183e-05       9.069260253013e-03 
       1.660572937635e-05       1.132639539114e-02 
       2.090537469327e-05       1.414527215783e-02 
       2.631830744443e-05       1.766569969292e-02 
       3.313278603720e-05       2.206226013827e-02 
       4.171170630578e-05       2.755298384389e-02 
       5.251192703764e-05       3.441014300480e-02 
       6.610859936996e-05       4.297373144093e-02 
       8.322579568497e-05       5.366828120090e-02 
       1.047750691046e-04       6.702381386003e-02 
       1.319039970183e-04       8.370195429106e-02 
       1.660572937635e-04       1.045283590442e-01 
       2.090537469327e-04       1.305329426110e-01 
       2.631830744443e-04       1.629994862006e-01 
       3.313278603720e-04       2.035264448060e-01 
       4.171170630578e-04       2.541005291491e-01 
       5.251192703764e-04       3.171840195500e-01 
       6.610859936996e-04       3.958148047380e-01 
       8.322579568497e-04       4.937136922324e-01 
       1.047750691046e-03       6.153842625741e-01 
       1.319039970183e-03       7.661721512986e-01 
       1.660572937635e-03       9.522588511521e-01 
       2.090537469327e-03       1.180312874128e+00 
       2.631830744443e-03       1.456802091066e+00 
       3.313278603720e-03       1.786502034681e+00 
       4.171170630578e-03       2.169891290600e+00 
       5.251192703764e-03       2.599417941221e+00 
       6.610859936996e-03       3.055636554724e+00 
       8.322579568497e-03       3.505644788297e+00 
       1.047750691046e-02       3.905295662433e+00 
       1.319039970183e-02       4.200461748703e+00 
       1.660572937633e-02       4.324041436892e+00 
       2.090537453514e-02       4.208012115109e+00 
       2.631818545635e-02       3.820737255464e+00 
       3.311571692125e-02       3.220801070063e+00 
       4.113809243311e-02       2.613934278920e+00 
       4.792590854610e-02       2.261856503969e+00 
       5.284436902701e-02       2.087308417059e+00 
       5.689644391095e-02       1.977597713659e+00 
       6.051252627066e-02       1.894361946277e+00 
       6.388413457411e-02       1.821576037440e+00 
       6.711249296401e-02       1.751181641967e+00 
       7.025823437965e-02       1.678874938238e+00 
       7.336115587705e-02       1.602572079390e+00 
       7.644928796912e-02       1.521742710764e+00 
       7.954353299775e-02       1.436994376074e+00 
       8.266024078725e-02       1.349801050058e+00 
       8.581273398637e-02       1.262209463257e+00 
       8.901225918437e-02       1.176558645843e+00 
       9.226860540985e-02       1.095187785578e+00 
       9.559052048996e-02       1.020194228288e+00 
       9.898599946599e-02       9.531772066987e-01 
       1.024624891378e-01       8.950893049947e-01 
       1.060270359164e-01       8.461361997171e-01 
       1.096863943056e-01       8.057247668785e-01 
       1.134471073830e-01       7.725244730270e-01 
       1.173155669539e-01       7.445242972617e-01 
       1.212980586983e-01       7.192519035160e-01 
       1.254007961065e-01       6.940304621332e-01 
       1.296299459934e-01       6.664242336011e-01 
       1.339916477160e-01       6.346860701745e-01 
       1.384920277736e-01       5.981862182480e-01 
       1.431372111762e-01       5.576080417858e-01 
       1.479333307714e-01       5.148361663847e-01 
       1.528865355934e-01       4.724900873824e-01 
       1.580029992204e-01       4.332734049579e-01 
       1.632889290723e-01       3.993005810783e-01 
       1.687505775527e-01       3.715491461305e-01 
       1.743942559171e-01       3.496688530625e-01 
       1.802263517371e-01       3.320376106700e-01 
       1.862533508214e-01       3.163472544880e-01 
       1.924818644494e-01       3.000329182786e-01 
       1.989186627765e-01       2.811462608640e-01 
       2.055707152847e-01       2.593801151020e-01 
       2.124452391818e-01       2.361174450470e-01 
       2.195497567139e-01       2.135832471335e-01 
       2.268921624510e-01       1.937045483539e-01 
       2.344808017550e-01       1.774524726904e-01 
       2.423245618548e-01       1.645154045217e-01 
       2.504329772620e-01       1.534273566839e-01 
       2.588163516754e-01       1.423617230284e-01 
       2.674858990930e-01       1.302674573699e-01 
       2.764539076010e-01       1.173175367702e-01 
       2.857339303080e-01       1.046957279932e-01 
       2.953410092148e-01       9.369133351532e-02 
       3.052919395542e-01       8.464034880663e-02 
       3.156055844677e-01       7.688785382146e-02 
       3.263032530092e-01       6.945568898106e-02 
       3.374091587054e-01       6.180135049412e-02 
       3.489509817175e-01       5.426771361050e-02 
       3.609605657343e-01       4.749366231107e-02 
       3.734747921333e-01       4.174557009426e-02 
       3.865366902904e-01       3.665625853933e-02 
       4.001968667448e-01       3.179524383125e-02 
       4.145153713076e-01       2.714264729836e-02 
       4.295641718077e-01       2.297119350147e-02 
       4.454304922144e-01       1.935533984844e-02 
       4.622214006969e-01       1.612730351950e-02 
       4.800702491654e-01       1.315355546899e-02 
       4.991459272112e-01       1.051748397570e-02 
       5.196665217302e-01       8.261772129194e-03 
       5.419201087032e-01       6.285295801342e-03 
       5.662975451962e-01       4.587926230897e-03 
       5.933463737275e-01       3.183515029598e-03 
       6.238638458458e-01       2.036775723139e-03 
       6.590669257916e-01       1.151714684704e-03 
       7.009246080454e-01       5.180809567149e-04 
       7.528593308799e-01       1.360287920175e-04 
       8.213469537518e-01       6.290140617708e-07 
       9.196980813302e-01       8.380150098101e-05 
       1.075112183810e+00       2.523667764242e-04 
       1.322697471132e+00       2.291454838141e-04 
       1.662328205042e+00       6.036781925134e-05 
       2.092692408506e+00       6.701257296819e-07 
       2.634543445090e+00       2.591047447465e-06 
       3.316693691389e+00       5.474108682696e-07 
       4.175469971226e+00       2.372969667717e-08 
       5.256605252960e+00       8.962043420923e-09 
       6.617673932723e+00       5.582727559638e-10 
       8.331157880872e+00       8.762667765575e-12 
       1.048830636590e+01       1.600811116967e-12 
       1.320399541071e+01       3.989281223176e-13 
       1.662284535976e+01       1.629684437841e-13 
       2.092692243973e+01       5.992301707132e-14 
       2.634543445002e+01       1.850673621649e-14 
       3.316693691389e+01       4.862971392729e-15 
       4.175469971226e+01       1.010200378825e-15 
       5.256605252960e+01       1.434135186493e-16 
       6.617673932723e+01       9.094175848085e-18 
