# Matter power spectrum P(k) at redshift z=0
# for k=1.04775e-05 to 67.6233 h/Mpc,
# number of wavenumbers equal to 246
#    1:k (h/Mpc)              2:P (Mpc/h)^3        
       1.047750691046e-05       5.020963910612e+01 
       1.131335172503e-05       5.407050701733e+01 
       1.221587619537e-05       5.822819187118e+01 
       1.319039970183e-05       6.270562523344e+01 
       1.424266597921e-05       6.752732240896e+01 
       1.537887696968e-05       7.271977206241e+01 
       1.660572937635e-05       7.831147247987e+01 
       1.793045413292e-05       8.433311822009e+01 
       1.936085902198e-05       9.081778249805e+01 
       2.090537469327e-05       9.780106799339e+01 
       2.257310435294e-05       1.053213197951e+02 
       2.437387741694e-05       1.134197377912e+02 
       2.631830744443e-05       1.221408204094e+02 
       2.841785469300e-05       1.315324660832e+02 
       3.068489366414e-05       1.416462090504e+02 
       3.313278603720e-05       1.525374501955e+02 
       3.577595942169e-05       1.642660688360e+02 
       3.862999239199e-05       1.768963506251e+02 
       4.171170630578e-05       1.904975994637e+02 
       4.503926444729e-05       2.051444491946e+02 
       4.863227907969e-05       2.209171458556e+02 
       5.251192703764e-05       2.379022222870e+02 
       5.670107454120e-05       2.561927860992e+02 
       6.122441196689e-05       2.758890446990e+02 
       6.610859936996e-05       2.970989228189e+02 
       7.138242361596e-05       3.199385560802e+02 
       7.707696804727e-05       3.445329783646e+02 
       8.322579568497e-05       3.710167326169e+02 
       8.986514704559e-05       3.995346443415e+02 
       9.703415373875e-05       4.302425405637e+02 
       1.047750691046e-04       4.633080766740e+02 
       1.131335172503e-04       4.989116273711e+02 
       1.221587619537e-04       5.372471950923e+02 
       1.319039970183e-04       5.785234139027e+02 
       1.424266597921e-04       6.229645936043e+02 
       1.537887696968e-04       6.708118490447e+02 
       1.660572937635e-04       7.223242666085e+02 
       1.793045413292e-04       7.777801568459e+02 
       1.936085902198e-04       8.374783614228e+02 
       2.090537469327e-04       9.017396271821e+02 
       2.257310435294e-04       9.709080274308e+02 
       2.437387741694e-04       1.045352449501e+03 
       2.631830744443e-04       1.125468123506e+03 
       2.841785469300e-04       1.211678180395e+03 
       3.068489366414e-04       1.304435250142e+03 
       3.313278603720e-04       1.404223053672e+03 
       3.577595942169e-04       1.511558014608e+03 
       3.862999239199e-04       1.626990838365e+03 
       4.171170630578e-04       1.751108028671e+03 
       4.503926444729e-04       1.884533384041e+03 
       4.863227907969e-04       2.027929377959e+03 
       5.251192703764e-04       2.181998448073e+03 
       5.670107454121e-04       2.347484102555e+03 
       6.122441196689e-04       2.525171870923e+03 
       6.610859936996e-04       2.715889983525e+03 
       7.138242361596e-04       2.920509687950e+03 
       7.707696804727e-04       3.139945099792e+03 
       8.322579568497e-04       3.375152337006e+03 
       8.986514704559e-04       3.627127830774e+03 
       9.703415373875e-04       3.896905451946e+03 
       1.047750691046e-03       4.185552172669e+03 
       1.131335172503e-03       4.494162427983e+03 
       1.221587619537e-03       4.823850703143e+03 
       1.319039970183e-03       5.175742736168e+03 
       1.424266597921e-03       5.551019589538e+03 
       1.537887696968e-03       5.950788329899e+03 
       1.660572937635e-03       6.376123021137e+03 
       1.793045413292e-03       6.828073877521e+03 
       1.936085902198e-03       7.307625346867e+03 
       2.090537469327e-03       7.815671836711e+03 
       2.257310435294e-03       8.352990303731e+03 
       2.437387741694e-03       8.920210960532e+03 
       2.631830744443e-03       9.517782920208e+03 
       2.841785469300e-03       1.014593683176e+04 
       3.068489366414e-03       1.080464472651e+04 
       3.313278603720e-03       1.149357417566e+04 
       3.577595942169e-03       1.221203561365e+04 
       3.862999239199e-03       1.295892454642e+04 
       4.171170630578e-03       1.373265917184e+04 
       4.503926444729e-03       1.453111669333e+04 
       4.863227907969e-03       1.535154746361e+04 
       5.251192703764e-03       1.619063249387e+04 
       5.670107454120e-03       1.704430816715e+04 
       6.122441196689e-03       1.790755349677e+04 
       6.610859936996e-03       1.877459543483e+04 
       7.138242361596e-03       1.963871342259e+04 
       7.707696804727e-03       2.049214186456e+04 
       8.322579568496e-03       2.132609321934e+04 
       8.986514704559e-03       2.213051851037e+04 
       9.703415373875e-03       2.289441768806e+04 
       1.047750691046e-02       2.360543193487e+04 
       1.131335172503e-02       2.425016101397e+04 
       1.221587619537e-02       2.481415037307e+04 
       1.319039970183e-02       2.528207001463e+04 
       1.424266597920e-02       2.563798649172e+04 
       1.537887696964e-02       2.586586104910e+04 
       1.660572937560e-02       2.595000768175e+04 
       1.793045412207e-02       2.587600066783e+04 
       1.936085889642e-02       2.563175244658e+04 
       2.090537351881e-02       2.520878010623e+04 
       2.257309534705e-02       2.460373377091e+04 
       2.437382002240e-02       2.381992292592e+04 
       2.631799943729e-02       2.286931701030e+04 
       2.841644544598e-02       2.177306867704e+04 
       3.067933354524e-02       2.056380955565e+04 
       3.311368469821e-02       1.928516614517e+04 
       3.571840442514e-02       1.799143279160e+04 
       3.847720347390e-02       1.674375760888e+04 
       4.135335537314e-02       1.560098551844e+04 
       4.429361666563e-02       1.460621927098e+04 
       4.724366437916e-02       1.377581337955e+04 
       5.016480834039e-02       1.309974640133e+04 
       5.303989618930e-02       1.255126956691e+04 
       5.586870668205e-02       1.209782626195e+04 
       5.866042679206e-02       1.170765658388e+04 
       6.142798931504e-02       1.135291302183e+04 
       6.418496438662e-02       1.101049794537e+04 
       6.694418832236e-02       1.066212966379e+04 
       6.971731104453e-02       1.029454847794e+04 
       7.251476154108e-02       9.899516781415e+03 
       7.534587669814e-02       9.473835863266e+03 
       7.821907664495e-02       9.019213563406e+03 
       8.114203771084e-02       8.541636311164e+03 
       8.412184533139e-02       8.050861634756e+03 
       8.716512277352e-02       7.559350857568e+03 
       9.027813693913e-02       7.080756621115e+03 
       9.346688429613e-02       6.628380484416e+03 
       9.673716026122e-02       6.214224781963e+03 
       1.000946150608e-01       5.847022076419e+03 
       1.035447986307e-01       5.531903831392e+03 
       1.070931966524e-01       5.269288881850e+03 
       1.107452594180e-01       5.055037769601e+03 
       1.145064248899e-01       4.880253745476e+03 
       1.183821370656e-01       4.732250980042e+03 
       1.223778605591e-01       4.595564377821e+03 
       1.264990921707e-01       4.453896561398e+03 
       1.307513701078e-01       4.293022762990e+03 
       1.351402814485e-01       4.103703502479e+03 
       1.396714683894e-01       3.884069790797e+03 
       1.443506337875e-01       3.640375382317e+03 
       1.491835464900e-01       3.385984975160e+03 
       1.541760469368e-01       3.137978319796e+03 
       1.593340535209e-01       2.913038008539e+03 
       1.646635701934e-01       2.723108099257e+03 
       1.701706958081e-01       2.572566608780e+03 
       1.758616357070e-01       2.457038992446e+03 
       1.817427160581e-01       2.364413213191e+03 
       1.878204014651e-01       2.279030061367e+03 
       1.941013163855e-01       2.183950948306e+03 
       2.005922709060e-01       2.068673666221e+03 
       2.073002914514e-01       1.934128999801e+03 
       2.142326570343e-01       1.791739547740e+03 
       2.213969417044e-01       1.656744162984e+03 
       2.288010639201e-01       1.541105209507e+03 
       2.364533436625e-01       1.449643514423e+03 
       2.443625682390e-01       1.378054100751e+03 
       2.525380678946e-01       1.314533070243e+03 
       2.609898025770e-01       1.246690484434e+03 
       2.697284614969e-01       1.168990077291e+03 
       2.787655775073e-01       1.084880953816e+03 
       2.881136588192e-01       1.004270162990e+03 
       2.977863412019e-01       9.358522561609e+02 
       3.077985646248e-01       8.801636915614e+02 
       3.181667793367e-01       8.310227188137e+02 
       3.289091877084e-01       7.808826965431e+02 
       3.400460298905e-01       7.270279690768e+02 
       3.515999235695e-01       6.735531017645e+02 
       3.635962710278e-01       6.256551081108e+02 
       3.760637505499e-01       5.846086544368e+02 
       3.890349143014e-01       5.465143543012e+02 
       4.025469215929e-01       5.081375601638e+02 
       4.166424455447e-01       4.700226239060e+02 
       4.313708034899e-01       4.348914956223e+02 
       4.467893781976e-01       4.032017439780e+02 
       4.629654198623e-01       3.732231101096e+02 
       4.799783500912e-01       3.437755795614e+02 
       4.979227318246e-01       3.158772514207e+02 
       5.169121269689e-01       2.902182418349e+02 
       5.370841403262e-01       2.657015975304e+02 
       5.586070463286e-01       2.421434040184e+02 
       5.816885093582e-01       2.200320907990e+02 
       6.065870143577e-01       1.990092008816e+02 
       6.336266466978e-01       1.789134848479e+02 
       6.632156057925e-01       1.598775112086e+02 
       6.958678637575e-01       1.417001124556e+02 
       7.322247983784e-01       1.244397253008e+02 
       7.730680193171e-01       1.080421697276e+02 
       8.193049551574e-01       9.257764942051e+01 
       8.718988013754e-01       7.813172860186e+01 
       9.317218028590e-01       6.486183984640e+01 
       9.993660906273e-01       5.294561555183e+01 
       1.075037109879e+00       4.252103239796e+01 
       1.158653485387e+00       3.363313872498e+01 
       1.250099156961e+00       2.622323978841e+01 
       1.349432400897e+00       2.014790829947e+01 
       1.456947456991e+00       1.523648707277e+01 
       1.573135110893e+00       1.131628239292e+01 
       1.698621895119e+00       8.228989213605e+00 
       1.834127512423e+00       5.835336284331e+00 
       1.980444933977e+00       4.013464613633e+00 
       2.138435191130e+00       2.658203987857e+00 
       2.309029198543e+00       1.678215469366e+00 
       2.493232376993e+00       9.948613873026e-01 
       2.692130394536e+00       5.405368999296e-01 
       2.906895533764e+00       2.578603949178e-01 
       3.138793596840e+00       9.861561394772e-02 
       3.389191365541e+00       2.332562652425e-02 
       3.659564656886e+00       5.050808072668e-04 
       3.951507021438e+00       6.146504199763e-03 
       4.266739135513e+00       2.305990162137e-02 
       4.607118942658e+00       4.009226660291e-02 
       4.974652604172e+00       5.116790485404e-02 
       5.371506323193e+00       5.421427329837e-02 
       5.800019112071e+00       4.996402522837e-02 
       6.262716578240e+00       4.075946271419e-02 
       6.762325809881e+00       2.947421041157e-02 
       7.301791449077e+00       1.866494547912e-02 
       7.884293047211e+00       1.004409830615e-02 
       8.513263804891e+00       4.300203779942e-03 
       9.192410806865e+00       1.238481221585e-03 
       9.925736871166e+00       1.171681059907e-04 
       1.071756414128e+01       4.379373274176e-05 
       1.157255956041e+01       2.918301008613e-04 
       1.249576237789e+01       4.536442802508e-04 
       1.349261385000e+01       4.241177397703e-04 
       1.456898931011e+01       2.771574666017e-04 
       1.573123279727e+01       1.254265211821e-04 
       1.698619444729e+01       3.321776148661e-05 
       1.834127086665e+01       2.005956090631e-06 
       1.980444872733e+01       1.730664249313e-06 
       2.138435183937e+01       5.917799579086e-06 
       2.309029197863e+01       5.404500361734e-06 
       2.493232376942e+01       2.441452442953e-06 
       2.692130394533e+01       4.666972766303e-07 
       2.906895533764e+01       1.612314092218e-09 
       3.138793596840e+01       6.198404844142e-08 
       3.389191365541e+01       6.486015191146e-08 
       3.659564656886e+01       1.679459898766e-08 
       3.951507021438e+01       6.317381141275e-11 
       4.266739135513e+01       2.418328348718e-09 
       4.607118942658e+01       2.315602200309e-09 
       4.974652604172e+01       6.459546611309e-10 
       5.371506323193e+01       7.484881102480e-11 
       5.800019112071e+01       1.840891851699e-11 
       6.262716578240e+01       3.320486824729e-11 
       6.762325809881e+01       4.337939018674e-11 
