# Matter power spectrum P(k) at redshift z=0
# for k=1.04775e-05 to 66.1767 h/Mpc,
# number of wavenumbers equal to 130
#    1:k (h/Mpc)              2:P (Mpc/h)^3        
       1.047750691046e-05       5.020964811315e+01 
       1.319039970183e-05       6.270562594887e+01 
       1.660572937635e-05       7.831147247912e+01 
       2.090537469327e-05       9.780108069405e+01 
       2.631830744443e-05       1.221408203809e+02 
       3.313278603720e-05       1.525374501932e+02 
       4.171170630578e-05       1.904975994012e+02 
       5.251192703764e-05       2.379022224242e+02 
       6.610859936996e-05       2.970989227882e+02 
       8.322579568497e-05       3.710167318946e+02 
       1.047750691046e-04       4.633080766742e+02 
       1.319039970183e-04       5.785234129341e+02 
       1.660572937635e-04       7.223242666092e+02 
       2.090537469327e-04       9.017396271824e+02 
       2.631830744443e-04       1.125468123750e+03 
       3.313278603720e-04       1.404223053681e+03 
       4.171170630578e-04       1.751108028789e+03 
       5.251192703764e-04       2.181998448133e+03 
       6.610859936996e-04       2.715889983592e+03 
       8.322579568497e-04       3.375152337132e+03 
       1.047750691046e-03       4.185552174307e+03 
       1.319039970183e-03       5.175742740200e+03 
       1.660572937635e-03       6.376123051717e+03 
       2.090537469327e-03       7.815671864569e+03 
       2.631830744443e-03       9.517783068714e+03 
       3.313278603720e-03       1.149357460234e+04 
       4.171170630578e-03       1.373266010402e+04 
       5.251192703764e-03       1.619063611062e+04 
       6.610859936996e-03       1.877460410785e+04 
       8.322579568497e-03       2.132607248678e+04 
       1.047750691046e-02       2.360549065777e+04 
       1.319039970183e-02       2.528218742342e+04 
       1.660572937633e-02       2.595025791654e+04 
       2.090537453514e-02       2.520937755691e+04 
       2.631818545635e-02       2.287032482608e+04 
       3.311571692125e-02       1.928627862369e+04 
       4.113809243311e-02       1.568429672049e+04 
       4.792590854610e-02       1.361059548544e+04 
       5.284436902701e-02       1.259128808080e+04 
       5.689644391095e-02       1.195554768409e+04 
       6.051252627066e-02       1.147548075044e+04 
       6.388413457411e-02       1.105588727778e+04 
       6.711249296401e-02       1.064897260130e+04 
       7.025823437965e-02       1.022928191652e+04 
       7.336115587705e-02       9.784442715010e+03 
       7.644928796912e-02       9.311626112310e+03 
       7.954353299775e-02       8.814506659726e+03 
       8.266024078725e-02       8.302109887923e+03 
       8.581273398637e-02       7.786917164810e+03 
       8.901225918437e-02       7.283158476922e+03 
       9.226860540985e-02       6.805177861795e+03 
       9.559052048996e-02       6.365620767347e+03 
       9.898599946599e-02       5.974387780526e+03 
       1.024624891378e-01       5.637337698552e+03 
       1.060270359164e-01       5.355737568060e+03 
       1.096863943056e-01       5.126228396593e+03 
       1.134471073830e-01       4.940470425487e+03 
       1.173155669539e-01       4.786143554057e+03 
       1.212980586983e-01       4.647914431276e+03 
       1.254007961065e-01       4.509105429855e+03 
       1.296299459934e-01       4.354528141805e+03 
       1.339916477160e-01       4.173199071067e+03 
       1.384920277736e-01       3.961152108003e+03 
       1.431372111762e-01       3.722654200539e+03 
       1.479333307714e-01       3.469524311849e+03 
       1.528865355934e-01       3.218308150408e+03 
       1.580029992204e-01       2.986240293316e+03 
       1.632889290723e-01       2.786933166730e+03 
       1.687505775527e-01       2.626807021929e+03 
       1.743942559171e-01       2.503730645041e+03 
       1.802263517371e-01       2.407296908307e+03 
       1.862533508214e-01       2.322224651713e+03 
       1.924818644494e-01       2.231523985231e+03 
       1.989186627765e-01       2.122160118245e+03 
       2.055707152847e-01       1.991997932221e+03 
       2.124452391818e-01       1.850291783161e+03 
       2.195497567139e-01       1.712145262453e+03 
       2.268921624510e-01       1.590951771043e+03 
       2.344808017550e-01       1.493639660604e+03 
       2.423245618548e-01       1.418288031495e+03 
       2.504329772620e-01       1.354433973541e+03 
       2.588163516754e-01       1.288899976615e+03 
       2.674858990930e-01       1.213903808160e+03 
       2.764539076010e-01       1.130661671713e+03 
       2.857339303080e-01       1.048068127856e+03 
       2.953410092148e-01       9.761530032392e+02 
       3.052919395542e-01       9.177765661388e+02 
       3.156055844677e-01       8.678685418998e+02 
       3.263032530092e-01       8.184952674945e+02 
       3.374091587054e-01       7.651159641647e+02 
       3.489509817175e-01       7.106402194551e+02 
       3.609605657343e-01       6.607556748751e+02 
       3.734747921333e-01       6.180573937656e+02 
       3.865366902904e-01       5.792796620581e+02 
       4.001968667448e-01       5.403615358927e+02 
       4.145153713076e-01       5.011214450476e+02 
       4.295641718077e-01       4.644694138674e+02 
       4.454304922144e-01       4.313781361211e+02 
       4.622214006969e-01       4.000832817078e+02 
       4.800702491654e-01       3.690601433741e+02 
       4.991459272112e-01       3.394483673521e+02 
       5.196665217302e-01       3.119569486172e+02 
       5.419201087032e-01       2.852179448415e+02 
       5.662975451962e-01       2.593031103443e+02 
       5.933463737275e-01       2.345200895981e+02 
       6.238638458458e-01       2.102035580946e+02 
       6.590669257916e-01       1.864060510317e+02 
       7.009246080454e-01       1.626988293740e+02 
       7.528593308799e-01       1.387924743994e+02 
       8.213469537518e-01       1.141631141492e+02 
       9.196980813302e-01       8.833519040523e+01 
       1.075112183810e+00       6.170332153361e+01 
       1.322697471132e+00       3.802162425284e+01 
       1.662328205042e+00       2.207883866461e+01 
       2.092692408506e+00       1.265186854564e+01 
       2.634543445090e+00       7.187829618057e+00 
       3.316693691389e+00       4.051308891745e+00 
       4.175469971226e+00       2.266370148207e+00 
       5.256605252960e+00       1.258567126224e+00 
       6.617673932723e+00       6.936881851002e-01 
       8.331157880872e+00       3.792629929702e-01 
       1.048830636590e+01       2.054162180043e-01 
       1.320399541071e+01       1.099641525429e-01 
       1.662284535976e+01       5.795674249538e-02 
       2.092692243973e+01       2.988595927342e-02 
       2.634543445002e+01       1.492622161485e-02 
       3.316693691389e+01       7.104873254241e-03 
       4.175469971226e+01       3.139451681471e-03 
       5.256605252960e+01       1.231596067674e-03 
       6.617673932723e+01       3.948173826658e-04 
