# Matter power spectrum P(k) at redshift z=0
# for k=1.04775e-05 to 66.1767 h/Mpc,
# number of wavenumbers equal to 130
#    1:k (h/Mpc)              2:P (Mpc/h)^3        
       1.047750691046e-05       5.020964811312e+01 
       1.319039970183e-05       6.270562594785e+01 
       1.660572937635e-05       7.831147247912e+01 
       2.090537469327e-05       9.780108069296e+01 
       2.631830744443e-05       1.221408203809e+02 
       3.313278603720e-05       1.525374501932e+02 
       4.171170630578e-05       1.904975994010e+02 
       5.251192703764e-05       2.379022224249e+02 
       6.610859936996e-05       2.970989227883e+02 
       8.322579568497e-05       3.710167318945e+02 
       1.047750691046e-04       4.633080766742e+02 
       1.319039970183e-04       5.785234129331e+02 
       1.660572937635e-04       7.223242666092e+02 
       2.090537469327e-04       9.017396271824e+02 
       2.631830744443e-04       1.125468123750e+03 
       3.313278603720e-04       1.404223053681e+03 
       4.171170630578e-04       1.751108028790e+03 
       5.251192703764e-04       2.181998448133e+03 
       6.610859936996e-04       2.715889983592e+03 
       8.322579568497e-04       3.375152337134e+03 
       1.047750691046e-03       4.185552174306e+03 
       1.319039970183e-03       5.175742741216e+03 
       1.660572937635e-03       6.376123051776e+03 
       2.090537469327e-03       7.815671861099e+03 
       2.631830744443e-03       9.517783069111e+03 
       3.313278603720e-03       1.149357460346e+04 
       4.171170630578e-03       1.373266012694e+04 
       5.251192703764e-03       1.619063614555e+04 
       6.610859936996e-03       1.877460421967e+04 
       8.322579568497e-03       2.132607231831e+04 
       1.047750691046e-02       2.360548615341e+04 
       1.319039970183e-02       2.528218648098e+04 
       1.660572937633e-02       2.595026536338e+04 
       2.090537453514e-02       2.520933517097e+04 
       2.631818545635e-02       2.287034666254e+04 
       3.311571692125e-02       1.928628667268e+04 
       4.113809243311e-02       1.568426180656e+04 
       4.792590854610e-02       1.361066997019e+04 
       5.284436902701e-02       1.259132440536e+04 
       5.689644391095e-02       1.195555885966e+04 
       6.051252627066e-02       1.147547971823e+04 
       6.388413457411e-02       1.105590306520e+04 
       6.711249296401e-02       1.064899565081e+04 
       7.025823437965e-02       1.022930780756e+04 
       7.336115587705e-02       9.784530894119e+03 
       7.644928796912e-02       9.311690119914e+03 
       7.954353299775e-02       8.814522789807e+03 
       8.266024078725e-02       8.302127133051e+03 
       8.581273398637e-02       7.786960894874e+03 
       8.901225918437e-02       7.283158756372e+03 
       9.226860540985e-02       6.805166597200e+03 
       9.559052048996e-02       6.365595407672e+03 
       9.898599946599e-02       5.974374499095e+03 
       1.024624891378e-01       5.637346002088e+03 
       1.060270359164e-01       5.355787732384e+03 
       1.096863943056e-01       5.126235842739e+03 
       1.134471073830e-01       4.940484105053e+03 
       1.173155669539e-01       4.786165356197e+03 
       1.212980586983e-01       4.647934997591e+03 
       1.254007961065e-01       4.509136060797e+03 
       1.296299459934e-01       4.354546751779e+03 
       1.339916477160e-01       4.173233710652e+03 
       1.384920277736e-01       3.961174875673e+03 
       1.431372111762e-01       3.722694780261e+03 
       1.479333307714e-01       3.469540299340e+03 
       1.528865355934e-01       3.218340907912e+03 
       1.580029992204e-01       2.986291581938e+03 
       1.632889290723e-01       2.786957050137e+03 
       1.687505775527e-01       2.626828193093e+03 
       1.743942559171e-01       2.503760054514e+03 
       1.802263517371e-01       2.407344578500e+03 
       1.862533508214e-01       2.322251855050e+03 
       1.924818644494e-01       2.231551559173e+03 
       1.989186627765e-01       2.122189357068e+03 
       2.055707152847e-01       1.992026460919e+03 
       2.124452391818e-01       1.850323460011e+03 
       2.195497567139e-01       1.712179951277e+03 
       2.268921624510e-01       1.590990182068e+03 
       2.344808017550e-01       1.493666974036e+03 
       2.423245618548e-01       1.418313142830e+03 
       2.504329772620e-01       1.354466629613e+03 
       2.588163516754e-01       1.288940584396e+03 
       2.674858990930e-01       1.213939004709e+03 
       2.764539076010e-01       1.130692138689e+03 
       2.857339303080e-01       1.048098809532e+03 
       2.953410092148e-01       9.761839420224e+02 
       3.052919395542e-01       9.178067840358e+02 
       3.156055844677e-01       8.678974569170e+02 
       3.263032530092e-01       8.185253604815e+02 
       3.374091587054e-01       7.651448218030e+02 
       3.489509817175e-01       7.106741096933e+02 
       3.609605657343e-01       6.607857334899e+02 
       3.734747921333e-01       6.180860425512e+02 
       3.865366902904e-01       5.793094700152e+02 
       4.001968667448e-01       5.403913169713e+02 
       4.145153713076e-01       5.011505800310e+02 
       4.295641718077e-01       4.644972932383e+02 
       4.454304922144e-01       4.314066020804e+02 
       4.622214006969e-01       4.001138509937e+02 
       4.800702491654e-01       3.690901295918e+02 
       4.991459272112e-01       3.394761924685e+02 
       5.196665217302e-01       3.119846984211e+02 
       5.419201087032e-01       2.852486674130e+02 
       5.662975451962e-01       2.593308346880e+02 
       5.933463737275e-01       2.345479548280e+02 
       6.238638458458e-01       2.102308972252e+02 
       6.590669257916e-01       1.864342099023e+02 
       7.009246080454e-01       1.627255925008e+02 
       7.528593308799e-01       1.388183820454e+02 
       8.213469537518e-01       1.141881654636e+02 
       9.196980813302e-01       8.835939748587e+01 
       1.075112183810e+00       6.172632530500e+01 
       1.322697471132e+00       3.804284652208e+01 
       1.662328205042e+00       2.209798810522e+01 
       2.092692408506e+00       1.266912565574e+01 
       2.634543445090e+00       7.203360513178e+00 
       3.316693691389e+00       4.065134305736e+00 
       4.175469971226e+00       2.278620565082e+00 
       5.256605252960e+00       1.269344401328e+00 
       6.617673932723e+00       7.031259888297e-01 
       8.331157880872e+00       3.874714684651e-01 
       1.048830636590e+01       2.125079085304e-01 
       1.320399541071e+01       1.160329760941e-01 
       1.662284535976e+01       6.309591264137e-02 
       2.092692243973e+01       3.417711936234e-02 
       2.634543445002e+01       1.844427884472e-02 
       3.316693691389e+01       9.917663694142e-03 
       4.175469971226e+01       5.313488716843e-03 
       5.256605252960e+01       2.835776563746e-03 
       6.617673932723e+01       1.506977936198e-03 
