# Matter power spectrum P(k) at redshift z=99
# for k=1.04775e-05 to 66.1767 h/Mpc,
# number of wavenumbers equal to 130
#    1:k (h/Mpc)              2:P (Mpc/h)^3        
       1.047750691046e-05       7.261927680862e-03 
       1.319039970183e-05       9.069258201849e-03 
       1.660572937635e-05       1.132639106725e-02 
       2.090537469327e-05       1.414527123399e-02 
       2.631830744443e-05       1.766569584058e-02 
       3.313278603720e-05       2.206225515942e-02 
       4.171170630578e-05       2.755297766277e-02 
       5.251192703764e-05       3.441013522947e-02 
       6.610859936996e-05       4.297372172778e-02 
       8.322579568497e-05       5.366826852944e-02 
       1.047750691046e-04       6.702379872775e-02 
       1.319039970183e-04       8.370193441286e-02 
       1.660572937635e-04       1.045283355384e-01 
       2.090537469327e-04       1.305329134104e-01 
       2.631830744443e-04       1.629994506605e-01 
       3.313278603720e-04       2.035264004601e-01 
       4.171170630578e-04       2.541004744243e-01 
       5.251192703764e-04       3.171839528558e-01 
       6.610859936996e-04       3.958147256513e-01 
       8.322579568497e-04       4.937136006274e-01 
       1.047750691046e-03       6.153841636041e-01 
       1.319039970183e-03       7.661720592314e-01 
       1.660572937635e-03       9.522588016470e-01 
       2.090537469327e-03       1.180312991699e+00 
       2.631830744443e-03       1.456802684686e+00 
       3.313278603720e-03       1.786503854047e+00 
       4.171170630578e-03       2.169896197099e+00 
       5.251192703764e-03       2.599430630720e+00 
       6.610859936996e-03       3.055668690776e+00 
       8.322579568497e-03       3.505724934971e+00 
       1.047750691046e-02       3.905490912467e+00 
       1.319039970183e-02       4.200915338730e+00 
       1.660572937633e-02       4.325066405260e+00 
       2.090537453514e-02       4.210200247873e+00 
       2.631818545635e-02       3.825150589472e+00 
       3.311571692125e-02       3.229059557100e+00 
       4.113809243311e-02       2.627728767824e+00 
       4.792590854610e-02       2.280792687556e+00 
       5.284436902701e-02       2.110088017058e+00 
       5.689644391095e-02       2.003533851130e+00 
       6.051252627066e-02       1.923059225538e+00 
       6.388413457411e-02       1.852734506489e+00 
       6.711249296401e-02       1.784565399677e+00 
       7.025823437965e-02       1.714277459118e+00 
       7.336115587705e-02       1.639815601331e+00 
       7.644928796912e-02       1.560663629247e+00 
       7.954353299775e-02       1.477460575326e+00 
       8.266024078725e-02       1.391699507527e+00 
       8.581273398637e-02       1.305461621046e+00 
       8.901225918437e-02       1.221127319442e+00 
       9.226860540985e-02       1.141079996686e+00 
       9.559052048996e-02       1.067452031518e+00 
       9.898599946599e-02       1.001889858075e+00 
       1.024624891378e-01       9.453843691961e-01 
       1.060270359164e-01       8.981488901346e-01 
       1.096863943056e-01       8.596148369244e-01 
       1.134471073830e-01       8.284059686862e-01 
       1.173155669539e-01       8.024683415412e-01 
       1.212980586983e-01       7.792285393001e-01 
       1.254007961065e-01       7.559180006109e-01 
       1.296299459934e-01       7.299836125176e-01 
       1.339916477160e-01       6.995929217958e-01 
       1.384920277736e-01       6.640788549604e-01 
       1.431372111762e-01       6.241469350855e-01 
       1.479333307714e-01       5.817631272307e-01 
       1.528865355934e-01       5.396936548040e-01 
       1.580029992204e-01       5.008146483094e-01 
       1.632889290723e-01       4.673990679357e-01 
       1.687505775527e-01       4.405333785940e-01 
       1.743942559171e-01       4.198645562482e-01 
       1.802263517371e-01       4.036602905381e-01 
       1.862533508214e-01       3.893595267168e-01 
       1.924818644494e-01       3.741347226002e-01 
       1.989186627765e-01       3.558014357205e-01 
       2.055707152847e-01       3.339990914540e-01 
       2.124452391818e-01       3.102648892687e-01 
       2.195497567139e-01       2.871229468842e-01 
       2.268921624510e-01       2.668086600213e-01 
       2.344808017550e-01       2.504834335308e-01 
       2.423245618548e-01       2.378333593585e-01 
       2.504329772620e-01       2.271118496215e-01 
       2.588163516754e-01       2.161176651945e-01 
       2.674858990930e-01       2.035453492307e-01 
       2.764539076010e-01       1.895979366568e-01 
       2.857339303080e-01       1.757572941319e-01 
       2.953410092148e-01       1.637000319730e-01 
       3.052919395542e-01       1.539064059628e-01 
       3.156055844677e-01       1.455311416795e-01 
       3.263032530092e-01       1.372503258341e-01 
       3.374091587054e-01       1.283016640172e-01 
       3.489509817175e-01       1.191714084517e-01 
       3.609605657343e-01       1.108072832971e-01 
       3.734747921333e-01       1.036454468408e-01 
       3.865366902904e-01       9.714162372229e-02 
       4.001968667448e-01       9.061561217053e-02 
       4.145153713076e-01       8.403713059801e-02 
       4.295641718077e-01       7.789140930971e-02 
       4.454304922144e-01       7.234186561696e-02 
       4.622214006969e-01       6.709362968825e-02 
       4.800702491654e-01       6.189196456295e-02 
       4.991459272112e-01       5.692641065522e-02 
       5.196665217302e-01       5.231627905779e-02 
       5.419201087032e-01       4.783274470176e-02 
       5.662975451962e-01       4.348691199837e-02 
       5.933463737275e-01       3.933115062224e-02 
       6.238638458458e-01       3.525347662143e-02 
       6.590669257916e-01       3.126305733572e-02 
       7.009246080454e-01       2.728730122572e-02 
       7.528593308799e-01       2.327851866327e-02 
       8.213469537518e-01       1.914828477908e-02 
       9.196980813302e-01       1.481702340938e-02 
       1.075112183810e+00       1.035096431387e-02 
       1.322697471132e+00       6.379490880900e-03 
       1.662328205042e+00       3.705667761753e-03 
       2.092692408506e+00       2.124541013557e-03 
       2.634543445090e+00       1.207970332512e-03 
       3.316693691389e+00       6.817122089673e-04 
       4.175469971226e+00       3.821226071889e-04 
       5.256605252960e+00       2.128763027492e-04 
       6.617673932723e+00       1.179227309756e-04 
       8.331157880872e+00       6.498777300157e-05 
       1.048830636590e+01       3.564511717652e-05 
       1.320399541071e+01       1.946587496120e-05 
       1.662284535976e+01       1.058770540666e-05 
       2.092692243973e+01       5.737245090270e-06 
       2.634543445002e+01       3.098052925028e-06 
       3.316693691389e+01       1.667459750337e-06 
       4.175469971226e+01       8.946829120687e-07 
       5.256605252960e+01       4.786218321129e-07 
       6.617673932723e+01       2.552976408158e-07 
