# Matter power spectrum P(k) at redshift z=0
# for k=1.04775e-05 to 66.1767 h/Mpc,
# number of wavenumbers equal to 130
#    1:k (h/Mpc)              2:P (Mpc/h)^3        
       1.047750691046e-05       5.020963881677e+01 
       1.319039970183e-05       6.270561051570e+01 
       1.660572937635e-05       7.831147078653e+01 
       2.090537469327e-05       9.780107830925e+01 
       2.631830744443e-05       1.221408308942e+02 
       3.313278603720e-05       1.525374494793e+02 
       4.171170630578e-05       1.904976033693e+02 
       5.251192703764e-05       2.379022327686e+02 
       6.610859936996e-05       2.970989231302e+02 
       8.322579568497e-05       3.710167340346e+02 
       1.047750691046e-04       4.633080764238e+02 
       1.319039970183e-04       5.785234130298e+02 
       1.660572937635e-04       7.223242652963e+02 
       2.090537469327e-04       9.017396265231e+02 
       2.631830744443e-04       1.125468121496e+03 
       3.313278603720e-04       1.404223047140e+03 
       4.171170630578e-04       1.751108007728e+03 
       5.251192703764e-04       2.181998389844e+03 
       6.610859936996e-04       2.715889809298e+03 
       8.322579568497e-04       3.375151824766e+03 
       1.047750691046e-03       4.185550668653e+03 
       1.319039970183e-03       5.175738348959e+03 
       1.660572937635e-03       6.376108757358e+03 
       2.090537469327e-03       7.815628198607e+03 
       2.631830744443e-03       9.517656128391e+03 
       3.313278603720e-03       1.149322067537e+04 
       4.171170630578e-03       1.373170716239e+04 
       5.251192703764e-03       1.618814665275e+04 
       6.610859936996e-03       1.876830230528e+04 
       8.322579568497e-03       2.131060547977e+04 
       1.047750691046e-02       2.356879676191e+04 
       1.319039970183e-02       2.519827618400e+04 
       1.660572937633e-02       2.576603845657e+04 
       2.090537453514e-02       2.482461134574e+04 
       2.631818545635e-02       2.211602944459e+04 
       3.311571692125e-02       1.792451439539e+04 
       4.113809243311e-02       1.350762112511e+04 
       4.792590854610e-02       1.074390769607e+04 
       5.284436902701e-02       9.255476235776e+03 
       5.689644391095e-02       8.267979034364e+03 
       6.051252627066e-02       7.510732112861e+03 
       6.388413457411e-02       6.871536188945e+03 
       6.711249296401e-02       6.294596505110e+03 
       7.025823437965e-02       5.749736117547e+03 
       7.336115587705e-02       5.221217881059e+03 
       7.644928796912e-02       4.702201012856e+03 
       7.954353299775e-02       4.192269398337e+03 
       8.266024078725e-02       3.695290164966e+03 
       8.581273398637e-02       3.217926887881e+03 
       8.901225918437e-02       2.768173942761e+03 
       9.226860540985e-02       2.353701837056e+03 
       9.559052048996e-02       1.980956923050e+03 
       9.898599946599e-02       1.654035961382e+03 
       1.024624891378e-01       1.374170331973e+03 
       1.060270359164e-01       1.139899578844e+03 
       1.096863943056e-01       9.472450197507e+02 
       1.134471073830e-01       7.904027608912e+02 
       1.173155669539e-01       6.626091847739e+02 
       1.212980586983e-01       5.568129848761e+02 
       1.254007961065e-01       4.663830988732e+02 
       1.296299459934e-01       3.858466859583e+02 
       1.339916477160e-01       3.114927842046e+02 
       1.384920277736e-01       2.418060568548e+02 
       1.431372111762e-01       1.774727572191e+02 
       1.479333307714e-01       1.207691943726e+02 
       1.528865355934e-01       7.442198787630e+01 
       1.580029992204e-01       4.023387810973e+01 
       1.632889290723e-01       1.814322973527e+01 
       1.687505775527e-01       6.145764596883e+00 
       1.743942559171e-01       1.116538865491e+00 
       1.802263517371e-01       3.704519714136e-04 
       1.862533508214e-01       6.722397811871e-01 
       1.924818644494e-01       2.142186065761e+00 
       1.989186627765e-01       4.346901023734e+00 
       2.055707152847e-01       7.649585698334e+00 
       2.124452391818e-01       1.227168940754e+01 
       2.195497567139e-01       1.781979553198e+01 
       2.268921624510e-01       2.317295809504e+01 
       2.344808017550e-01       2.685435144610e+01 
       2.423245618548e-01       2.788904295207e+01 
       2.504329772620e-01       2.658794388510e+01 
       2.588163516754e-01       2.420523384007e+01 
       2.674858990930e-01       2.190449510441e+01 
       2.764539076010e-01       2.019520895807e+01 
       2.857339303080e-01       1.878454579097e+01 
       2.953410092148e-01       1.690550796083e+01 
       3.052919395542e-01       1.417916434327e+01 
       3.156055844677e-01       1.094329762324e+01 
       3.263032530092e-01       7.913003538483e+00 
       3.374091587054e-01       5.592612835030e+00 
       3.489509817175e-01       3.919263716065e+00 
       3.609605657343e-01       2.618565844233e+00 
       3.734747921333e-01       1.519551766982e+00 
       3.865366902904e-01       7.001614124214e-01 
       4.001968667448e-01       2.327714844628e-01 
       4.145153713076e-01       4.032759443729e-02 
       4.295641718077e-01       8.883002228653e-04 
       4.454304922144e-01       5.399090089345e-02 
       4.622214006969e-01       1.594159759955e-01 
       4.800702491654e-01       2.542248748554e-01 
       4.991459272112e-01       3.050672810483e-01 
       5.196665217302e-01       3.208339759695e-01 
       5.419201087032e-01       2.901859534155e-01 
       5.662975451962e-01       2.202502270860e-01 
       5.933463737275e-01       1.412807532352e-01 
       6.238638458458e-01       6.877909596806e-02 
       6.590669257916e-01       2.036522186042e-02 
       7.009246080454e-01       1.012993045357e-03 
       7.528593308799e-01       2.530054585736e-03 
       8.213469537518e-01       6.881598477993e-03 
       9.196980813302e-01       2.880584537390e-03 
       1.075112183810e+00       4.885758512083e-06 
       1.322697471132e+00       1.810354728357e-05 
       1.662328205042e+00       3.518527126867e-06 
       2.092692408506e+00       9.034155642300e-09 
       2.634543445090e+00       3.727607003831e-08 
       3.316693691389e+00       1.073404436019e-08 
       4.175469971226e+00       3.979092856111e-09 
       5.256605252960e+00       1.446502359546e-09 
       6.617673932723e+00       5.038376052468e-10 
       8.331157880872e+00       1.778668210995e-10 
       1.048830636590e+01       6.012095106647e-11 
       1.320399541071e+01       2.049710955714e-11 
       1.662284535976e+01       6.612852587633e-12 
       2.092692243973e+01       2.036014406879e-12 
       2.634543445002e+01       6.140439493943e-13 
       3.316693691389e+01       1.654319221824e-13 
       4.175469971226e+01       3.826906820891e-14 
       5.256605252960e+01       7.625028765950e-15 
       6.617673932723e+01       1.019952848192e-15 
