# Matter power spectrum P(k) at redshift z=99
# for k=1.04775e-05 to 66.1767 h/Mpc,
# number of wavenumbers equal to 130
#    1:k (h/Mpc)              2:P (Mpc/h)^3        
       1.047750691046e-05       7.261927680861e-03 
       1.319039970183e-05       9.069258201848e-03 
       1.660572937635e-05       1.132639106725e-02 
       2.090537469327e-05       1.414527123399e-02 
       2.631830744443e-05       1.766569584058e-02 
       3.313278603720e-05       2.206225515942e-02 
       4.171170630578e-05       2.755297766277e-02 
       5.251192703764e-05       3.441013522947e-02 
       6.610859936996e-05       4.297372172777e-02 
       8.322579568497e-05       5.366826852944e-02 
       1.047750691046e-04       6.702379872774e-02 
       1.319039970183e-04       8.370193441285e-02 
       1.660572937635e-04       1.045283355384e-01 
       2.090537469327e-04       1.305329134104e-01 
       2.631830744443e-04       1.629994506605e-01 
       3.313278603720e-04       2.035264004601e-01 
       4.171170630578e-04       2.541004744243e-01 
       5.251192703764e-04       3.171839528557e-01 
       6.610859936996e-04       3.958147256513e-01 
       8.322579568497e-04       4.937136006276e-01 
       1.047750691046e-03       6.153841636041e-01 
       1.319039970183e-03       7.661720592353e-01 
       1.660572937635e-03       9.522588016469e-01 
       2.090537469327e-03       1.180312991700e+00 
       2.631830744443e-03       1.456802684686e+00 
       3.313278603720e-03       1.786503854037e+00 
       4.171170630578e-03       2.169896196084e+00 
       5.251192703764e-03       2.599430630723e+00 
       6.610859936996e-03       3.055668706334e+00 
       8.322579568497e-03       3.505725598625e+00 
       1.047750691046e-02       3.905490170349e+00 
       1.319039970183e-02       4.200915410842e+00 
       1.660572937633e-02       4.325060385836e+00 
       2.090537453514e-02       4.210210055925e+00 
       2.631818545635e-02       3.825147576181e+00 
       3.311571692125e-02       3.229064965485e+00 
       4.113809243311e-02       2.627729308775e+00 
       4.792590854610e-02       2.280790651518e+00 
       5.284436902701e-02       2.110086115442e+00 
       5.689644391095e-02       2.003538950092e+00 
       6.051252627066e-02       1.923052861229e+00 
       6.388413457411e-02       1.852733984057e+00 
       6.711249296401e-02       1.784560588665e+00 
       7.025823437965e-02       1.714277477108e+00 
       7.336115587705e-02       1.639814805886e+00 
       7.644928796912e-02       1.560662336608e+00 
       7.954353299775e-02       1.477460788590e+00 
       8.266024078725e-02       1.391698136981e+00 
       8.581273398637e-02       1.305462555645e+00 
       8.901225918437e-02       1.221126675686e+00 
       9.226860540985e-02       1.141079760763e+00 
       9.559052048996e-02       1.067452436429e+00 
       9.898599946599e-02       1.001891802629e+00 
       1.024624891378e-01       9.453811852630e-01 
       1.060270359164e-01       8.981492886192e-01 
       1.096863943056e-01       8.596131394805e-01 
       1.134471073830e-01       8.284041391030e-01 
       1.173155669539e-01       8.024658601138e-01 
       1.212980586983e-01       7.792288102711e-01 
       1.254007961065e-01       7.559177342584e-01 
       1.296299459934e-01       7.299840244179e-01 
       1.339916477160e-01       6.995931257284e-01 
       1.384920277736e-01       6.640792070479e-01 
       1.431372111762e-01       6.241475011150e-01 
       1.479333307714e-01       5.817635054956e-01 
       1.528865355934e-01       5.396944894723e-01 
       1.580029992204e-01       5.008139228776e-01 
       1.632889290723e-01       4.673992270127e-01 
       1.687505775527e-01       4.405343512556e-01 
       1.743942559171e-01       4.198662758671e-01 
       1.802263517371e-01       4.036605437775e-01 
       1.862533508214e-01       3.893600791421e-01 
       1.924818644494e-01       3.741354194069e-01 
       1.989186627765e-01       3.558018152569e-01 
       2.055707152847e-01       3.339988445484e-01 
       2.124452391818e-01       3.102659277404e-01 
       2.195497567139e-01       2.871231945384e-01 
       2.268921624510e-01       2.668085662128e-01 
       2.344808017550e-01       2.504829521971e-01 
       2.423245618548e-01       2.378333263142e-01 
       2.504329772620e-01       2.271122489354e-01 
       2.588163516754e-01       2.161170596776e-01 
       2.674858990930e-01       2.035453661094e-01 
       2.764539076010e-01       1.895975333913e-01 
       2.857339303080e-01       1.757573151029e-01 
       2.953410092148e-01       1.636999644872e-01 
       3.052919395542e-01       1.539065959141e-01 
       3.156055844677e-01       1.455308833125e-01 
       3.263032530092e-01       1.372504278531e-01 
       3.374091587054e-01       1.283015958562e-01 
       3.489509817175e-01       1.191714696375e-01 
       3.609605657343e-01       1.108074672912e-01 
       3.734747921333e-01       1.036450079135e-01 
       3.865366902904e-01       9.714141530740e-02 
       4.001968667448e-01       9.061545362482e-02 
       4.145153713076e-01       8.403692386931e-02 
       4.295641718077e-01       7.789146844018e-02 
       4.454304922144e-01       7.234173688598e-02 
       4.622214006969e-01       6.709377471816e-02 
       4.800702491654e-01       6.189200782407e-02 
       4.991459272112e-01       5.692654728768e-02 
       5.196665217302e-01       5.231619034834e-02 
       5.419201087032e-01       4.783266671786e-02 
       5.662975451962e-01       4.348704968866e-02 
       5.933463737275e-01       3.933109053404e-02 
       6.238638458458e-01       3.525344234463e-02 
       6.590669257916e-01       3.126292766895e-02 
       7.009246080454e-01       2.728738182062e-02 
       7.528593308799e-01       2.327849304121e-02 
       8.213469537518e-01       1.914831803594e-02 
       9.196980813302e-01       1.481710134295e-02 
       1.075112183810e+00       1.035095592797e-02 
       1.322697471132e+00       6.379502268562e-03 
       1.662328205042e+00       3.705648817581e-03 
       2.092692408506e+00       2.124540897201e-03 
       2.634543445090e+00       1.207968280184e-03 
       3.316693691389e+00       6.817109620143e-04 
       4.175469971226e+00       3.821245119460e-04 
       5.256605252960e+00       2.128765373361e-04 
       6.617673932723e+00       1.179235170900e-04 
       8.331157880872e+00       6.498814050503e-05 
       1.048830636590e+01       3.564576463601e-05 
       1.320399541071e+01       1.946654232045e-05 
       1.662284535976e+01       1.058810245534e-05 
       2.092692243973e+01       5.737520793063e-06 
       2.634543445002e+01       3.098257933026e-06 
       3.316693691389e+01       1.667611513991e-06 
       4.175469971226e+01       8.948082862113e-07 
       5.256605252960e+01       4.787163881735e-07 
       6.617673932723e+01       2.553748613967e-07 
