# Matter power spectrum P(k) at redshift z=99
# for k=1.04775e-05 to 66.1767 h/Mpc,
# number of wavenumbers equal to 130
#    1:k (h/Mpc)              2:P (Mpc/h)^3        
       1.047750691046e-05       7.261927682275e-03 
       1.319039970183e-05       9.069258203622e-03 
       1.660572937635e-05       1.132639106945e-02 
       2.090537469327e-05       1.414527123674e-02 
       2.631830744443e-05       1.766569584402e-02 
       3.313278603720e-05       2.206225516370e-02 
       4.171170630578e-05       2.755297766809e-02 
       5.251192703764e-05       3.441013523622e-02 
       6.610859936996e-05       4.297372173612e-02 
       8.322579568497e-05       5.366826853982e-02 
       1.047750691046e-04       6.702379874074e-02 
       1.319039970183e-04       8.370193442908e-02 
       1.660572937635e-04       1.045283355586e-01 
       2.090537469327e-04       1.305329134355e-01 
       2.631830744443e-04       1.629994506915e-01 
       3.313278603720e-04       2.035264004986e-01 
       4.171170630578e-04       2.541004744716e-01 
       5.251192703764e-04       3.171839529133e-01 
       6.610859936996e-04       3.958147257198e-01 
       8.322579568497e-04       4.937136007078e-01 
       1.047750691046e-03       6.153841636900e-01 
       1.319039970183e-03       7.661720593718e-01 
       1.660572937635e-03       9.522588016930e-01 
       2.090537469327e-03       1.180312991618e+00 
       2.631830744443e-03       1.456802684256e+00 
       3.313278603720e-03       1.786503852738e+00 
       4.171170630578e-03       2.169896188099e+00 
       5.251192703764e-03       2.599430621992e+00 
       6.610859936996e-03       3.055668686873e+00 
       8.322579568497e-03       3.505724631980e+00 
       1.047750691046e-02       3.905490428804e+00 
       1.319039970183e-02       4.200914991835e+00 
       1.660572937633e-02       4.325058866446e+00 
       2.090537453514e-02       4.210196780262e+00 
       2.631818545635e-02       3.825146432130e+00 
       3.311571692125e-02       3.229053141648e+00 
       4.113809243311e-02       2.627724179610e+00 
       4.792590854610e-02       2.280788102422e+00 
       5.284436902701e-02       2.110069521533e+00 
       5.689644391095e-02       2.003522219660e+00 
       6.051252627066e-02       1.923043424041e+00 
       6.388413457411e-02       1.852716398320e+00 
       6.711249296401e-02       1.784547799160e+00 
       7.025823437965e-02       1.714262656314e+00 
       7.336115587705e-02       1.639796846325e+00 
       7.644928796912e-02       1.560639268784e+00 
       7.954353299775e-02       1.477435488569e+00 
       8.266024078725e-02       1.391677292682e+00 
       8.581273398637e-02       1.305442950335e+00 
       8.901225918437e-02       1.221105292968e+00 
       9.226860540985e-02       1.141057536542e+00 
       9.559052048996e-02       1.067431373030e+00 
       9.898599946599e-02       1.001872259654e+00 
       1.024624891378e-01       9.453600361910e-01 
       1.060270359164e-01       8.981264311176e-01 
       1.096863943056e-01       8.595898032902e-01 
       1.134471073830e-01       8.283805400487e-01 
       1.173155669539e-01       8.024409074077e-01 
       1.212980586983e-01       7.792048868909e-01 
       1.254007961065e-01       7.558914215861e-01 
       1.296299459934e-01       7.299553080606e-01 
       1.339916477160e-01       6.995668125312e-01 
       1.384920277736e-01       6.640509592532e-01 
       1.431372111762e-01       6.241185601091e-01 
       1.479333307714e-01       5.817363934760e-01 
       1.528865355934e-01       5.396628008925e-01 
       1.580029992204e-01       5.007869310425e-01 
       1.632889290723e-01       4.673708776386e-01 
       1.687505775527e-01       4.405052281436e-01 
       1.743942559171e-01       4.198375640606e-01 
       1.802263517371e-01       4.036313935351e-01 
       1.862533508214e-01       3.893305998109e-01 
       1.924818644494e-01       3.741055707715e-01 
       1.989186627765e-01       3.557722433279e-01 
       2.055707152847e-01       3.339701573529e-01 
       2.124452391818e-01       3.102375707471e-01 
       2.195497567139e-01       2.870933310271e-01 
       2.268921624510e-01       2.667789462678e-01 
       2.344808017550e-01       2.504537402350e-01 
       2.423245618548e-01       2.378041570766e-01 
       2.504329772620e-01       2.270821742358e-01 
       2.588163516754e-01       2.160876260149e-01 
       2.674858990930e-01       2.035160090963e-01 
       2.764539076010e-01       1.895680028034e-01 
       2.857339303080e-01       1.757276660938e-01 
       2.953410092148e-01       1.636702322331e-01 
       3.052919395542e-01       1.538780423686e-01 
       3.156055844677e-01       1.455024935650e-01 
       3.263032530092e-01       1.372209192126e-01 
       3.374091587054e-01       1.282733762864e-01 
       3.489509817175e-01       1.191426248559e-01 
       3.609605657343e-01       1.107789458290e-01 
       3.734747921333e-01       1.036172993617e-01 
       3.865366902904e-01       9.711353696949e-02 
       4.001968667448e-01       9.058789289810e-02 
       4.145153713076e-01       8.400969418189e-02 
       4.295641718077e-01       7.786416397999e-02 
       4.454304922144e-01       7.231503190322e-02 
       4.622214006969e-01       6.706742927523e-02 
       4.800702491654e-01       6.186569571890e-02 
       4.991459272112e-01       5.690064463203e-02 
       5.196665217302e-01       5.229075951439e-02 
       5.419201087032e-01       4.780744354127e-02 
       5.662975451962e-01       4.346235578925e-02 
       5.933463737275e-01       3.930679740962e-02 
       6.238638458458e-01       3.522970092330e-02 
       6.590669257916e-01       3.123963385817e-02 
       7.009246080454e-01       2.726468197383e-02 
       7.528593308799e-01       2.325649671369e-02 
       8.213469537518e-01       1.912713536680e-02 
       9.196980813302e-01       1.479700330627e-02 
       1.075112183810e+00       1.033245339060e-02 
       1.322697471132e+00       6.362941685470e-03 
       1.662328205042e+00       3.691182520630e-03 
       2.092692408506e+00       2.111927360450e-03 
       2.634543445090e+00       1.197035658958e-03 
       3.316693691389e+00       6.723020836328e-04 
       4.175469971226e+00       3.740523019555e-04 
       5.256605252960e+00       2.059958367005e-04 
       6.617673932723e+00       1.120971767226e-04 
       8.331157880872e+00       6.009325697412e-05 
       1.048830636590e+01       3.157943293003e-05 
       1.320399541071e+01       1.613839584268e-05 
       1.662284535976e+01       7.919520342589e-06 
       2.092692243973e+01       3.657122668437e-06 
       2.634543445002e+01       1.537229596252e-06 
       3.316693691389e+01       5.546929769375e-07 
       4.175469971226e+01       1.526072897582e-07 
       5.256605252960e+01       2.303632447347e-08 
       6.617673932723e+01       7.393917139237e-11 
