# Matter power spectrum P(k) at redshift z=99
# for k=1.04775e-05 to 66.1767 h/Mpc,
# number of wavenumbers equal to 130
#    1:k (h/Mpc)              2:P (Mpc/h)^3        
       1.047750691046e-05       7.261927680862e-03 
       1.319039970183e-05       9.069258201849e-03 
       1.660572937635e-05       1.132639106725e-02 
       2.090537469327e-05       1.414527123399e-02 
       2.631830744443e-05       1.766569584058e-02 
       3.313278603720e-05       2.206225515942e-02 
       4.171170630578e-05       2.755297766277e-02 
       5.251192703764e-05       3.441013522947e-02 
       6.610859936996e-05       4.297372172778e-02 
       8.322579568497e-05       5.366826852944e-02 
       1.047750691046e-04       6.702379872774e-02 
       1.319039970183e-04       8.370193441286e-02 
       1.660572937635e-04       1.045283355384e-01 
       2.090537469327e-04       1.305329134104e-01 
       2.631830744443e-04       1.629994506605e-01 
       3.313278603720e-04       2.035264004601e-01 
       4.171170630578e-04       2.541004744243e-01 
       5.251192703764e-04       3.171839528557e-01 
       6.610859936996e-04       3.958147256513e-01 
       8.322579568497e-04       4.937136006279e-01 
       1.047750691046e-03       6.153841636041e-01 
       1.319039970183e-03       7.661720592265e-01 
       1.660572937635e-03       9.522588016474e-01 
       2.090537469327e-03       1.180312991699e+00 
       2.631830744443e-03       1.456802684686e+00 
       3.313278603720e-03       1.786503854036e+00 
       4.171170630578e-03       2.169896195055e+00 
       5.251192703764e-03       2.599430630721e+00 
       6.610859936996e-03       3.055668712309e+00 
       8.322579568497e-03       3.505725598534e+00 
       1.047750691046e-02       3.905491636056e+00 
       1.319039970183e-02       4.200915400546e+00 
       1.660572937633e-02       4.325059678580e+00 
       2.090537453514e-02       4.210203181388e+00 
       2.631818545635e-02       3.825150134650e+00 
       3.311571692125e-02       3.229058656640e+00 
       4.113809243311e-02       2.627731427282e+00 
       4.792590854610e-02       2.280793579085e+00 
       5.284436902701e-02       2.110085844002e+00 
       5.689644391095e-02       2.003538981086e+00 
       6.051252627066e-02       1.923055600430e+00 
       6.388413457411e-02       1.852734733520e+00 
       6.711249296401e-02       1.784565142031e+00 
       7.025823437965e-02       1.714274163430e+00 
       7.336115587705e-02       1.639815702242e+00 
       7.644928796912e-02       1.560660502610e+00 
       7.954353299775e-02       1.477458168420e+00 
       8.266024078725e-02       1.391696677679e+00 
       8.581273398637e-02       1.305461624558e+00 
       8.901225918437e-02       1.221128815051e+00 
       9.226860540985e-02       1.141080069049e+00 
       9.559052048996e-02       1.067450898416e+00 
       9.898599946599e-02       1.001890532415e+00 
       1.024624891378e-01       9.453795034446e-01 
       1.060270359164e-01       8.981495005541e-01 
       1.096863943056e-01       8.596125394851e-01 
       1.134471073830e-01       8.284068520673e-01 
       1.173155669539e-01       8.024662923109e-01 
       1.212980586983e-01       7.792286836341e-01 
       1.254007961065e-01       7.559180346004e-01 
       1.296299459934e-01       7.299818971592e-01 
       1.339916477160e-01       6.995927586329e-01 
       1.384920277736e-01       6.640778861931e-01 
       1.431372111762e-01       6.241478274210e-01 
       1.479333307714e-01       5.817646135223e-01 
       1.528865355934e-01       5.396938066668e-01 
       1.580029992204e-01       5.008138759500e-01 
       1.632889290723e-01       4.673981925304e-01 
       1.687505775527e-01       4.405342711178e-01 
       1.743942559171e-01       4.198650205414e-01 
       1.802263517371e-01       4.036616270614e-01 
       1.862533508214e-01       3.893592187044e-01 
       1.924818644494e-01       3.741350725921e-01 
       1.989186627765e-01       3.558030195460e-01 
       2.055707152847e-01       3.339986055256e-01 
       2.124452391818e-01       3.102652906618e-01 
       2.195497567139e-01       2.871234040881e-01 
       2.268921624510e-01       2.668087671172e-01 
       2.344808017550e-01       2.504832494733e-01 
       2.423245618548e-01       2.378332520224e-01 
       2.504329772620e-01       2.271121043701e-01 
       2.588163516754e-01       2.161171926422e-01 
       2.674858990930e-01       2.035453666013e-01 
       2.764539076010e-01       1.895976711853e-01 
       2.857339303080e-01       1.757567608995e-01 
       2.953410092148e-01       1.636999816643e-01 
       3.052919395542e-01       1.539064192137e-01 
       3.156055844677e-01       1.455314652931e-01 
       3.263032530092e-01       1.372498734862e-01 
       3.374091587054e-01       1.283019825005e-01 
       3.489509817175e-01       1.191715763291e-01 
       3.609605657343e-01       1.108074514410e-01 
       3.734747921333e-01       1.036456719325e-01 
       3.865366902904e-01       9.714133023333e-02 
       4.001968667448e-01       9.061537634519e-02 
       4.145153713076e-01       8.403741598486e-02 
       4.295641718077e-01       7.789149677793e-02 
       4.454304922144e-01       7.234190500544e-02 
       4.622214006969e-01       6.709376805763e-02 
       4.800702491654e-01       6.189187044090e-02 
       4.991459272112e-01       5.692649558566e-02 
       5.196665217302e-01       5.231611708468e-02 
       5.419201087032e-01       4.783260191623e-02 
       5.662975451962e-01       4.348696309992e-02 
       5.933463737275e-01       3.933113010889e-02 
       6.238638458458e-01       3.525352930912e-02 
       6.590669257916e-01       3.126294765395e-02 
       7.009246080454e-01       2.728733498710e-02 
       7.528593308799e-01       2.327851398454e-02 
       8.213469537518e-01       1.914826846455e-02 
       9.196980813302e-01       1.481700975247e-02 
       1.075112183810e+00       1.035090535546e-02 
       1.322697471132e+00       6.379476142566e-03 
       1.662328205042e+00       3.705673813581e-03 
       2.092692408506e+00       2.124549120686e-03 
       2.634543445090e+00       1.207964729109e-03 
       3.316693691389e+00       6.817146274099e-04 
       4.175469971226e+00       3.821216637282e-04 
       5.256605252960e+00       2.128737630911e-04 
       6.617673932723e+00       1.179230653118e-04 
       8.331157880872e+00       6.498705139914e-05 
       1.048830636590e+01       3.564545268764e-05 
       1.320399541071e+01       1.946622408207e-05 
       1.662284535976e+01       1.058787276673e-05 
       2.092692243973e+01       5.737360558248e-06 
       2.634543445002e+01       3.098128336357e-06 
       3.316693691389e+01       1.667505426719e-06 
       4.175469971226e+01       8.947365510389e-07 
       5.256605252960e+01       4.786688154019e-07 
       6.617673932723e+01       2.553340331529e-07 
