# Matter power spectrum P(k) at redshift z=99
# for k=1.04775e-05 to 66.1767 h/Mpc,
# number of wavenumbers equal to 130
#    1:k (h/Mpc)              2:P (Mpc/h)^3        
       1.047750691046e-05       7.261940230169e-03 
       1.319039970183e-05       9.069274388622e-03 
       1.660572937635e-05       1.132641241697e-02 
       2.090537469327e-05       1.414529553110e-02 
       2.631830744443e-05       1.766572616946e-02 
       3.313278603720e-05       2.206229323845e-02 
       4.171170630578e-05       2.755302519646e-02 
       5.251192703764e-05       3.441019344176e-02 
       6.610859936996e-05       4.297379588506e-02 
       8.322579568497e-05       5.366836155582e-02 
       1.047750691046e-04       6.702391418222e-02 
       1.319039970183e-04       8.370207741683e-02 
       1.660572937635e-04       1.045285138143e-01 
       2.090537469327e-04       1.305331364299e-01 
       2.631830744443e-04       1.629997269209e-01 
       3.313278603720e-04       2.035267423396e-01 
       4.171170630578e-04       2.541008928442e-01 
       5.251192703764e-04       3.171844625985e-01 
       6.610859936996e-04       3.958153331718e-01 
       8.322579568497e-04       4.937143020701e-01 
       1.047750691046e-03       6.153849235006e-01 
       1.319039970183e-03       7.661727714565e-01 
       1.660572937635e-03       9.522592047605e-01 
       2.090537469327e-03       1.180312220663e+00 
       2.631830744443e-03       1.456798673674e+00 
       3.313278603720e-03       1.786491708261e+00 
       4.171170630578e-03       2.169863960388e+00 
       5.251192703764e-03       2.599348817616e+00 
       6.610859936996e-03       3.055465075222e+00 
       8.322579568497e-03       3.505229322506e+00 
       1.047750691046e-02       3.904309821985e+00 
       1.319039970183e-02       4.198203639372e+00 
       1.660572937633e-02       4.319084223619e+00 
       2.090537453514e-02       4.197646346774e+00 
       2.631818545635e-02       3.800357742762e+00 
       3.311571692125e-02       3.183777182630e+00 
       4.113809243311e-02       2.553930056479e+00 
       4.792590854610e-02       2.181510981258e+00 
       5.284436902701e-02       1.992464700730e+00 
       5.689644391095e-02       1.871400445225e+00 
       6.051252627066e-02       1.778786691361e+00 
       6.388413457411e-02       1.698105190034e+00 
       6.711249296401e-02       1.621085000709e+00 
       7.025823437965e-02       1.543274724067e+00 
       7.336115587705e-02       1.462495711770e+00 
       7.644928796912e-02       1.378092550006e+00 
       7.954353299775e-02       1.290551596489e+00 
       8.266024078725e-02       1.201196287479e+00 
       8.581273398637e-02       1.111904998956e+00 
       8.901225918437e-02       1.024838622794e+00 
       9.226860540985e-02       9.421591078428e-01 
       9.559052048996e-02       8.657653023438e-01 
       9.898599946599e-02       7.971087436592e-01 
       1.024624891378e-01       7.370197459332e-01 
       1.060270359164e-01       6.856368942991e-01 
       1.096863943056e-01       6.423968109777e-01 
       1.134471073830e-01       6.060844786016e-01 
       1.173155669539e-01       5.749231937381e-01 
       1.212980586983e-01       5.467603195088e-01 
       1.254007961065e-01       5.193054565604e-01 
       1.296299459934e-01       4.904887610287e-01 
       1.339916477160e-01       4.588351628276e-01 
       1.384920277736e-01       4.238226736827e-01 
       1.431372111762e-01       3.860223627352e-01 
       1.479333307714e-01       3.469894520302e-01 
       1.528865355934e-01       3.088540635183e-01 
       1.580029992204e-01       2.737677435181e-01 
       1.632889290723e-01       2.433443777386e-01 
       1.687505775527e-01       2.182711451789e-01 
       1.743942559171e-01       1.982108829772e-01 
       1.802263517371e-01       1.819178072645e-01 
       1.862533508214e-01       1.676842193814e-01 
       1.924818644494e-01       1.536818545769e-01 
       1.989186627765e-01       1.385409890447e-01 
       2.055707152847e-01       1.220506950473e-01 
       2.124452391818e-01       1.051477631354e-01 
       2.195497567139e-01       8.927964413900e-02 
       2.268921624510e-01       7.562516172830e-02 
       2.344808017550e-01       6.468733999465e-02 
       2.423245618548e-01       5.619159179979e-02 
       2.504329772620e-01       4.922529329878e-02 
       2.588163516754e-01       4.274798060784e-02 
       2.674858990930e-01       3.618249379522e-02 
       2.764539076010e-01       2.961119016578e-02 
       2.857339303080e-01       2.360001513369e-02 
       2.953410092148e-01       1.870085410507e-02 
       3.052919395542e-01       1.497486007557e-02 
       3.156055844677e-01       1.207453378675e-02 
       3.263032530092e-01       9.572678510212e-03 
       3.374091587054e-01       7.249395696046e-03 
       3.489509817175e-01       5.207002214987e-03 
       3.609605657343e-01       3.608905939860e-03 
       3.734747921333e-01       2.469701920891e-03 
       3.865366902904e-01       1.641853234220e-03 
       4.001968667448e-01       9.983457298356e-04 
       4.145153713076e-01       5.172945363739e-04 
       4.295641718077e-01       2.149455693680e-04 
       4.454304922144e-01       5.988159110168e-05 
       4.622214006969e-01       2.675414112778e-06 
       4.800702491654e-01       1.674573292423e-05 
       4.991459272112e-01       8.377845737974e-05 
       5.196665217302e-01       1.747455129119e-04 
       5.419201087032e-01       2.763713425918e-04 
       5.662975451962e-01       3.737873444267e-04 
       5.933463737275e-01       4.464234232695e-04 
       6.238638458458e-01       4.892518232390e-04 
       6.590669257916e-01       4.900511001449e-04 
       7.009246080454e-01       4.456743270269e-04 
       7.528593308799e-01       3.546125437023e-04 
       8.213469537518e-01       2.270585321570e-04 
       9.196980813302e-01       9.256472650101e-05 
       1.075112183810e+00       9.561360779529e-06 
       1.322697471132e+00       1.769818813752e-06 
       1.662328205042e+00       1.819199533312e-06 
       2.092692408506e+00       1.395450150985e-08 
       2.634543445090e+00       2.351526214086e-08 
       3.316693691389e+00       3.755266967911e-11 
       4.175469971226e+00       3.779726007145e-11 
       5.256605252960e+00       1.101834913394e-11 
       6.617673932723e+00       1.062758565084e-12 
       8.331157880872e+00       6.841435302370e-13 
       1.048830636590e+01       2.700057604643e-13 
       1.320399541071e+01       1.086390104511e-13 
       1.662284535976e+01       4.121953262500e-14 
       2.092692243973e+01       1.541219169204e-14 
       2.634543445002e+01       5.596330469378e-15 
       3.316693691389e+01       1.913017848209e-15 
       4.175469971226e+01       6.384748239690e-16 
       5.256605252960e+01       2.132713970416e-16 
       6.617673932723e+01       7.704685580011e-17 
