# Matter power spectrum P(k) at redshift z=99
# for k=1.04775e-05 to 66.1767 h/Mpc,
# number of wavenumbers equal to 130
#    1:k (h/Mpc)              2:P (Mpc/h)^3        
       1.047750691046e-05       7.261927681041e-03 
       1.319039970183e-05       9.069258202072e-03 
       1.660572937635e-05       1.132639106753e-02 
       2.090537469327e-05       1.414527123434e-02 
       2.631830744443e-05       1.766569584102e-02 
       3.313278603720e-05       2.206225515997e-02 
       4.171170630578e-05       2.755297766344e-02 
       5.251192703764e-05       3.441013523032e-02 
       6.610859936996e-05       4.297372172883e-02 
       8.322579568497e-05       5.366826853076e-02 
       1.047750691046e-04       6.702379872939e-02 
       1.319039970183e-04       8.370193441491e-02 
       1.660572937635e-04       1.045283355410e-01 
       2.090537469327e-04       1.305329134136e-01 
       2.631830744443e-04       1.629994506644e-01 
       3.313278603720e-04       2.035264004650e-01 
       4.171170630578e-04       2.541004744302e-01 
       5.251192703764e-04       3.171839528629e-01 
       6.610859936996e-04       3.958147256598e-01 
       8.322579568497e-04       4.937136006366e-01 
       1.047750691046e-03       6.153841636144e-01 
       1.319039970183e-03       7.661720592328e-01 
       1.660572937635e-03       9.522588016482e-01 
       2.090537469327e-03       1.180312991678e+00 
       2.631830744443e-03       1.456802684601e+00 
       3.313278603720e-03       1.786503853795e+00 
       4.171170630578e-03       2.169896192419e+00 
       5.251192703764e-03       2.599430629030e+00 
       6.610859936996e-03       3.055668694859e+00 
       8.322579568497e-03       3.505725587629e+00 
       1.047750691046e-02       3.905491535168e+00 
       1.319039970183e-02       4.200915211250e+00 
       1.660572937633e-02       4.325059886791e+00 
       2.090537453514e-02       4.210204684480e+00 
       2.631818545635e-02       3.825148533999e+00 
       3.311571692125e-02       3.229067546386e+00 
       4.113809243311e-02       2.627723550824e+00 
       4.792590854610e-02       2.280789253765e+00 
       5.284436902701e-02       2.110084873559e+00 
       5.689644391095e-02       2.003541097785e+00 
       6.051252627066e-02       1.923051708012e+00 
       6.388413457411e-02       1.852728102652e+00 
       6.711249296401e-02       1.784557564493e+00 
       7.025823437965e-02       1.714268016563e+00 
       7.336115587705e-02       1.639804504284e+00 
       7.644928796912e-02       1.560652246613e+00 
       7.954353299775e-02       1.477445295237e+00 
       8.266024078725e-02       1.391684800849e+00 
       8.581273398637e-02       1.305450762048e+00 
       8.901225918437e-02       1.221113174181e+00 
       9.226860540985e-02       1.141066521465e+00 
       9.559052048996e-02       1.067435865579e+00 
       9.898599946599e-02       1.001874768573e+00 
       1.024624891378e-01       9.453652753407e-01 
       1.060270359164e-01       8.981341598187e-01 
       1.096863943056e-01       8.595953821743e-01 
       1.134471073830e-01       8.283860408339e-01 
       1.173155669539e-01       8.024454609382e-01 
       1.212980586983e-01       7.792105324870e-01 
       1.254007961065e-01       7.558941168860e-01 
       1.296299459934e-01       7.299564821099e-01 
       1.339916477160e-01       6.995664581334e-01 
       1.384920277736e-01       6.640521437562e-01 
       1.431372111762e-01       6.241192614925e-01 
       1.479333307714e-01       5.817337307464e-01 
       1.528865355934e-01       5.396635174424e-01 
       1.580029992204e-01       5.007823148731e-01 
       1.632889290723e-01       4.673659869490e-01 
       1.687505775527e-01       4.405000693308e-01 
       1.743942559171e-01       4.198304349506e-01 
       1.802263517371e-01       4.036222582918e-01 
       1.862533508214e-01       3.893200349678e-01 
       1.924818644494e-01       3.740939730809e-01 
       1.989186627765e-01       3.557597966324e-01 
       2.055707152847e-01       3.339542095021e-01 
       2.124452391818e-01       3.102209048301e-01 
       2.195497567139e-01       2.870749467059e-01 
       2.268921624510e-01       2.667596666438e-01 
       2.344808017550e-01       2.504323122620e-01 
       2.423245618548e-01       2.377808260605e-01 
       2.504329772620e-01       2.270563556126e-01 
       2.588163516754e-01       2.160598696434e-01 
       2.674858990930e-01       2.034857027156e-01 
       2.764539076010e-01       1.895356642308e-01 
       2.857339303080e-01       1.756938318504e-01 
       2.953410092148e-01       1.636345167538e-01 
       3.052919395542e-01       1.538391107869e-01 
       3.156055844677e-01       1.454610072013e-01 
       3.263032530092e-01       1.371771959319e-01 
       3.374091587054e-01       1.282269304213e-01 
       3.489509817175e-01       1.190939773857e-01 
       3.609605657343e-01       1.107280740897e-01 
       3.734747921333e-01       1.035632210201e-01 
       3.865366902904e-01       9.705651305176e-02 
       4.001968667448e-01       9.052793335742e-02 
       4.145153713076e-01       8.394710627712e-02 
       4.295641718077e-01       7.779834919439e-02 
       4.454304922144e-01       7.224586559331e-02 
       4.622214006969e-01       6.699495430435e-02 
       4.800702491654e-01       6.179009194398e-02 
       4.991459272112e-01       5.682143542028e-02 
       5.196665217302e-01       5.220799211674e-02 
       5.419201087032e-01       4.772089189045e-02 
       5.662975451962e-01       4.337142265477e-02 
       5.933463737275e-01       3.921153536586e-02 
       6.238638458458e-01       3.512960772278e-02 
       6.590669257916e-01       3.113436543508e-02 
       7.009246080454e-01       2.715340568983e-02 
       7.528593308799e-01       2.313835254407e-02 
       8.213469537518e-01       1.900046094741e-02 
       9.196980813302e-01       1.465947107705e-02 
       1.075112183810e+00       1.018015014274e-02 
       1.322697471132e+00       6.192455614204e-03 
       1.662328205042e+00       3.503773313577e-03 
       2.092692408506e+00       1.912719368872e-03 
       2.634543445090e+00       9.938399626670e-04 
       3.316693691389e+00       4.756551109738e-04 
       4.175469971226e+00       1.968145773398e-04 
       5.256605252960e+00       6.133900181015e-05 
       6.617673932723e+00       9.466460055520e-06 
       8.331157880872e+00       3.870342125814e-08 
       1.048830636590e+01       3.534647572044e-06 
       1.320399541071e+01       4.091469946545e-06 
       1.662284535976e+01       1.202603735594e-06 
       2.092692243973e+01       3.712520613821e-10 
       2.634543445002e+01       1.424025920950e-07 
       3.316693691389e+01       1.427122027842e-08 
       4.175469971226e+01       5.854794360314e-09 
       5.256605252960e+01       1.989607259682e-11 
       6.617673932723e+01       6.888339007674e-11 
