# Matter power spectrum P(k) at redshift z=0
# for k=1.04775e-05 to 67.6233 h/Mpc,
# number of wavenumbers equal to 246
#    1:k (h/Mpc)              2:P (Mpc/h)^3        
       1.047750691046e-05       5.020963976715e+01 
       1.131335172503e-05       5.407048211232e+01 
       1.221587619537e-05       5.822818810152e+01 
       1.319039970183e-05       6.270560397085e+01 
       1.424266597921e-05       6.752731507861e+01 
       1.537887696968e-05       7.271977205836e+01 
       1.660572937635e-05       7.831145628982e+01 
       1.793045413292e-05       8.433314142001e+01 
       1.936085902198e-05       9.081778249337e+01 
       2.090537469327e-05       9.780106872159e+01 
       2.257310435294e-05       1.053212749300e+02 
       2.437387741694e-05       1.134197355996e+02 
       2.631830744443e-05       1.221408192917e+02 
       2.841785469300e-05       1.315324601944e+02 
       3.068489366414e-05       1.416461655783e+02 
       3.313278603720e-05       1.525374504694e+02 
       3.577595942169e-05       1.642660477557e+02 
       3.862999239199e-05       1.768963636748e+02 
       4.171170630578e-05       1.904975985944e+02 
       4.503926444729e-05       2.051444278124e+02 
       4.863227907969e-05       2.209171465178e+02 
       5.251192703764e-05       2.379022226481e+02 
       5.670107454120e-05       2.561927815096e+02 
       6.122441196689e-05       2.758890491695e+02 
       6.610859936996e-05       2.970989292829e+02 
       7.138242361596e-05       3.199385573411e+02 
       7.707696804727e-05       3.445329783974e+02 
       8.322579568497e-05       3.710167318899e+02 
       8.986514704559e-05       3.995346445891e+02 
       9.703415373875e-05       4.302425395029e+02 
       1.047750691046e-04       4.633080766285e+02 
       1.131335172503e-04       4.989116274505e+02 
       1.221587619537e-04       5.372471951898e+02 
       1.319039970183e-04       5.785234115887e+02 
       1.424266597921e-04       6.229645947859e+02 
       1.537887696968e-04       6.708118490550e+02 
       1.660572937635e-04       7.223242660880e+02 
       1.793045413292e-04       7.777801571389e+02 
       1.936085902198e-04       8.374783614706e+02 
       2.090537469327e-04       9.017396271601e+02 
       2.257310435294e-04       9.709080262632e+02 
       2.437387741694e-04       1.045352449481e+03 
       2.631830744443e-04       1.125468123451e+03 
       2.841785469300e-04       1.211678180242e+03 
       3.068489366414e-04       1.304435249732e+03 
       3.313278603720e-04       1.404223053575e+03 
       3.577595942169e-04       1.511558014489e+03 
       3.862999239199e-04       1.626990839979e+03 
       4.171170630578e-04       1.751108028313e+03 
       4.503926444729e-04       1.884533383993e+03 
       4.863227907969e-04       2.027929377918e+03 
       5.251192703764e-04       2.181998447917e+03 
       5.670107454121e-04       2.347484101803e+03 
       6.122441196689e-04       2.525171869139e+03 
       6.610859936996e-04       2.715889982614e+03 
       7.138242361596e-04       2.920509687791e+03 
       7.707696804727e-04       3.139945095983e+03 
       8.322579568497e-04       3.375152332287e+03 
       8.986514704559e-04       3.627127798814e+03 
       9.703415373875e-04       3.896905442522e+03 
       1.047750691046e-03       4.185552159622e+03 
       1.131335172503e-03       4.494162409347e+03 
       1.221587619537e-03       4.823850677279e+03 
       1.319039970183e-03       5.175742699215e+03 
       1.424266597921e-03       5.551019554948e+03 
       1.537887696968e-03       5.950788254507e+03 
       1.660572937635e-03       6.376122890049e+03 
       1.793045413292e-03       6.828073662424e+03 
       1.936085902198e-03       7.307625016190e+03 
       2.090537469327e-03       7.815671349707e+03 
       2.257310435294e-03       8.352989535618e+03 
       2.437387741694e-03       8.920209805627e+03 
       2.631830744443e-03       9.517781189193e+03 
       2.841785469300e-03       1.014593432523e+04 
       3.068489366414e-03       1.080464093314e+04 
       3.313278603720e-03       1.149356853638e+04 
       3.577595942169e-03       1.221202734853e+04 
       3.862999239199e-03       1.295891249045e+04 
       4.171170630578e-03       1.373264165914e+04 
       4.503926444729e-03       1.453109145184e+04 
       4.863227907969e-03       1.535151076361e+04 
       5.251192703764e-03       1.619057861110e+04 
       5.670107454120e-03       1.704423513168e+04 
       6.122441196689e-03       1.790744995047e+04 
       6.610859936996e-03       1.877444891301e+04 
       7.138242361596e-03       1.963851084289e+04 
       7.707696804727e-03       2.049186159942e+04 
       8.322579568496e-03       2.132570212609e+04 
       8.986514704559e-03       2.212998685214e+04 
       9.703415373875e-03       2.289369132702e+04 
       1.047750691046e-02       2.360443962294e+04 
       1.131335172503e-02       2.424882677049e+04 
       1.221587619537e-02       2.481233647458e+04 
       1.319039970183e-02       2.527965470045e+04 
       1.424266597920e-02       2.563476063777e+04 
       1.537887696964e-02       2.586157323105e+04 
       1.660572937560e-02       2.594431280180e+04 
       1.793045412207e-02       2.586849436613e+04 
       1.936085889642e-02       2.562195568512e+04 
       2.090537351881e-02       2.519604787702e+04 
       2.257309534705e-02       2.458725160869e+04 
       2.437382002240e-02       2.379882194055e+04 
       2.631799943729e-02       2.284242032686e+04 
       2.841644544598e-02       2.173912743224e+04 
       3.067933354524e-02       2.052137649503e+04 
       3.311368469821e-02       1.923272262433e+04 
       3.571840442514e-02       1.792721898882e+04 
       3.847720347390e-02       1.666615537563e+04 
       4.135335537314e-02       1.550861530138e+04 
       4.429361666563e-02       1.449779155803e+04 
       4.724366437916e-02       1.365042442552e+04 
       5.016480834039e-02       1.295698928388e+04 
       5.303989618930e-02       1.239063502683e+04 
       5.586870668205e-02       1.191908954849e+04 
       5.866042679206e-02       1.151054264061e+04 
       6.142798931504e-02       1.113725649993e+04 
       6.418496438662e-02       1.077613622083e+04 
       6.694418832236e-02       1.040889755900e+04 
       6.971731104453e-02       1.002242823144e+04 
       7.251476154108e-02       9.608479374039e+03 
       7.534587669814e-02       9.163851356184e+03 
       7.821907664495e-02       8.690267452056e+03 
       8.114203771084e-02       8.193832552281e+03 
       8.412184533139e-02       7.684221296078e+03 
       8.716512277352e-02       7.173858617107e+03 
       9.027813693913e-02       6.676193136883e+03 
       9.346688429613e-02       6.204515231141e+03 
       9.673716026122e-02       5.770477935023e+03 
       1.000946150608e-01       5.382517589823e+03 
       1.035447986307e-01       5.045518276510e+03 
       1.070931966524e-01       4.759707228465e+03 
       1.107452594180e-01       4.520805593466e+03 
       1.145064248899e-01       4.320233465679e+03 
       1.183821370656e-01       4.145651036700e+03 
       1.223778605591e-01       3.982341094743e+03 
       1.264990921707e-01       3.814999615033e+03 
       1.307513701078e-01       3.630369070575e+03 
       1.351402814485e-01       3.419997190182e+03 
       1.396714683894e-01       3.182470549144e+03 
       1.443506337875e-01       2.923994224599e+03 
       1.491835464900e-01       2.657234186706e+03 
       1.541760469368e-01       2.397994889555e+03 
       1.593340535209e-01       2.161364141788e+03 
       1.646635701934e-01       1.957699320328e+03 
       1.701706958081e-01       1.790461179526e+03 
       1.758616357070e-01       1.655361113304e+03 
       1.817427160581e-01       1.541881192558e+03 
       1.878204014651e-01       1.437014470865e+03 
       1.941013163855e-01       1.327102108214e+03 
       2.005922709060e-01       1.204071068234e+03 
       2.073002914514e-01       1.069234254798e+03 
       2.142326570343e-01       9.319245147610e+02 
       2.213969417044e-01       8.039316402432e+02 
       2.288010639201e-01       6.937613273343e+02 
       2.364533436625e-01       6.042082071240e+02 
       2.443625682390e-01       5.317134929250e+02 
       2.525380678946e-01       4.682921140739e+02 
       2.609898025770e-01       4.062494034764e+02 
       2.697284614969e-01       3.426006783665e+02 
       2.787655775073e-01       2.797369064243e+02 
       2.881136588192e-01       2.231738805964e+02 
       2.977863412019e-01       1.769103788920e+02 
       3.077985646248e-01       1.404876646003e+02 
       3.181667793367e-01       1.106610012625e+02 
       3.289091877084e-01       8.423544644370e+01 
       3.400460298905e-01       6.032438977484e+01 
       3.515999235695e-01       4.027967541273e+01 
       3.635962710278e-01       2.520106007922e+01 
       3.760637505499e-01       1.471288493839e+01 
       3.890349143014e-01       7.483126907539e+00 
       4.025469215929e-01       2.735343792222e+00 
       4.166424455447e-01       3.547388578857e-01 
       4.313708034899e-01       1.412631354624e-01 
       4.467893781976e-01       1.522358469848e+00 
       4.629654198623e-01       4.022845966183e+00 
       4.799783500912e-01       7.388522078677e+00 
       4.979227318246e-01       1.118118336824e+01 
       5.169121269689e-01       1.483794254534e+01 
       5.370841403262e-01       1.815544965871e+01 
       5.586070463286e-01       2.090021931360e+01 
       5.816885093582e-01       2.266543776668e+01 
       6.065870143577e-01       2.331173436244e+01 
       6.336266466978e-01       2.277005567256e+01 
       6.632156057925e-01       2.096152822160e+01 
       6.958678637575e-01       1.804830600228e+01 
       7.322247983784e-01       1.426807755077e+01 
       7.730680193171e-01       1.006624489091e+01 
       8.193049551574e-01       6.009192792043e+00 
       8.718988013754e-01       2.726701800554e+00 
       9.317218028590e-01       6.976374939416e-01 
       9.993660906273e-01       8.032920766069e-03 
       1.075037109879e+00       2.429750296035e-01 
       1.158653485387e+00       7.105830950968e-01 
       1.250099156961e+00       8.826030743741e-01 
       1.349432400897e+00       6.660172277604e-01 
       1.456947456991e+00       3.029334671617e-01 
       1.573135110893e+00       5.788986861122e-02 
       1.698621895119e+00       4.700301220106e-04 
       1.834127512423e+00       3.107915336348e-02 
       1.980444933977e+00       4.374879267415e-02 
       2.138435191130e+00       2.260128256690e-02 
       2.309029198543e+00       3.105361627672e-03 
       2.493232376993e+00       4.274181843020e-04 
       2.692130394536e+00       2.536823411064e-03 
       2.906895533764e+00       1.442866763414e-03 
       3.138793596840e+00       8.934335561241e-05 
       3.389191365541e+00       9.866828540874e-05 
       3.659564656886e+00       1.348912481390e-04 
       3.951507021438e+00       1.287751494811e-05 
       4.266739135513e+00       5.919383178415e-06 
       4.607118942658e+00       5.697174203466e-06 
       4.974652604172e+00       2.728826162843e-09 
       5.371506323193e+00       8.736715398105e-07 
       5.800019112071e+00       9.153143233624e-08 
       6.262716578240e+00       1.278519629008e-08 
       6.762325809881e+00       1.030555537827e-09 
       7.301791449077e+00       1.725142974858e-08 
       7.884293047211e+00       4.779431801869e-09 
       8.513263804891e+00       1.984877904803e-09 
       9.192410806865e+00       2.651700101067e-09 
       9.925736871166e+00       1.727837354404e-09 
       1.071756414128e+01       1.146998548001e-09 
       1.157255956041e+01       8.524049975605e-10 
       1.249576237789e+01       5.805270980447e-10 
       1.349261385000e+01       3.996960723055e-10 
       1.456898931011e+01       2.675630855681e-10 
       1.573123279727e+01       1.753518204868e-10 
       1.698619444729e+01       1.128811962746e-10 
       1.834127086665e+01       7.297300100948e-11 
       1.980444872733e+01       4.570775074214e-11 
       2.138435183937e+01       2.779364605283e-11 
       2.309029197863e+01       1.671125306158e-11 
       2.493232376942e+01       9.595181523269e-12 
       2.692130394533e+01       5.219169276040e-12 
       2.906895533764e+01       2.726735947329e-12 
       3.138793596840e+01       1.356092014653e-12 
       3.389191365541e+01       6.290526009215e-13 
       3.659564656886e+01       2.624402093660e-13 
       3.951507021438e+01       9.634772076583e-14 
       4.266739135513e+01       3.084296283621e-14 
       4.607118942658e+01       6.992473156679e-15 
       4.974652604172e+01       7.727102305387e-16 
       5.371506323193e+01       3.652034297280e-18 
       5.800019112071e+01       8.712716316380e-17 
       6.262716578240e+01       1.116730478213e-16 
       6.762325809881e+01       5.796609585161e-17 
