# Matter power spectrum P(k) at redshift z=0
# for k=1.04775e-05 to 66.1767 h/Mpc,
# number of wavenumbers equal to 130
#    1:k (h/Mpc)              2:P (Mpc/h)^3        
       1.047750691046e-05       5.020964811348e+01 
       1.319039970183e-05       6.270562595427e+01 
       1.660572937635e-05       7.831147247916e+01 
       2.090537469327e-05       9.780108069639e+01 
       2.631830744443e-05       1.221408203821e+02 
       3.313278603720e-05       1.525374501933e+02 
       4.171170630578e-05       1.904975993989e+02 
       5.251192703764e-05       2.379022224223e+02 
       6.610859936996e-05       2.970989227899e+02 
       8.322579568497e-05       3.710167318946e+02 
       1.047750691046e-04       4.633080766739e+02 
       1.319039970183e-04       5.785234139858e+02 
       1.660572937635e-04       7.223242666090e+02 
       2.090537469327e-04       9.017396271821e+02 
       2.631830744443e-04       1.125468123753e+03 
       3.313278603720e-04       1.404223053680e+03 
       4.171170630578e-04       1.751108028787e+03 
       5.251192703764e-04       2.181998448126e+03 
       6.610859936996e-04       2.715889983581e+03 
       8.322579568497e-04       3.375152337101e+03 
       1.047750691046e-03       4.185552174219e+03 
       1.319039970183e-03       5.175742738924e+03 
       1.660572937635e-03       6.376123051162e+03 
       2.090537469327e-03       7.815671864303e+03 
       2.631830744443e-03       9.517783063727e+03 
       3.313278603720e-03       1.149357458727e+04 
       4.171170630578e-03       1.373266016329e+04 
       5.251192703764e-03       1.619063523749e+04 
       6.610859936996e-03       1.877460353668e+04 
       8.322579568497e-03       2.132610815201e+04 
       1.047750691046e-02       2.360548042281e+04 
       1.319039970183e-02       2.528218355131e+04 
       1.660572937633e-02       2.595024038757e+04 
       2.090537453514e-02       2.520932714853e+04 
       2.631818545635e-02       2.287018840550e+04 
       3.311571692125e-02       1.928605663697e+04 
       4.113809243311e-02       1.568396447453e+04 
       4.792590854610e-02       1.361019193758e+04 
       5.284436902701e-02       1.259076508312e+04 
       5.689644391095e-02       1.195495724836e+04 
       6.051252627066e-02       1.147474475447e+04 
       6.388413457411e-02       1.105506922127e+04 
       6.711249296401e-02       1.064811633444e+04 
       7.025823437965e-02       1.022830946684e+04 
       7.336115587705e-02       9.783473133411e+03 
       7.644928796912e-02       9.310509135972e+03 
       7.954353299775e-02       8.813302100631e+03 
       8.266024078725e-02       8.300792438268e+03 
       8.581273398637e-02       7.785558703129e+03 
       8.901225918437e-02       7.281676901749e+03 
       9.226860540985e-02       6.803568171307e+03 
       9.559052048996e-02       6.363935117278e+03 
       9.898599946599e-02       5.972606036880e+03 
       1.024624891378e-01       5.635393806913e+03 
       1.060270359164e-01       5.353774967782e+03 
       1.096863943056e-01       5.124122845768e+03 
       1.134471073830e-01       4.938231607994e+03 
       1.173155669539e-01       4.783786990394e+03 
       1.212980586983e-01       4.645415630541e+03 
       1.254007961065e-01       4.506501252634e+03 
       1.296299459934e-01       4.351742617147e+03 
       1.339916477160e-01       4.170267987584e+03 
       1.384920277736e-01       3.958085476070e+03 
       1.431372111762e-01       3.719431729965e+03 
       1.479333307714e-01       3.466182037627e+03 
       1.528865355934e-01       3.214851733931e+03 
       1.580029992204e-01       2.982666106658e+03 
       1.632889290723e-01       2.783200839422e+03 
       1.687505775527e-01       2.622904073131e+03 
       1.743942559171e-01       2.499643227998e+03 
       1.802263517371e-01       2.403026000213e+03 
       1.862533508214e-01       2.317715653012e+03 
       1.924818644494e-01       2.226791089367e+03 
       1.989186627765e-01       2.117236073851e+03 
       2.055707152847e-01       1.986884507809e+03 
       2.124452391818e-01       1.845017235908e+03 
       2.195497567139e-01       1.706712891954e+03 
       2.268921624510e-01       1.585346680572e+03 
       2.344808017550e-01       1.487821436541e+03 
       2.423245618548e-01       1.412221090157e+03 
       2.504329772620e-01       1.348125944038e+03 
       2.588163516754e-01       1.282337019812e+03 
       2.674858990930e-01       1.207113787111e+03 
       2.764539076010e-01       1.123665162419e+03 
       2.857339303080e-01       1.040879707872e+03 
       2.953410092148e-01       9.687550082008e+02 
       3.052919395542e-01       9.101326967876e+02 
       3.156055844677e-01       8.599494638776e+02 
       3.263032530092e-01       8.103115140981e+02 
       3.374091587054e-01       7.566882563720e+02 
       3.489509817175e-01       7.019929221392e+02 
       3.609605657343e-01       6.518752724131e+02 
       3.734747921333e-01       6.089132136245e+02 
       3.865366902904e-01       5.698599620808e+02 
       4.001968667448e-01       5.306745122340e+02 
       4.145153713076e-01       4.911864027925e+02 
       4.295641718077e-01       4.542779784347e+02 
       4.454304922144e-01       4.209091000380e+02 
       4.622214006969e-01       3.893298032224e+02 
       4.800702491654e-01       3.580335217541e+02 
       4.991459272112e-01       3.281435947884e+02 
       5.196665217302e-01       3.003565665891e+02 
       5.419201087032e-01       2.733241174125e+02 
       5.662975451962e-01       2.471083052775e+02 
       5.933463737275e-01       2.220107318081e+02 
       6.238638458458e-01       1.973737035469e+02 
       6.590669257916e-01       1.732400475164e+02 
       7.009246080454e-01       1.491821745252e+02 
       7.528593308799e-01       1.249078172276e+02 
       8.213469537518e-01       9.989855902276e+01 
       9.196980813302e-01       7.371026012324e+01 
       1.075112183810e+00       4.688610997420e+01 
       1.322697471132e+00       2.362723799853e+01 
       1.662328205042e+00       9.199273770675e+00 
       2.092692408506e+00       2.379936148139e+00 
       2.634543445090e+00       1.728528572893e-01 
       3.316693691389e+00       9.105305170863e-02 
       4.175469971226e+00       3.307145160994e-01 
       5.256605252960e+00       2.090045264002e-01 
       6.617673932723e+00       2.135947193048e-02 
       8.331157880872e+00       6.299553080099e-03 
       1.048830636590e+01       6.428587021227e-03 
       1.320399541071e+01       5.364128544333e-05 
       1.662284535976e+01       2.054369477896e-04 
       2.092692243973e+01       2.409285575912e-05 
       2.634543445002e+01       6.909430482762e-07 
       3.316693691389e+01       2.239147994756e-08 
       4.175469971226e+01       6.196329105325e-09 
       5.256605252960e+01       1.384673807632e-11 
       6.617673932723e+01       3.766461708022e-11 
