# Matter power spectrum P(k) at redshift z=99
# for k=1.04775e-05 to 66.1767 h/Mpc,
# number of wavenumbers equal to 130
#    1:k (h/Mpc)              2:P (Mpc/h)^3        
       1.047750691046e-05       7.261927680862e-03 
       1.319039970183e-05       9.069258201849e-03 
       1.660572937635e-05       1.132639106725e-02 
       2.090537469327e-05       1.414527123399e-02 
       2.631830744443e-05       1.766569584058e-02 
       3.313278603720e-05       2.206225515943e-02 
       4.171170630578e-05       2.755297766277e-02 
       5.251192703764e-05       3.441013522947e-02 
       6.610859936996e-05       4.297372172778e-02 
       8.322579568497e-05       5.366826852944e-02 
       1.047750691046e-04       6.702379872775e-02 
       1.319039970183e-04       8.370193441287e-02 
       1.660572937635e-04       1.045283355384e-01 
       2.090537469327e-04       1.305329134104e-01 
       2.631830744443e-04       1.629994506606e-01 
       3.313278603720e-04       2.035264004601e-01 
       4.171170630578e-04       2.541004744243e-01 
       5.251192703764e-04       3.171839528558e-01 
       6.610859936996e-04       3.958147256514e-01 
       8.322579568497e-04       4.937136006290e-01 
       1.047750691046e-03       6.153841636041e-01 
       1.319039970183e-03       7.661720592853e-01 
       1.660572937635e-03       9.522588016471e-01 
       2.090537469327e-03       1.180312991700e+00 
       2.631830744443e-03       1.456802684685e+00 
       3.313278603720e-03       1.786503854045e+00 
       4.171170630578e-03       2.169896195297e+00 
       5.251192703764e-03       2.599430630718e+00 
       6.610859936996e-03       3.055668711051e+00 
       8.322579568497e-03       3.505725598679e+00 
       1.047750691046e-02       3.905490695483e+00 
       1.319039970183e-02       4.200915411665e+00 
       1.660572937633e-02       4.325062904958e+00 
       2.090537453514e-02       4.210200396326e+00 
       2.631818545635e-02       3.825147107461e+00 
       3.311571692125e-02       3.229064880789e+00 
       4.113809243311e-02       2.627722385527e+00 
       4.792590854610e-02       2.280795566791e+00 
       5.284436902701e-02       2.110086590834e+00 
       5.689644391095e-02       2.003532673639e+00 
       6.051252627066e-02       1.923056988960e+00 
       6.388413457411e-02       1.852734009334e+00 
       6.711249296401e-02       1.784562179563e+00 
       7.025823437965e-02       1.714276074828e+00 
       7.336115587705e-02       1.639814729938e+00 
       7.644928796912e-02       1.560664791020e+00 
       7.954353299775e-02       1.477454803423e+00 
       8.266024078725e-02       1.391695871165e+00 
       8.581273398637e-02       1.305461133419e+00 
       8.901225918437e-02       1.221121192657e+00 
       9.226860540985e-02       1.141078032715e+00 
       9.559052048996e-02       1.067453159256e+00 
       9.898599946599e-02       1.001890557676e+00 
       1.024624891378e-01       9.453801693271e-01 
       1.060270359164e-01       8.981488784959e-01 
       1.096863943056e-01       8.596127936434e-01 
       1.134471073830e-01       8.284042948389e-01 
       1.173155669539e-01       8.024657816610e-01 
       1.212980586983e-01       7.792282653940e-01 
       1.254007961065e-01       7.559166664833e-01 
       1.296299459934e-01       7.299823025453e-01 
       1.339916477160e-01       6.995926773919e-01 
       1.384920277736e-01       6.640790770453e-01 
       1.431372111762e-01       6.241471712244e-01 
       1.479333307714e-01       5.817635648005e-01 
       1.528865355934e-01       5.396934444616e-01 
       1.580029992204e-01       5.008137619202e-01 
       1.632889290723e-01       4.673979233534e-01 
       1.687505775527e-01       4.405346624273e-01 
       1.743942559171e-01       4.198663149880e-01 
       1.802263517371e-01       4.036597863703e-01 
       1.862533508214e-01       3.893599807901e-01 
       1.924818644494e-01       3.741358434920e-01 
       1.989186627765e-01       3.558016224820e-01 
       2.055707152847e-01       3.339997893842e-01 
       2.124452391818e-01       3.102666071795e-01 
       2.195497567139e-01       2.871225021803e-01 
       2.268921624510e-01       2.668079076186e-01 
       2.344808017550e-01       2.504831241333e-01 
       2.423245618548e-01       2.378334956492e-01 
       2.504329772620e-01       2.271118980078e-01 
       2.588163516754e-01       2.161189112685e-01 
       2.674858990930e-01       2.035456741279e-01 
       2.764539076010e-01       1.895981459792e-01 
       2.857339303080e-01       1.757570796491e-01 
       2.953410092148e-01       1.636990768583e-01 
       3.052919395542e-01       1.539065762154e-01 
       3.156055844677e-01       1.455310752389e-01 
       3.263032530092e-01       1.372503919119e-01 
       3.374091587054e-01       1.283021049638e-01 
       3.489509817175e-01       1.191709697837e-01 
       3.609605657343e-01       1.108073132678e-01 
       3.734747921333e-01       1.036451988312e-01 
       3.865366902904e-01       9.714147354194e-02 
       4.001968667448e-01       9.061573519906e-02 
       4.145153713076e-01       8.403712962108e-02 
       4.295641718077e-01       7.789121754908e-02 
       4.454304922144e-01       7.234160584099e-02 
       4.622214006969e-01       6.709379486361e-02 
       4.800702491654e-01       6.189193853697e-02 
       4.991459272112e-01       5.692631840943e-02 
       5.196665217302e-01       5.231603439243e-02 
       5.419201087032e-01       4.783256271365e-02 
       5.662975451962e-01       4.348686708258e-02 
       5.933463737275e-01       3.933107611674e-02 
       6.238638458458e-01       3.525330010157e-02 
       6.590669257916e-01       3.126285263166e-02 
       7.009246080454e-01       2.728734274153e-02 
       7.528593308799e-01       2.327841704119e-02 
       8.213469537518e-01       1.914823382849e-02 
       9.196980813302e-01       1.481700771962e-02 
       1.075112183810e+00       1.035092180312e-02 
       1.322697471132e+00       6.379449975088e-03 
       1.662328205042e+00       3.705662275225e-03 
       2.092692408506e+00       2.124528399846e-03 
       2.634543445090e+00       1.207953588531e-03 
       3.316693691389e+00       6.817016838500e-04 
       4.175469971226e+00       3.821135855350e-04 
       5.256605252960e+00       2.128664383394e-04 
       6.617673932723e+00       1.179140745073e-04 
       8.331157880872e+00       6.497884768553e-05 
       1.048830636590e+01       3.563715947463e-05 
       1.320399541071e+01       1.945815925180e-05 
       1.662284535976e+01       1.057993644773e-05 
       2.092692243973e+01       5.729722661792e-06 
       2.634543445002e+01       3.090779960009e-06 
       3.316693691389e+01       1.660455255121e-06 
       4.175469971226e+01       8.879351432940e-07 
       5.256605252960e+01       4.721278297227e-07 
       6.617673932723e+01       2.490833042913e-07 
