# Matter power spectrum P(k) at redshift z=0
# for k=1.04775e-05 to 66.1767 h/Mpc,
# number of wavenumbers equal to 130
#    1:k (h/Mpc)              2:P (Mpc/h)^3        
       1.047750691046e-05       5.020964811314e+01 
       1.319039970183e-05       6.270562594776e+01 
       1.660572937635e-05       7.831147247911e+01 
       2.090537469327e-05       9.780108069295e+01 
       2.631830744443e-05       1.221408203809e+02 
       3.313278603720e-05       1.525374501932e+02 
       4.171170630578e-05       1.904975994010e+02 
       5.251192703764e-05       2.379022224249e+02 
       6.610859936996e-05       2.970989227880e+02 
       8.322579568497e-05       3.710167318946e+02 
       1.047750691046e-04       4.633080766742e+02 
       1.319039970183e-04       5.785234129339e+02 
       1.660572937635e-04       7.223242666092e+02 
       2.090537469327e-04       9.017396271824e+02 
       2.631830744443e-04       1.125468123750e+03 
       3.313278603720e-04       1.404223053681e+03 
       4.171170630578e-04       1.751108028790e+03 
       5.251192703764e-04       2.181998448133e+03 
       6.610859936996e-04       2.715889983592e+03 
       8.322579568497e-04       3.375152337134e+03 
       1.047750691046e-03       4.185552174309e+03 
       1.319039970183e-03       5.175742744072e+03 
       1.660572937635e-03       6.376123051776e+03 
       2.090537469327e-03       7.815671865491e+03 
       2.631830744443e-03       9.517783069112e+03 
       3.313278603720e-03       1.149357460339e+04 
       4.171170630578e-03       1.373266008637e+04 
       5.251192703764e-03       1.619063614555e+04 
       6.610859936996e-03       1.877460420314e+04 
       8.322579568497e-03       2.132607231837e+04 
       1.047750691046e-02       2.360548886035e+04 
       1.319039970183e-02       2.528218657296e+04 
       1.660572937633e-02       2.595028249680e+04 
       2.090537453514e-02       2.520931864987e+04 
       2.631818545635e-02       2.287034628449e+04 
       3.311571692125e-02       1.928623281004e+04 
       4.113809243311e-02       1.568427080732e+04 
       4.792590854610e-02       1.361063380579e+04 
       5.284436902701e-02       1.259132029942e+04 
       5.689644391095e-02       1.195556040272e+04 
       6.051252627066e-02       1.147547058046e+04 
       6.388413457411e-02       1.105590021126e+04 
       6.711249296401e-02       1.064897137472e+04 
       7.025823437965e-02       1.022928839939e+04 
       7.336115587705e-02       9.784528032360e+03 
       7.644928796912e-02       9.311653629116e+03 
       7.954353299775e-02       8.814552584326e+03 
       8.266024078725e-02       8.302135766918e+03 
       8.581273398637e-02       7.786944341413e+03 
       8.901225918437e-02       7.283189821195e+03 
       9.226860540985e-02       6.805159860941e+03 
       9.559052048996e-02       6.365641789785e+03 
       9.898599946599e-02       5.974392729104e+03 
       1.024624891378e-01       5.637337747875e+03 
       1.060270359164e-01       5.355763946840e+03 
       1.096863943056e-01       5.126223145426e+03 
       1.134471073830e-01       4.940484887897e+03 
       1.173155669539e-01       4.786169641706e+03 
       1.212980586983e-01       4.647936221774e+03 
       1.254007961065e-01       4.509125779131e+03 
       1.296299459934e-01       4.354550567525e+03 
       1.339916477160e-01       4.173216616475e+03 
       1.384920277736e-01       3.961155742362e+03 
       1.431372111762e-01       3.722687581796e+03 
       1.479333307714e-01       3.469548561484e+03 
       1.528865355934e-01       3.218342328977e+03 
       1.580029992204e-01       2.986290917390e+03 
       1.632889290723e-01       2.786969264023e+03 
       1.687505775527e-01       2.626825492098e+03 
       1.743942559171e-01       2.503754457490e+03 
       1.802263517371e-01       2.407345935610e+03 
       1.862533508214e-01       2.322253523393e+03 
       1.924818644494e-01       2.231550545876e+03 
       1.989186627765e-01       2.122192510229e+03 
       2.055707152847e-01       1.992028542492e+03 
       2.124452391818e-01       1.850324120869e+03 
       2.195497567139e-01       1.712181362478e+03 
       2.268921624510e-01       1.590991259721e+03 
       2.344808017550e-01       1.493667384375e+03 
       2.423245618548e-01       1.418307929671e+03 
       2.504329772620e-01       1.354469318544e+03 
       2.588163516754e-01       1.288930247982e+03 
       2.674858990930e-01       1.213933511052e+03 
       2.764539076010e-01       1.130694520888e+03 
       2.857339303080e-01       1.048100030102e+03 
       2.953410092148e-01       9.761849301277e+02 
       3.052919395542e-01       9.178093833538e+02 
       3.156055844677e-01       8.678983269463e+02 
       3.263032530092e-01       8.185262052549e+02 
       3.374091587054e-01       7.651474796409e+02 
       3.489509817175e-01       7.106719697288e+02 
       3.609605657343e-01       6.607835032238e+02 
       3.734747921333e-01       6.180859348018e+02 
       3.865366902904e-01       5.793089211926e+02 
       4.001968667448e-01       5.403908875274e+02 
       4.145153713076e-01       5.011517982928e+02 
       4.295641718077e-01       4.644993741255e+02 
       4.454304922144e-01       4.314085689805e+02 
       4.622214006969e-01       4.001134990162e+02 
       4.800702491654e-01       3.690897398805e+02 
       4.991459272112e-01       3.394763659673e+02 
       5.196665217302e-01       3.119856102042e+02 
       5.419201087032e-01       2.852465695121e+02 
       5.662975451962e-01       2.593305654736e+02 
       5.933463737275e-01       2.345480493132e+02 
       6.238638458458e-01       2.102311396430e+02 
       6.590669257916e-01       1.864333981012e+02 
       7.009246080454e-01       1.627247809000e+02 
       7.528593308799e-01       1.388185847345e+02 
       8.213469537518e-01       1.141887367230e+02 
       9.196980813302e-01       8.835911441071e+01 
       1.075112183810e+00       6.172621561410e+01 
       1.322697471132e+00       3.804270676310e+01 
       1.662328205042e+00       2.209788778395e+01 
       2.092692408506e+00       1.266916297124e+01 
       2.634543445090e+00       7.203327522571e+00 
       3.316693691389e+00       4.065135756017e+00 
       4.175469971226e+00       2.278610860663e+00 
       5.256605252960e+00       1.269345608532e+00 
       6.617673932723e+00       7.031353172320e-01 
       8.331157880872e+00       3.874720091082e-01 
       1.048830636590e+01       2.125058982699e-01 
       1.320399541071e+01       1.160327847204e-01 
       1.662284535976e+01       6.309553611589e-02 
       2.092692243973e+01       3.417655000607e-02 
       2.634543445002e+01       1.844341337031e-02 
       3.316693691389e+01       9.916754073926e-03 
       4.175469971226e+01       5.312519176383e-03 
       5.256605252960e+01       2.834838269226e-03 
       6.617673932723e+01       1.506062267749e-03 
