# Matter power spectrum P(k) at redshift z=0
# for k=1.04775e-05 to 66.1767 h/Mpc,
# number of wavenumbers equal to 130
#    1:k (h/Mpc)              2:P (Mpc/h)^3        
       1.047750691046e-05       5.020963912598e+01 
       1.319039970183e-05       6.270562522906e+01 
       1.660572937635e-05       7.831146694407e+01 
       2.090537469327e-05       9.780106713060e+01 
       2.631830744443e-05       1.221408204502e+02 
       3.313278603720e-05       1.525374501954e+02 
       4.171170630578e-05       1.904975992494e+02 
       5.251192703764e-05       2.379022223353e+02 
       6.610859936996e-05       2.970989228437e+02 
       8.322579568497e-05       3.710167324543e+02 
       1.047750691046e-04       4.633080766495e+02 
       1.319039970183e-04       5.785234119733e+02 
       1.660572937635e-04       7.223242666047e+02 
       2.090537469327e-04       9.017396271815e+02 
       2.631830744443e-04       1.125468123504e+03 
       3.313278603720e-04       1.404223053665e+03 
       4.171170630578e-04       1.751108028685e+03 
       5.251192703764e-04       2.181998448010e+03 
       6.610859936996e-04       2.715889983393e+03 
       8.322579568497e-04       3.375152336234e+03 
       1.047750691046e-03       4.185552171743e+03 
       1.319039970183e-03       5.175742737307e+03 
       1.660572937635e-03       6.376123007625e+03 
       2.090537469327e-03       7.815671791056e+03 
       2.631830744443e-03       9.517782745056e+03 
       3.313278603720e-03       1.149357355981e+04 
       4.171170630578e-03       1.373265721873e+04 
       5.251192703764e-03       1.619062533928e+04 
       6.610859936996e-03       1.877457535947e+04 
       8.322579568497e-03       2.132603768653e+04 
       1.047750691046e-02       2.360528744593e+04 
       1.319039970183e-02       2.528168969880e+04 
       1.660572937633e-02       2.594908351510e+04 
       2.090537453514e-02       2.520667065899e+04 
       2.631818545635e-02       2.286461073097e+04 
       3.311571692125e-02       1.927507333367e+04 
       4.113809243311e-02       1.566475927431e+04 
       4.792590854610e-02       1.358279297020e+04 
       5.284436902701e-02       1.255693687062e+04 
       5.689644391095e-02       1.191538219302e+04 
       6.051252627066e-02       1.142987223062e+04 
       6.388413457411e-02       1.100507391084e+04 
       6.711249296401e-02       1.059309275916e+04 
       7.025823437965e-02       1.016833067620e+04 
       7.336115587705e-02       9.718542094132e+03 
       7.644928796912e-02       9.240693037211e+03 
       7.954353299775e-02       8.738613802795e+03 
       8.266024078725e-02       8.221233550762e+03 
       8.581273398637e-02       7.701092044651e+03 
       8.901225918437e-02       7.192328945197e+03 
       9.226860540985e-02       6.709268481967e+03 
       9.559052048996e-02       6.264459277194e+03 
       9.898599946599e-02       5.867839716815e+03 
       1.024624891378e-01       5.525145627514e+03 
       1.060270359164e-01       5.237520972540e+03 
       1.096863943056e-01       5.001533500397e+03 
       1.134471073830e-01       4.808940823474e+03 
       1.173155669539e-01       4.647417852596e+03 
       1.212980586983e-01       4.501756511450e+03 
       1.254007961065e-01       4.355479596033e+03 
       1.296299459934e-01       4.193553878736e+03 
       1.339916477160e-01       4.005243117723e+03 
       1.384920277736e-01       3.786682500377e+03 
       1.431372111762e-01       3.542200658742e+03 
       1.479333307714e-01       3.283458650725e+03 
       1.528865355934e-01       3.026855068296e+03 
       1.580029992204e-01       2.789213537475e+03 
       1.632889290723e-01       2.583701247481e+03 
       1.687505775527e-01       2.416505453370e+03 
       1.743942559171e-01       2.285404594745e+03 
       1.802263517371e-01       2.180150658123e+03 
       1.862533508214e-01       2.086069592573e+03 
       1.924818644494e-01       1.986933970018e+03 
       1.989186627765e-01       1.870391563744e+03 
       2.055707152847e-01       1.734568030439e+03 
       2.124452391818e-01       1.588418229571e+03 
       2.195497567139e-01       1.446231878168e+03 
       2.268921624510e-01       1.320506480085e+03 
       2.344808017550e-01       1.217486951216e+03 
       2.423245618548e-01       1.135234775103e+03 
       2.504329772620e-01       1.064122466350e+03 
       2.588163516754e-01       9.922723490302e+02 
       2.674858990930e-01       9.128635616469e+02 
       2.764539076010e-01       8.271402989051e+02 
       2.857339303080e-01       7.430161031222e+02 
       2.953410092148e-01       6.690931602512e+02 
       3.052919395542e-01       6.076368024747e+02 
       3.156055844677e-01       5.543085693907e+02 
       3.263032530092e-01       5.025874422059e+02 
       3.374091587054e-01       4.489223751290e+02 
       3.489509817175e-01       3.957231412890e+02 
       3.609605657343e-01       3.473884535906e+02 
       3.734747921333e-01       3.057628114645e+02 
       3.865366902904e-01       2.683953515147e+02 
       4.001968667448e-01       2.324258754281e+02 
       4.145153713076e-01       1.978174435804e+02 
       4.295641718077e-01       1.664896966511e+02 
       4.454304922144e-01       1.390049688206e+02 
       4.622214006969e-01       1.142768420089e+02 
       4.800702491654e-01       9.148204190790e+01 
       4.991459272112e-01       7.125122747445e+01 
       5.196665217302e-01       5.392646616385e+01 
       5.419201087032e-01       3.890484349543e+01 
       5.662975451962e-01       2.625968462178e+01 
       5.933463737275e-01       1.614340403305e+01 
       6.238638458458e-01       8.415601226686e+00 
       6.590669257916e-01       3.172286567188e+00 
       7.009246080454e-01       4.291799595159e-01 
       7.528593308799e-01       2.147638918051e-01 
       8.213469537518e-01       2.365461323074e+00 
       9.196980813302e-01       5.958877897069e+00 
       1.075112183810e+00       7.772564155438e+00 
       1.322697471132e+00       3.798034871280e+00 
       1.662328205042e+00       1.347695851890e-01 
       2.092692408506e+00       2.530053094402e-01 
       2.634543445090e+00       6.812238899696e-02 
       3.316693691389e+00       1.065889651412e-02 
       4.175469971226e+00       5.216661908782e-04 
       5.256605252960e+00       3.348677382291e-04 
       6.617673932723e+00       3.185471131825e-05 
       8.331157880872e+00       1.230207052016e-06 
       1.048830636590e+01       2.952495418614e-08 
       1.320399541071e+01       5.168989721397e-09 
       1.662284535976e+01       1.055517954462e-09 
       2.092692243973e+01       3.820568492294e-10 
       2.634543445002e+01       1.266908592795e-10 
       3.316693691389e+01       4.019832483243e-11 
       4.175469971226e+01       1.107463875574e-11 
       5.256605252960e+01       2.637351996006e-12 
       6.617673932723e+01       4.822749662199e-13 
