# Matter power spectrum P(k) at redshift z=0
# for k=1.04775e-05 to 66.1767 h/Mpc,
# number of wavenumbers equal to 130
#    1:k (h/Mpc)              2:P (Mpc/h)^3        
       1.047750691046e-05       5.020964825683e+01 
       1.319039970183e-05       6.270560640050e+01 
       1.660572937635e-05       7.831148214780e+01 
       2.090537469327e-05       9.780107543978e+01 
       2.631830744443e-05       1.221408354920e+02 
       3.313278603720e-05       1.525374475189e+02 
       4.171170630578e-05       1.904975992065e+02 
       5.251192703764e-05       2.379022263818e+02 
       6.610859936996e-05       2.970989239464e+02 
       8.322579568497e-05       3.710167324907e+02 
       1.047750691046e-04       4.633080783153e+02 
       1.319039970183e-04       5.785234122054e+02 
       1.660572937635e-04       7.223242672929e+02 
       2.090537469327e-04       9.017396275841e+02 
       2.631830744443e-04       1.125468123953e+03 
       3.313278603720e-04       1.404223054212e+03 
       4.171170630578e-04       1.751108027108e+03 
       5.251192703764e-04       2.181998442512e+03 
       6.610859936996e-04       2.715889969468e+03 
       8.322579568497e-04       3.375152291497e+03 
       1.047750691046e-03       4.185552040816e+03 
       1.319039970183e-03       5.175742350208e+03 
       1.660572937635e-03       6.376121593591e+03 
       2.090537469327e-03       7.815666695212e+03 
       2.631830744443e-03       9.517766303592e+03 
       3.313278603720e-03       1.149352306502e+04 
       4.171170630578e-03       1.373251135860e+04 
       5.251192703764e-03       1.619022678545e+04 
       6.610859936996e-03       1.877352666469e+04 
       8.322579568497e-03       2.132333309983e+04 
       1.047750691046e-02       2.359874104964e+04 
       1.319039970183e-02       2.526611603945e+04 
       1.660572937633e-02       2.591335587957e+04 
       2.090537453514e-02       2.512836636434e+04 
       2.631818545635e-02       2.270285536674e+04 
       3.311571692125e-02       1.896564439855e+04 
       4.113809243311e-02       1.513798742578e+04 
       4.792590854610e-02       1.285049719124e+04 
       5.284436902701e-02       1.166888659613e+04 
       5.689644391095e-02       1.089797041148e+04 
       6.051252627066e-02       1.029855401084e+04 
       6.388413457411e-02       9.770863955182e+03 
       6.711249296401e-02       9.264922785364e+03 
       7.025823437965e-02       8.754155641418e+03 
       7.336115587705e-02       8.225751215768e+03 
       7.644928796912e-02       7.676114768680e+03 
       7.954353299775e-02       7.108586675062e+03 
       8.266024078725e-02       6.531533787220e+03 
       8.581273398637e-02       5.956601768443e+03 
       8.901225918437e-02       5.396872909881e+03 
       9.226860540985e-02       4.865494441639e+03 
       9.559052048996e-02       4.373732276502e+03 
       9.898599946599e-02       3.929836261563e+03 
       1.024624891378e-01       3.538215674491e+03 
       1.060270359164e-01       3.199397928592e+03 
       1.096863943056e-01       2.909656483944e+03 
       1.134471073830e-01       2.661883093090e+03 
       1.173155669539e-01       2.446171320670e+03 
       1.212980586983e-01       2.251016491637e+03 
       1.254007961065e-01       2.064653680978e+03 
       1.296299459934e-01       1.876837746927e+03 
       1.339916477160e-01       1.680816764505e+03 
       1.384920277736e-01       1.474834220223e+03 
       1.431372111762e-01       1.262746147736e+03 
       1.479333307714e-01       1.052947753203e+03 
       1.528865355934e-01       8.560334243874e+02 
       1.580029992204e-01       6.816850935400e+02 
       1.632889290723e-01       5.360031142474e+02 
       1.687505775527e-01       4.202381029671e+02 
       1.743942559171e-01       3.310949831850e+02 
       1.802263517371e-01       2.624041624846e+02 
       1.862533508214e-01       2.073184384014e+02 
       1.924818644494e-01       1.597553468854e+02 
       1.989186627765e-01       1.159658959280e+02 
       2.055707152847e-01       7.602074632357e+01 
       2.124452391818e-01       4.273444034060e+01 
       2.195497567139e-01       1.899621116534e+01 
       2.268921624510e-01       5.501215881354e+00 
       2.344808017550e-01       3.959097763672e-01 
       2.423245618548e-01       5.550584490614e-01 
       2.504329772620e-01       3.420577891073e+00 
       2.588163516754e-01       8.000731344304e+00 
       2.674858990930e-01       1.446766390240e+01 
       2.764539076010e-01       2.311606235800e+01 
       2.857339303080e-01       3.320889439548e+01 
       2.953410092148e-01       4.259892618634e+01 
       3.052919395542e-01       4.923325964998e+01 
       3.156055844677e-01       5.268650217470e+01 
       3.263032530092e-01       5.409397459340e+01 
       3.374091587054e-01       5.478362008924e+01 
       3.489509817175e-01       5.469010834880e+01 
       3.609605657343e-01       5.275915709691e+01 
       3.734747921333e-01       4.823993389560e+01 
       3.865366902904e-01       4.191089565120e+01 
       4.001968667448e-01       3.513950943312e+01 
       4.145153713076e-01       2.857034870842e+01 
       4.295641718077e-01       2.205669251329e+01 
       4.454304922144e-01       1.571545989757e+01 
       4.622214006969e-01       1.013380017010e+01 
       4.800702491654e-01       5.801156845989e+00 
       4.991459272112e-01       2.715350072985e+00 
       5.196665217302e-01       8.061944997717e-01 
       5.419201087032e-01       4.214108995892e-02 
       5.662975451962e-01       1.586698148032e-01 
       5.933463737275e-01       8.045865447146e-01 
       6.238638458458e-01       1.556136478711e+00 
       6.590669257916e-01       2.012443082297e+00 
       7.009246080454e-01       1.882993082955e+00 
       7.528593308799e-01       1.170363172507e+00 
       8.213469537518e-01       3.101124252842e-01 
       9.196980813302e-01       3.109747018558e-03 
       1.075112183810e+00       9.099198305982e-02 
       1.322697471132e+00       2.858147048388e-04 
       1.662328205042e+00       3.241977124727e-04 
       2.092692408506e+00       4.221388738192e-05 
       2.634543445090e+00       4.061402955894e-08 
       3.316693691389e+00       6.154042129141e-10 
       4.175469971226e+00       1.709443768283e-08 
       5.256605252960e+00       5.406882295281e-09 
       6.617673932723e+00       1.890324020187e-09 
       8.331157880872e+00       6.809782849352e-10 
       1.048830636590e+01       2.363452906367e-10 
       1.320399541071e+01       8.066482401756e-11 
       1.662284535976e+01       2.668672681090e-11 
       2.092692243973e+01       8.943742779933e-12 
       2.634543445002e+01       2.801130349529e-12 
       3.316693691389e+01       8.573438370555e-13 
       4.175469971226e+01       2.423193562539e-13 
       5.256605252960e+01       7.930345436923e-14 
       6.617673932723e+01       2.059502593190e-14 
