# Matter power spectrum P(k) at redshift z=0
# for k=1.04775e-05 to 66.1767 h/Mpc,
# number of wavenumbers equal to 130
#    1:k (h/Mpc)              2:P (Mpc/h)^3        
       1.047750691046e-05       5.020964825232e+01 
       1.319039970183e-05       6.270562117529e+01 
       1.660572937635e-05       7.831146763855e+01 
       2.090537469327e-05       9.780107995568e+01 
       2.631830744443e-05       1.221408348170e+02 
       3.313278603720e-05       1.525374490799e+02 
       4.171170630578e-05       1.904975993461e+02 
       5.251192703764e-05       2.379022275647e+02 
       6.610859936996e-05       2.970989240443e+02 
       8.322579568497e-05       3.710167325148e+02 
       1.047750691046e-04       4.633080760623e+02 
       1.319039970183e-04       5.785234118829e+02 
       1.660572937635e-04       7.223242665302e+02 
       2.090537469327e-04       9.017396282987e+02 
       2.631830744443e-04       1.125468123399e+03 
       3.313278603720e-04       1.404223054272e+03 
       4.171170630578e-04       1.751108027709e+03 
       5.251192703764e-04       2.181998444742e+03 
       6.610859936996e-04       2.715889974483e+03 
       8.322579568497e-04       3.375152306795e+03 
       1.047750691046e-03       4.185552085355e+03 
       1.319039970183e-03       5.175742480604e+03 
       1.660572937635e-03       6.376122113112e+03 
       2.090537469327e-03       7.815668705451e+03 
       2.631830744443e-03       9.517773064026e+03 
       3.313278603720e-03       1.149354426600e+04 
       4.171170630578e-03       1.373257281975e+04 
       5.251192703764e-03       1.619039474622e+04 
       6.610859936996e-03       1.877396561490e+04 
       8.322579568497e-03       2.132444720062e+04 
       1.047750691046e-02       2.360149593453e+04 
       1.319039970183e-02       2.527272337923e+04 
       1.660572937633e-02       2.592864430644e+04 
       2.090537453514e-02       2.516215181456e+04 
       2.631818545635e-02       2.277328607336e+04 
       3.311571692125e-02       1.910144014795e+04 
       4.113809243311e-02       1.537038517726e+04 
       4.792590854610e-02       1.317440710450e+04 
       5.284436902701e-02       1.206203323875e+04 
       5.689644391095e-02       1.134848947361e+04 
       6.051252627066e-02       1.079945144556e+04 
       6.388413457411e-02       1.031706330803e+04 
       6.711249296401e-02       9.852213603610e+03 
       7.025823437965e-02       9.378805767967e+03 
       7.336115587705e-02       8.884095798475e+03 
       7.644928796912e-02       8.364716862055e+03 
       7.954353299775e-02       7.824142562794e+03 
       8.266024078725e-02       7.271002452615e+03 
       8.581273398637e-02       6.717087809741e+03 
       8.901225918437e-02       6.176076977992e+03 
       9.226860540985e-02       5.661458643797e+03 
       9.559052048996e-02       5.185003476136e+03 
       9.898599946599e-02       4.755704132956e+03 
       1.024624891378e-01       4.378561027145e+03 
       1.060270359164e-01       4.054325028346e+03 
       1.096863943056e-01       3.779448763031e+03 
       1.134471073830e-01       3.546322888442e+03 
       1.173155669539e-01       3.344025407450e+03 
       1.212980586983e-01       3.159436605409e+03 
       1.254007961065e-01       2.978693338918e+03 
       1.296299459934e-01       2.789427437925e+03 
       1.339916477160e-01       2.583110932691e+03 
       1.384920277736e-01       2.357029206488e+03 
       1.431372111762e-01       2.115233722886e+03 
       1.479333307714e-01       1.867582937858e+03 
       1.528865355934e-01       1.627189785445e+03 
       1.580029992204e-01       1.406928964121e+03 
       1.632889290723e-01       1.216142493316e+03 
       1.687505775527e-01       1.058436879576e+03 
       1.743942559171e-01       9.313085063606e+02 
       1.802263517371e-01       8.274103565623e+02 
       1.862533508214e-01       7.370724221432e+02 
       1.924818644494e-01       6.504462036949e+02 
       1.989186627765e-01       5.605638499963e+02 
       2.055707152847e-01       4.668834788098e+02 
       2.124452391818e-01       3.747408285204e+02 
       2.195497567139e-01       2.915958203008e+02 
       2.268921624510e-01       2.228439145132e+02 
       2.344808017550e-01       1.699776856035e+02 
       2.423245618548e-01       1.307249327334e+02 
       2.504329772620e-01       1.004796044514e+02 
       2.588163516754e-01       7.485030709471e+01 
       2.674858990930e-01       5.178349884056e+01 
       2.764539076010e-01       3.179385726003e+01 
       2.857339303080e-01       1.662759557528e+01 
       2.953410092148e-01       7.111423389596e+00 
       3.052919395542e-01       2.209970749073e+00 
       3.156055844677e-01       2.498222273722e-01 
       3.263032530092e-01       1.623666409623e-01 
       3.374091587054e-01       1.717005472748e+00 
       3.489509817175e-01       4.833895338981e+00 
       3.609605657343e-01       8.853274166221e+00 
       3.734747921333e-01       1.275671425997e+01 
       3.865366902904e-01       1.616258190962e+01 
       4.001968667448e-01       1.931412412005e+01 
       4.145153713076e-01       2.222120397969e+01 
       4.295641718077e-01       2.426616898563e+01 
       4.454304922144e-01       2.498892990275e+01 
       4.622214006969e-01       2.457608496344e+01 
       4.800702491654e-01       2.342365813127e+01 
       4.991459272112e-01       2.143033688919e+01 
       5.196665217302e-01       1.851475933425e+01 
       5.419201087032e-01       1.513688360230e+01 
       5.662975451962e-01       1.155587913664e+01 
       5.933463737275e-01       7.965132285734e+00 
       6.238638458458e-01       4.761573579889e+00 
       6.590669257916e-01       2.217953222297e+00 
       7.009246080454e-01       5.985546162713e-01 
       7.528593308799e-01       6.540650841811e-03 
       8.213469537518e-01       2.452845395680e-01 
       9.196980813302e-01       5.977425925526e-01 
       1.075112183810e+00       2.546642992856e-01 
       1.322697471132e+00       2.983822773517e-03 
       1.662328205042e+00       6.884621313786e-03 
       2.092692408506e+00       5.952657774124e-04 
       2.634543445090e+00       1.473114195105e-05 
       3.316693691389e+00       4.406914669000e-08 
       4.175469971226e+00       1.106308166914e-07 
       5.256605252960e+00       8.362404079638e-09 
       6.617673932723e+00       5.207710426101e-09 
       8.331157880872e+00       1.970150444380e-09 
       1.048830636590e+01       6.886634878797e-10 
       1.320399541071e+01       2.661685668638e-10 
       1.662284535976e+01       9.830827352047e-11 
       2.092692243973e+01       2.640000397557e-11 
       2.634543445002e+01       1.215025745660e-11 
       3.316693691389e+01       4.543337073681e-12 
       4.175469971226e+01       1.262440169939e-12 
       5.256605252960e+01       7.675061250095e-13 
       6.617673932723e+01       1.587891000226e-14 
