# Matter power spectrum P(k) at redshift z=99
# for k=1.04775e-05 to 66.1767 h/Mpc,
# number of wavenumbers equal to 130
#    1:k (h/Mpc)              2:P (Mpc/h)^3        
       1.047750691046e-05       7.261927904490e-03 
       1.319039970183e-05       9.069258481870e-03 
       1.660572937635e-05       1.132639317866e-02 
       2.090537469327e-05       1.414527166932e-02 
       2.631830744443e-05       1.766569623720e-02 
       3.313278603720e-05       2.206225583628e-02 
       4.171170630578e-05       2.755297850698e-02 
       5.251192703764e-05       3.441013629071e-02 
       6.610859936996e-05       4.297372304867e-02 
       8.322579568497e-05       5.366827017721e-02 
       1.047750691046e-04       6.702380079100e-02 
       1.319039970183e-04       8.370193766834e-02 
       1.660572937635e-04       1.045283387370e-01 
       2.090537469327e-04       1.305329173822e-01 
       2.631830744443e-04       1.629994555619e-01 
       3.313278603720e-04       2.035264065481e-01 
       4.171170630578e-04       2.541004818943e-01 
       5.251192703764e-04       3.171839619096e-01 
       6.610859936996e-04       3.958147364236e-01 
       8.322579568497e-04       4.937136130099e-01 
       1.047750691046e-03       6.153841768931e-01 
       1.319039970183e-03       7.661720714193e-01 
       1.660572937635e-03       9.522588068186e-01 
       2.090537469327e-03       1.180312968529e+00 
       2.631830744443e-03       1.456802570512e+00 
       3.313278603720e-03       1.786503483411e+00 
       4.171170630578e-03       2.169895132818e+00 
       5.251192703764e-03       2.599427630439e+00 
       6.610859936996e-03       3.055660220884e+00 
       8.322579568497e-03       3.505702759403e+00 
       1.047750691046e-02       3.905434547107e+00 
       1.319039970183e-02       4.200775160372e+00 
       1.660572937633e-02       4.324729496004e+00 
       2.090537453514e-02       4.209462052936e+00 
       2.631818545635e-02       3.823600468282e+00 
       3.311571692125e-02       3.226036469223e+00 
       4.113809243311e-02       2.622479811237e+00 
       4.792590854610e-02       2.273366154051e+00 
       5.284436902701e-02       2.100938823452e+00 
       5.689644391095e-02       1.992890840201e+00 
       6.051252627066e-02       1.911023572393e+00 
       6.388413457411e-02       1.839376644236e+00 
       6.711249296401e-02       1.769918367174e+00 
       7.025823437965e-02       1.698376187082e+00 
       7.336115587705e-02       1.622675015983e+00 
       7.644928796912e-02       1.542300776522e+00 
       7.954353299775e-02       1.457887086232e+00 
       8.266024078725e-02       1.370931167924e+00 
       8.581273398637e-02       1.283500682129e+00 
       8.901225918437e-02       1.197968438751e+00 
       9.226860540985e-02       1.116711278700e+00 
       9.559052048996e-02       1.041837891729e+00 
       9.898599946599e-02       9.749851925494e-01 
       1.024624891378e-01       9.171157238187e-01 
       1.060270359164e-01       8.684370787648e-01 
       1.096863943056e-01       8.283558986162e-01 
       1.134471073830e-01       7.955077097523e-01 
       1.173155669539e-01       7.678544312209e-01 
       1.212980586983e-01       7.428581149985e-01 
       1.254007961065e-01       7.177950375237e-01 
       1.296299459934e-01       6.901666675156e-01 
       1.339916477160e-01       6.581887776694e-01 
       1.384920277736e-01       6.212248413830e-01 
       1.431372111762e-01       5.799890995219e-01 
       1.479333307714e-01       5.364189257517e-01 
       1.528865355934e-01       4.932134400425e-01 
       1.580029992204e-01       4.531598868219e-01 
       1.632889290723e-01       4.184340232990e-01 
       1.687505775527e-01       3.900488847492e-01 
       1.743942559171e-01       3.676371908417e-01 
       1.802263517371e-01       3.495167568467e-01 
       1.862533508214e-01       3.332825422503e-01 
       1.924818644494e-01       3.162843374179e-01 
       1.989186627765e-01       2.965097878750e-01 
       2.055707152847e-01       2.736589816841e-01 
       2.124452391818e-01       2.491874453477e-01 
       2.195497567139e-01       2.254224098669e-01 
       2.268921624510e-01       2.043807200815e-01 
       2.344808017550e-01       1.870691254856e-01 
       2.423245618548e-01       1.731637411843e-01 
       2.504329772620e-01       1.611264393681e-01 
       2.588163516754e-01       1.490628817639e-01 
       2.674858990930e-01       1.358937016014e-01 
       2.764539076010e-01       1.218224552690e-01 
       2.857339303080e-01       1.080971886575e-01 
       2.953410092148e-01       9.606224106211e-02 
       3.052919395542e-01       8.606269349030e-02 
       3.156055844677e-01       7.741918123088e-02 
       3.263032530092e-01       6.912984510245e-02 
       3.374091587054e-01       6.065834526131e-02 
       3.489509817175e-01       5.237120709652e-02 
       3.609605657343e-01       4.492323323813e-02 
       3.734747921333e-01       3.857814111867e-02 
       3.865366902904e-01       3.296969075780e-02 
       4.001968667448e-01       2.768207331922e-02 
       4.145153713076e-01       2.270834085414e-02 
       4.295641718077e-01       1.831388394306e-02 
       4.454304922144e-01       1.456536039276e-02 
       4.622214006969e-01       1.130684303272e-02 
       4.800702491654e-01       8.424685532354e-03 
       4.991459272112e-01       5.992147527491e-03 
       5.196665217302e-01       4.037482991687e-03 
       5.419201087032e-01       2.477756209901e-03 
       5.662975451962e-01       1.308606598373e-03 
       5.933463737275e-01       5.272220315435e-04 
       6.238638458458e-01       1.000172341341e-04 
       6.590669257916e-01       6.242340672355e-06 
       7.009246080454e-01       2.074568381302e-04 
       7.528593308799e-01       6.382483423014e-04 
       8.213469537518e-01       1.166666378795e-03 
       9.196980813302e-01       1.503480438676e-03 
       1.075112183810e+00       1.153594661394e-03 
       1.322697471132e+00       2.437034484416e-04 
       1.662328205042e+00       8.651031276338e-06 
       2.092692408506e+00       3.935034388215e-05 
       2.634543445090e+00       1.396240583365e-07 
       3.316693691389e+00       1.418363047014e-06 
       4.175469971226e+00       6.512998472259e-08 
       5.256605252960e+00       4.559728480770e-11 
       6.617673932723e+00       2.385647494274e-11 
       8.331157880872e+00       8.452850549486e-12 
       1.048830636590e+01       2.247364723587e-14 
       1.320399541071e+01       3.507479048610e-13 
       1.662284535976e+01       1.409573418536e-13 
       2.092692243973e+01       5.242110654633e-14 
       2.634543445002e+01       1.872824950468e-14 
       3.316693691389e+01       6.356899677403e-15 
       4.175469971226e+01       2.084121304317e-15 
       5.256605252960e+01       6.417638680007e-16 
       6.617673932723e+01       1.882150651010e-16 
