# Matter power spectrum P(k) at redshift z=0
# for k=1.04775e-05 to 66.1767 h/Mpc,
# number of wavenumbers equal to 130
#    1:k (h/Mpc)              2:P (Mpc/h)^3        
       1.047750691046e-05       5.020964811308e+01 
       1.319039970183e-05       6.270562594773e+01 
       1.660572937635e-05       7.831147247912e+01 
       2.090537469327e-05       9.780108069295e+01 
       2.631830744443e-05       1.221408203809e+02 
       3.313278603720e-05       1.525374501932e+02 
       4.171170630578e-05       1.904975994010e+02 
       5.251192703764e-05       2.379022224249e+02 
       6.610859936996e-05       2.970989227880e+02 
       8.322579568497e-05       3.710167318946e+02 
       1.047750691046e-04       4.633080766742e+02 
       1.319039970183e-04       5.785234129333e+02 
       1.660572937635e-04       7.223242666092e+02 
       2.090537469327e-04       9.017396271824e+02 
       2.631830744443e-04       1.125468123750e+03 
       3.313278603720e-04       1.404223053681e+03 
       4.171170630578e-04       1.751108028790e+03 
       5.251192703764e-04       2.181998448133e+03 
       6.610859936996e-04       2.715889983592e+03 
       8.322579568497e-04       3.375152337135e+03 
       1.047750691046e-03       4.185552174308e+03 
       1.319039970183e-03       5.175742744414e+03 
       1.660572937635e-03       6.376123051780e+03 
       2.090537469327e-03       7.815671868439e+03 
       2.631830744443e-03       9.517783069109e+03 
       3.313278603720e-03       1.149357460345e+04 
       4.171170630578e-03       1.373266011889e+04 
       5.251192703764e-03       1.619063614514e+04 
       6.610859936996e-03       1.877460424802e+04 
       8.322579568497e-03       2.132607232081e+04 
       1.047750691046e-02       2.360548521859e+04 
       1.319039970183e-02       2.528218628516e+04 
       1.660572937633e-02       2.595028897877e+04 
       2.090537453514e-02       2.520935661989e+04 
       2.631818545635e-02       2.287038753369e+04 
       3.311571692125e-02       1.928626484842e+04 
       4.113809243311e-02       1.568426824450e+04 
       4.792590854610e-02       1.361067803555e+04 
       5.284436902701e-02       1.259129268935e+04 
       5.689644391095e-02       1.195554162431e+04 
       6.051252627066e-02       1.147547781790e+04 
       6.388413457411e-02       1.105590423206e+04 
       6.711249296401e-02       1.064897477156e+04 
       7.025823437965e-02       1.022928868517e+04 
       7.336115587705e-02       9.784518605315e+03 
       7.644928796912e-02       9.311623468902e+03 
       7.954353299775e-02       8.814551076745e+03 
       8.266024078725e-02       8.302124982497e+03 
       8.581273398637e-02       7.786983925430e+03 
       8.901225918437e-02       7.283118524013e+03 
       9.226860540985e-02       6.805151119831e+03 
       9.559052048996e-02       6.365612950811e+03 
       9.898599946599e-02       5.974386827658e+03 
       1.024624891378e-01       5.637301344798e+03 
       1.060270359164e-01       5.355766254017e+03 
       1.096863943056e-01       5.126259280776e+03 
       1.134471073830e-01       4.940477872629e+03 
       1.173155669539e-01       4.786162026843e+03 
       1.212980586983e-01       4.647926103655e+03 
       1.254007961065e-01       4.509124872551e+03 
       1.296299459934e-01       4.354552218884e+03 
       1.339916477160e-01       4.173224285867e+03 
       1.384920277736e-01       3.961165707943e+03 
       1.431372111762e-01       3.722684812817e+03 
       1.479333307714e-01       3.469548456127e+03 
       1.528865355934e-01       3.218348471016e+03 
       1.580029992204e-01       2.986295409904e+03 
       1.632889290723e-01       2.786956147875e+03 
       1.687505775527e-01       2.626828302650e+03 
       1.743942559171e-01       2.503752565618e+03 
       1.802263517371e-01       2.407332332709e+03 
       1.862533508214e-01       2.322252061061e+03 
       1.924818644494e-01       2.231553839260e+03 
       1.989186627765e-01       2.122185839947e+03 
       2.055707152847e-01       1.992022912138e+03 
       2.124452391818e-01       1.850326165610e+03 
       2.195497567139e-01       1.712182794563e+03 
       2.268921624510e-01       1.590989625843e+03 
       2.344808017550e-01       1.493668848324e+03 
       2.423245618548e-01       1.418306482013e+03 
       2.504329772620e-01       1.354465518036e+03 
       2.588163516754e-01       1.288934330335e+03 
       2.674858990930e-01       1.213932898381e+03 
       2.764539076010e-01       1.130691682101e+03 
       2.857339303080e-01       1.048099541560e+03 
       2.953410092148e-01       9.761841840215e+02 
       3.052919395542e-01       9.178091476825e+02 
       3.156055844677e-01       8.678951131579e+02 
       3.263032530092e-01       8.185246274026e+02 
       3.374091587054e-01       7.651434498498e+02 
       3.489509817175e-01       7.106718502953e+02 
       3.609605657343e-01       6.607840279279e+02 
       3.734747921333e-01       6.180870289809e+02 
       3.865366902904e-01       5.793086773576e+02 
       4.001968667448e-01       5.403906033345e+02 
       4.145153713076e-01       5.011490914753e+02 
       4.295641718077e-01       4.644980430851e+02 
       4.454304922144e-01       4.314080786710e+02 
       4.622214006969e-01       4.001118962078e+02 
       4.800702491654e-01       3.690893575603e+02 
       4.991459272112e-01       3.394755572548e+02 
       5.196665217302e-01       3.119850207837e+02 
       5.419201087032e-01       2.852462141924e+02 
       5.662975451962e-01       2.593298122903e+02 
       5.933463737275e-01       2.345468908712e+02 
       6.238638458458e-01       2.102298843567e+02 
       6.590669257916e-01       1.864328950656e+02 
       7.009246080454e-01       1.627246684561e+02 
       7.528593308799e-01       1.388179856198e+02 
       8.213469537518e-01       1.141874595589e+02 
       9.196980813302e-01       8.835905911582e+01 
       1.075112183810e+00       6.172540205293e+01 
       1.322697471132e+00       3.804198811917e+01 
       1.662328205042e+00       2.209731115403e+01 
       2.092692408506e+00       1.266861295838e+01 
       2.634543445090e+00       7.202778624196e+00 
       3.316693691389e+00       4.064613173291e+00 
       4.175469971226e+00       2.278107596899e+00 
       5.256605252960e+00       1.268895715011e+00 
       6.617673932723e+00       7.027116388014e-01 
       8.331157880872e+00       3.870849858143e-01 
       1.048830636590e+01       2.121470325762e-01 
       1.320399541071e+01       1.157010490563e-01 
       1.662284535976e+01       6.278678501154e-02 
       2.092692243973e+01       3.388980421917e-02 
       2.634543445002e+01       1.817679997808e-02 
       3.316693691389e+01       9.669055380901e-03 
       4.175469971226e+01       5.083357589086e-03 
       5.256605252960e+01       2.624658053724e-03 
       6.617673932723e+01       1.316343886940e-03 
