# Matter power spectrum P(k) at redshift z=99
# for k=1.04775e-05 to 66.1767 h/Mpc,
# number of wavenumbers equal to 130
#    1:k (h/Mpc)              2:P (Mpc/h)^3        
       1.047750691046e-05       7.261927680895e-03 
       1.319039970183e-05       9.069258201890e-03 
       1.660572937635e-05       1.132639106730e-02 
       2.090537469327e-05       1.414527123406e-02 
       2.631830744443e-05       1.766569584066e-02 
       3.313278603720e-05       2.206225515952e-02 
       4.171170630578e-05       2.755297766289e-02 
       5.251192703764e-05       3.441013522963e-02 
       6.610859936996e-05       4.297372172797e-02 
       8.322579568497e-05       5.366826852969e-02 
       1.047750691046e-04       6.702379872805e-02 
       1.319039970183e-04       8.370193441324e-02 
       1.660572937635e-04       1.045283355389e-01 
       2.090537469327e-04       1.305329134110e-01 
       2.631830744443e-04       1.629994506613e-01 
       3.313278603720e-04       2.035264004610e-01 
       4.171170630578e-04       2.541004744254e-01 
       5.251192703764e-04       3.171839528570e-01 
       6.610859936996e-04       3.958147256528e-01 
       8.322579568497e-04       4.937136006303e-01 
       1.047750691046e-03       6.153841636055e-01 
       1.319039970183e-03       7.661720592845e-01 
       1.660572937635e-03       9.522588016423e-01 
       2.090537469327e-03       1.180312991692e+00 
       2.631830744443e-03       1.456802684668e+00 
       3.313278603720e-03       1.786503854001e+00 
       4.171170630578e-03       2.169896192616e+00 
       5.251192703764e-03       2.599430630529e+00 
       6.610859936996e-03       3.055668707187e+00 
       8.322579568497e-03       3.505725597897e+00 
       1.047750691046e-02       3.905489181279e+00 
       1.319039970183e-02       4.200915387556e+00 
       1.660572937633e-02       4.325065734742e+00 
       2.090537453514e-02       4.210202071687e+00 
       2.631818545635e-02       3.825151560414e+00 
       3.311571692125e-02       3.229063367078e+00 
       4.113809243311e-02       2.627723464517e+00 
       4.792590854610e-02       2.280794647909e+00 
       5.284436902701e-02       2.110093113677e+00 
       5.689644391095e-02       2.003539607434e+00 
       6.051252627066e-02       1.923056487036e+00 
       6.388413457411e-02       1.852735048997e+00 
       6.711249296401e-02       1.784563031601e+00 
       7.025823437965e-02       1.714277118733e+00 
       7.336115587705e-02       1.639813352504e+00 
       7.644928796912e-02       1.560661049912e+00 
       7.954353299775e-02       1.477456816978e+00 
       8.266024078725e-02       1.391697250165e+00 
       8.581273398637e-02       1.305461557719e+00 
       8.901225918437e-02       1.221124409437e+00 
       9.226860540985e-02       1.141081112208e+00 
       9.559052048996e-02       1.067450359410e+00 
       9.898599946599e-02       1.001888145646e+00 
       1.024624891378e-01       9.453794220853e-01 
       1.060270359164e-01       8.981496229621e-01 
       1.096863943056e-01       8.596119871304e-01 
       1.134471073830e-01       8.284069066873e-01 
       1.173155669539e-01       8.024678149068e-01 
       1.212980586983e-01       7.792318975907e-01 
       1.254007961065e-01       7.559202532551e-01 
       1.296299459934e-01       7.299836928670e-01 
       1.339916477160e-01       6.995935779988e-01 
       1.384920277736e-01       6.640798929559e-01 
       1.431372111762e-01       6.241482738732e-01 
       1.479333307714e-01       5.817640698415e-01 
       1.528865355934e-01       5.396905881502e-01 
       1.580029992204e-01       5.008142961908e-01 
       1.632889290723e-01       4.673988346807e-01 
       1.687505775527e-01       4.405342265027e-01 
       1.743942559171e-01       4.198655913852e-01 
       1.802263517371e-01       4.036593252203e-01 
       1.862533508214e-01       3.893615818837e-01 
       1.924818644494e-01       3.741391535931e-01 
       1.989186627765e-01       3.558075047606e-01 
       2.055707152847e-01       3.340027473889e-01 
       2.124452391818e-01       3.102655341945e-01 
       2.195497567139e-01       2.871221286695e-01 
       2.268921624510e-01       2.668077919131e-01 
       2.344808017550e-01       2.504832510261e-01 
       2.423245618548e-01       2.378335271378e-01 
       2.504329772620e-01       2.271108912000e-01 
       2.588163516754e-01       2.161193355220e-01 
       2.674858990930e-01       2.035473663991e-01 
       2.764539076010e-01       1.895975217705e-01 
       2.857339303080e-01       1.757564993482e-01 
       2.953410092148e-01       1.636988919857e-01 
       3.052919395542e-01       1.539060621332e-01 
       3.156055844677e-01       1.455301541186e-01 
       3.263032530092e-01       1.372496565134e-01 
       3.374091587054e-01       1.283018768611e-01 
       3.489509817175e-01       1.191709320052e-01 
       3.609605657343e-01       1.108071389089e-01 
       3.734747921333e-01       1.036447519450e-01 
       3.865366902904e-01       9.714077550229e-02 
       4.001968667448e-01       9.061520358227e-02 
       4.145153713076e-01       8.403657115287e-02 
       4.295641718077e-01       7.789108076459e-02 
       4.454304922144e-01       7.234123873145e-02 
       4.622214006969e-01       6.709341499416e-02 
       4.800702491654e-01       6.189144086968e-02 
       4.991459272112e-01       5.692596816282e-02 
       5.196665217302e-01       5.231587417636e-02 
       5.419201087032e-01       4.783228545852e-02 
       5.662975451962e-01       4.348664420926e-02 
       5.933463737275e-01       3.933071034764e-02 
       6.238638458458e-01       3.525313579369e-02 
       6.590669257916e-01       3.126252595605e-02 
       7.009246080454e-01       2.728694439132e-02 
       7.528593308799e-01       2.327811148413e-02 
       8.213469537518e-01       1.914791634736e-02 
       9.196980813302e-01       1.481664629134e-02 
       1.075112183810e+00       1.035054442122e-02 
       1.322697471132e+00       6.379042659470e-03 
       1.662328205042e+00       3.705267748887e-03 
       2.092692408506e+00       2.124136205393e-03 
       2.634543445090e+00       1.207563557066e-03 
       3.316693691389e+00       6.813193927025e-04 
       4.175469971226e+00       3.817386987083e-04 
       5.256605252960e+00       2.124961106850e-04 
       6.617673932723e+00       1.175504180534e-04 
       8.331157880872e+00       6.462195397057e-05 
       1.048830636590e+01       3.528578295521e-05 
       1.320399541071e+01       1.911150702006e-05 
       1.662284535976e+01       1.023722087489e-05 
       2.092692243973e+01       5.391168153130e-06 
       2.634543445002e+01       2.759054840294e-06 
       3.316693691389e+01       1.341772724071e-06 
       4.175469971226e+01       5.935983112347e-07 
       5.256605252960e+01       2.187040999949e-07 
       6.617673932723e+01       5.473645308815e-08 
