# Matter power spectrum P(k) at redshift z=99
# for k=1.04775e-05 to 67.6233 h/Mpc,
# number of wavenumbers equal to 246
#    1:k (h/Mpc)              2:P (Mpc/h)^3        
       1.047750691046e-05       7.261927680861e-03 
       1.131335172503e-05       7.820331652431e-03 
       1.221587619537e-05       8.421675995453e-03 
       1.319039970183e-05       9.069258201848e-03 
       1.424266597921e-05       9.766638412133e-03 
       1.537887696968e-05       1.051764070801e-02 
       1.660572937635e-05       1.132639106725e-02 
       1.793045413292e-05       1.219733232715e-02 
       1.936085902198e-05       1.313524225779e-02 
       2.090537469327e-05       1.414527123399e-02 
       2.257310435294e-05       1.523296273823e-02 
       2.437387741694e-05       1.640429446288e-02 
       2.631830744443e-05       1.766569584058e-02 
       2.841785469300e-05       1.902408737005e-02 
       3.068489366414e-05       2.048692972772e-02 
       3.313278603720e-05       2.206225515942e-02 
       3.577595942169e-05       2.375870707438e-02 
       3.862999239199e-05       2.558560730202e-02 
       4.171170630578e-05       2.755297766277e-02 
       4.503926444729e-05       2.967161930474e-02 
       4.863227907969e-05       3.195316454233e-02 
       5.251192703764e-05       3.441013522947e-02 
       5.670107454120e-05       3.705601726470e-02 
       6.122441196689e-05       3.990533417793e-02 
       6.610859936996e-05       4.297372172777e-02 
       7.138242361596e-05       4.627802146614e-02 
       7.707696804727e-05       4.983636199464e-02 
       8.322579568497e-05       5.366826852944e-02 
       8.986514704559e-05       5.779476400720e-02 
       9.703415373875e-05       6.223848250510e-02 
       1.047750691046e-04       6.702379872774e-02 
       1.131335172503e-04       7.217695161064e-02 
       1.221587619537e-04       7.772619081845e-02 
       1.319039970183e-04       8.370193441286e-02 
       1.424266597921e-04       9.013692517142e-02 
       1.537887696968e-04       9.706641252902e-02 
       1.660572937635e-04       1.045283355384e-01 
       1.793045413292e-04       1.125635350266e-01 
       1.936085902198e-04       1.212159616259e-01 
       2.090537469327e-04       1.305329134104e-01 
       2.257310435294e-04       1.405652847711e-01 
       2.437387741694e-04       1.513678304151e-01 
       2.631830744443e-04       1.629994506605e-01 
       2.841785469300e-04       1.755234923092e-01 
       3.068489366414e-04       1.890080672425e-01 
       3.313278603720e-04       2.035264004601e-01 
       3.577595942169e-04       2.191571806013e-01 
       3.862999239199e-04       2.359849440103e-01 
       4.171170630578e-04       2.541004744243e-01 
       4.503926444729e-04       2.736012083189e-01 
       4.863227907969e-04       2.945916794099e-01 
       5.251192703764e-04       3.171839528557e-01 
       5.670107454121e-04       3.414980767635e-01 
       6.122441196689e-04       3.676625417011e-01 
       6.610859936996e-04       3.958147256513e-01 
       7.138242361596e-04       4.261013289359e-01 
       7.707696804727e-04       4.586787797352e-01 
       8.322579568497e-04       4.937136006287e-01 
       8.986514704559e-04       5.313826807049e-01 
       9.703415373875e-04       5.718734978233e-01 
       1.047750691046e-03       6.153841636040e-01 
       1.131335172503e-03       6.621233246495e-01 
       1.221587619537e-03       7.123098227992e-01 
       1.319039970183e-03       7.661720592539e-01 
       1.424266597921e-03       8.239546306465e-01 
       1.537887696968e-03       8.859011182851e-01 
       1.660572937635e-03       9.522588016479e-01 
       1.793045413292e-03       1.023280100902e+00 
       1.936085902198e-03       1.099216305740e+00 
       2.090537469327e-03       1.180312991699e+00 
       2.257310435294e-03       1.266804117187e+00 
       2.437387741694e-03       1.358904854834e+00 
       2.631830744443e-03       1.456802684686e+00 
       2.841785469300e-03       1.560646892157e+00 
       3.068489366414e-03       1.670536064247e+00 
       3.313278603720e-03       1.786503854037e+00 
       3.577595942169e-03       1.908502932772e+00 
       3.862999239199e-03       2.036387732816e+00 
       4.171170630578e-03       2.169896162063e+00 
       4.503926444729e-03       2.308631881359e+00 
       4.863227907969e-03       2.452047293460e+00 
       5.251192703764e-03       2.599430630722e+00 
       5.670107454120e-03       2.749896934602e+00 
       6.122441196689e-03       2.902386516274e+00 
       6.610859936996e-03       3.055668708467e+00 
       7.138242361596e-03       3.208356464658e+00 
       7.707696804727e-03       3.358923896375e+00 
       8.322579568496e-03       3.505725598671e+00 
       8.986514704559e-03       3.647009702678e+00 
       9.703415373875e-03       3.780923307749e+00 
       1.047750691046e-02       3.905490999966e+00 
       1.131335172503e-02       4.018587644833e+00 
       1.221587619537e-02       4.117901590163e+00 
       1.319039970183e-02       4.200915430465e+00 
       1.424266597920e-02       4.264942482493e+00 
       1.537887696964e-02       4.307219462251e+00 
       1.660572937560e-02       4.325061202861e+00 
       1.793045412207e-02       4.316061248617e+00 
       1.936085889642e-02       4.278230295131e+00 
       2.090537351881e-02       4.210204651847e+00 
       2.257309534705e-02       4.111416929112e+00 
       2.437382002240e-02       3.982423016156e+00 
       2.631799943729e-02       3.825162754617e+00 
       2.841644544598e-02       3.643279398304e+00 
       3.067933354524e-02       3.442197098827e+00 
       3.311368469821e-02       3.229231151337e+00 
       3.571840442514e-02       3.013514216335e+00 
       3.847720347390e-02       2.805292542075e+00 
       4.135335537314e-02       2.614403871725e+00 
       4.429361666563e-02       2.448132938929e+00 
       4.724366437916e-02       2.309232949741e+00 
       5.016480834039e-02       2.196110594174e+00 
       5.303989618930e-02       2.104370153747e+00 
       5.586870668205e-02       2.028465705592e+00 
       5.866042679206e-02       1.963152505574e+00 
       6.142798931504e-02       1.903783331125e+00 
       6.418496438662e-02       1.846479238517e+00 
       6.694418832236e-02       1.788198255114e+00 
       6.971731104453e-02       1.726717087632e+00 
       7.251476154108e-02       1.660652710514e+00 
       7.534587669814e-02       1.589470993152e+00 
       7.821907664495e-02       1.513436452750e+00 
       8.114203771084e-02       1.433567513490e+00 
       8.412184533139e-02       1.351492744463e+00 
       8.716512277352e-02       1.269274387671e+00 
       9.027813693913e-02       1.189194368919e+00 
       9.346688429613e-02       1.113501087434e+00 
       9.673716026122e-02       1.044174099514e+00 
       1.000946150608e-01       9.827070034294e-01 
       1.035447986307e-01       9.299406460270e-01 
       1.070931966524e-01       8.859609824561e-01 
       1.107452594180e-01       8.500711431629e-01 
       1.145064248899e-01       8.208051831167e-01 
       1.183821370656e-01       7.960261665446e-01 
       1.223778605591e-01       7.731459693491e-01 
       1.264990921707e-01       7.494528837246e-01 
       1.307513701078e-01       7.225585966228e-01 
       1.351402814485e-01       6.909082697338e-01 
       1.396714683894e-01       6.541813420440e-01 
       1.443506337875e-01       6.134278965144e-01 
       1.491835464900e-01       5.708660616638e-01 
       1.541760469368e-01       5.293629061892e-01 
       1.593340535209e-01       4.917109032950e-01 
       1.646635701934e-01       4.599203745960e-01 
       1.701706958081e-01       4.347285798499e-01 
       1.758616357070e-01       4.154085026788e-01 
       1.817427160581e-01       3.999372380473e-01 
       1.878204014651e-01       3.856820646234e-01 
       1.941013163855e-01       3.698087533636e-01 
       2.005922709060e-01       3.505466661087e-01 
       2.073002914514e-01       3.280434217548e-01 
       2.142326570343e-01       3.042143801811e-01 
       2.213969417044e-01       2.816128142568e-01 
       2.288010639201e-01       2.622573279858e-01 
       2.364533436625e-01       2.469628911982e-01 
       2.443625682390e-01       2.350132212853e-01 
       2.525380678946e-01       2.244176190507e-01 
       2.609898025770e-01       2.130939480513e-01 
       2.697284614969e-01       2.001014410354e-01 
       2.787655775073e-01       1.860200354851e-01 
       2.881136588192e-01       1.725175027490e-01 
       2.977863412019e-01       1.610663108454e-01 
       3.077985646248e-01       1.517609784657e-01 
       3.181667793367e-01       1.435595529870e-01 
       3.289091877084e-01       1.351817289015e-01 
       3.400460298905e-01       1.261647949717e-01 
       3.515999235695e-01       1.172018467854e-01 
       3.635962710278e-01       1.091772089057e-01 
       3.760637505499e-01       1.023093637928e-01 
       3.890349143014e-01       9.593777872407e-02 
       4.025469215929e-01       8.950777578331e-02 
       4.166424455447e-01       8.311181445172e-02 
       4.313708034899e-01       7.721571601457e-02 
       4.467893781976e-01       7.190068371182e-02 
       4.629654198623e-01       6.686910195977e-02 
       4.799783500912e-01       6.191757643768e-02 
       4.979227318246e-01       5.722225673259e-02 
       5.169121269689e-01       5.290305896449e-02 
       5.370841403262e-01       4.876967364634e-02 
       5.586070463286e-01       4.479081870066e-02 
       5.816885093582e-01       4.105197369973e-02 
       6.065870143577e-01       3.748985145278e-02 
       6.336266466978e-01       3.407631175347e-02 
       6.632156057925e-01       3.083464446330e-02 
       6.958678637575e-01       2.772834510463e-02 
       7.322247983784e-01       2.476708838888e-02 
       7.730680193171e-01       2.193957933655e-02 
       8.193049551574e-01       1.925612674947e-02 
       8.718988013754e-01       1.672931198359e-02 
       9.317218028590e-01       1.438423307622e-02 
       9.993660906273e-01       1.225069699238e-02 
       1.075037109879e+00       1.035263373179e-02 
       1.158653485387e+00       8.699741472497e-03 
       1.250099156961e+00       7.284613810128e-03 
       1.349432400897e+00       6.085462106432e-03 
       1.456947456991e+00       5.075719119068e-03 
       1.573135110893e+00       4.228321219815e-03 
       1.698621895119e+00       3.518556727833e-03 
       1.834127512423e+00       2.924977951017e-03 
       1.980444933977e+00       2.429162882515e-03 
       2.138435191130e+00       2.015508040326e-03 
       2.309029198543e+00       1.670770486096e-03 
       2.493232376993e+00       1.383799164134e-03 
       2.692130394536e+00       1.145132103317e-03 
       2.906895533764e+00       9.468614862206e-04 
       3.138793596840e+00       7.822894297752e-04 
       3.389191365541e+00       6.458263681133e-04 
       3.659564656886e+00       5.327689020261e-04 
       3.951507021438e+00       4.391876175204e-04 
       4.266739135513e+00       3.617881454052e-04 
       4.607118942658e+00       2.978287186552e-04 
       4.974652604172e+00       2.450140376296e-04 
       5.371506323193e+00       2.014364891134e-04 
       5.800019112071e+00       1.655074431714e-04 
       6.262716578240e+00       1.359033552833e-04 
       6.762325809881e+00       1.115295313233e-04 
       7.301791449077e+00       9.147635654172e-05 
       7.884293047211e+00       7.498640787506e-05 
       8.513263804891e+00       6.143597923005e-05 
       9.192410806865e+00       5.030797066487e-05 
       9.925736871166e+00       4.117475986260e-05 
       1.071756414128e+01       3.368312775550e-05 
       1.157255956041e+01       2.754132098526e-05 
       1.249576237789e+01       2.250875683804e-05 
       1.349261385000e+01       1.838752625980e-05 
       1.456898931011e+01       1.501411310493e-05 
       1.573123279727e+01       1.225428837343e-05 
       1.698619444729e+01       9.997533389446e-06 
       1.834127086665e+01       8.153042658085e-06 
       1.980444872733e+01       6.646135927400e-06 
       2.138435183937e+01       5.415643978452e-06 
       2.309029197863e+01       4.411276163287e-06 
       2.493232376942e+01       3.591809165955e-06 
       2.692130394533e+01       2.923470458345e-06 
       2.906895533764e+01       2.378653539546e-06 
       3.138793596840e+01       1.934688058710e-06 
       3.389191365541e+01       1.573041901825e-06 
       3.659564656886e+01       1.278545700285e-06 
       3.951507021438e+01       1.038834950626e-06 
       4.266739135513e+01       8.437886644505e-07 
       4.607118942658e+01       6.851272850456e-07 
       4.974652604172e+01       5.561322892671e-07 
       5.371506323193e+01       4.512658938741e-07 
       5.800019112071e+01       3.660588876359e-07 
       6.262716578240e+01       2.968417892560e-07 
       6.762325809881e+01       2.406356339185e-07 
