# Matter power spectrum P(k) at redshift z=0
# for k=1.04775e-05 to 67.6233 h/Mpc,
# number of wavenumbers equal to 246
#    1:k (h/Mpc)              2:P (Mpc/h)^3        
       1.047750691046e-05       5.020964811313e+01 
       1.131335172503e-05       5.407050701925e+01 
       1.221587619537e-05       5.822819068807e+01 
       1.319039970183e-05       6.270562594779e+01 
       1.424266597921e-05       6.752732240880e+01 
       1.537887696968e-05       7.271977206173e+01 
       1.660572937635e-05       7.831147247912e+01 
       1.793045413292e-05       8.433311821988e+01 
       1.936085902198e-05       9.081778249833e+01 
       2.090537469327e-05       9.780108069296e+01 
       2.257310435294e-05       1.053213197893e+02 
       2.437387741694e-05       1.134197377890e+02 
       2.631830744443e-05       1.221408203809e+02 
       2.841785469300e-05       1.315324642467e+02 
       3.068489366414e-05       1.416462094881e+02 
       3.313278603720e-05       1.525374501932e+02 
       3.577595942169e-05       1.642660688414e+02 
       3.862999239199e-05       1.768963506307e+02 
       4.171170630578e-05       1.904975994010e+02 
       4.503926444729e-05       2.051444491974e+02 
       4.863227907969e-05       2.209171465549e+02 
       5.251192703764e-05       2.379022224249e+02 
       5.670107454120e-05       2.561927927629e+02 
       6.122441196689e-05       2.758890444041e+02 
       6.610859936996e-05       2.970989227882e+02 
       7.138242361596e-05       3.199385560802e+02 
       7.707696804727e-05       3.445329783680e+02 
       8.322579568497e-05       3.710167318946e+02 
       8.986514704559e-05       3.995346444203e+02 
       9.703415373875e-05       4.302425407383e+02 
       1.047750691046e-04       4.633080766742e+02 
       1.131335172503e-04       4.989116271565e+02 
       1.221587619537e-04       5.372471950929e+02 
       1.319039970183e-04       5.785234129339e+02 
       1.424266597921e-04       6.229645936045e+02 
       1.537887696968e-04       6.708118490405e+02 
       1.660572937635e-04       7.223242666092e+02 
       1.793045413292e-04       7.777801560656e+02 
       1.936085902198e-04       8.374783614140e+02 
       2.090537469327e-04       9.017396271824e+02 
       2.257310435294e-04       9.709080268041e+02 
       2.437387741694e-04       1.045352449493e+03 
       2.631830744443e-04       1.125468123750e+03 
       2.841785469300e-04       1.211678180495e+03 
       3.068489366414e-04       1.304435250150e+03 
       3.313278603720e-04       1.404223053681e+03 
       3.577595942169e-04       1.511558014616e+03 
       3.862999239199e-04       1.626990837799e+03 
       4.171170630578e-04       1.751108028790e+03 
       4.503926444729e-04       1.884533382872e+03 
       4.863227907969e-04       2.027929378112e+03 
       5.251192703764e-04       2.181998448133e+03 
       5.670107454121e-04       2.347484102755e+03 
       6.122441196689e-04       2.525171871365e+03 
       6.610859936996e-04       2.715889983593e+03 
       7.138242361596e-04       2.920509688384e+03 
       7.707696804727e-04       3.139945100278e+03 
       8.322579568497e-04       3.375152337580e+03 
       8.986514704559e-04       3.627127831140e+03 
       9.703415373875e-04       3.896905453135e+03 
       1.047750691046e-03       4.185552174308e+03 
       1.131335172503e-03       4.494162430372e+03 
       1.221587619537e-03       4.823850706493e+03 
       1.319039970183e-03       5.175742744236e+03 
       1.424266597921e-03       5.551019596908e+03 
       1.537887696968e-03       5.950788340558e+03 
       1.660572937635e-03       6.376123051734e+03 
       1.793045413292e-03       6.828073901437e+03 
       1.936085902198e-03       7.307625381059e+03 
       2.090537469327e-03       7.815671913832e+03 
       2.257310435294e-03       8.352990375815e+03 
       2.437387741694e-03       8.920211064332e+03 
       2.631830744443e-03       9.517783069092e+03 
       2.841785469300e-03       1.014593704433e+04 
       3.068489366414e-03       1.080464502788e+04 
       3.313278603720e-03       1.149357460339e+04 
       3.577595942169e-03       1.221203621717e+04 
       3.862999239199e-03       1.295892539439e+04 
       4.171170630578e-03       1.373266010069e+04 
       4.503926444729e-03       1.453111835615e+04 
       4.863227907969e-03       1.535154984934e+04 
       5.251192703764e-03       1.619063612391e+04 
       5.670107454120e-03       1.704431257644e+04 
       6.122441196689e-03       1.790755940910e+04 
       6.610859936996e-03       1.877460425198e+04 
       7.138242361596e-03       1.963872434498e+04 
       7.707696804727e-03       2.049215713618e+04 
       8.322579568496e-03       2.132607249109e+04 
       8.986514704559e-03       2.213055069548e+04 
       9.703415373875e-03       2.289445488580e+04 
       1.047750691046e-02       2.360548158983e+04 
       1.131335172503e-02       2.425022825043e+04 
       1.221587619537e-02       2.481423933078e+04 
       1.319039970183e-02       2.528218758262e+04 
       1.424266597920e-02       2.563814468130e+04 
       1.537887696964e-02       2.586605915878e+04 
       1.660572937560e-02       2.595028773503e+04 
       1.793045412207e-02       2.587633095640e+04 
       1.936085889642e-02       2.563218432213e+04 
       2.090537351881e-02       2.520934094452e+04 
       2.257309534705e-02       2.460445470720e+04 
       2.437382002240e-02       2.382082487344e+04 
       2.631799943729e-02       2.287044976602e+04 
       2.841644544598e-02       2.177449976241e+04 
       3.067933354524e-02       2.056556242646e+04 
       3.311368469821e-02       1.928726461477e+04 
       3.571840442514e-02       1.799405227019e+04 
       3.847720347390e-02       1.674682385699e+04 
       4.135335537314e-02       1.560463738432e+04 
       4.429361666563e-02       1.461031723972e+04 
       4.724366437916e-02       1.378055399713e+04 
       5.016480834039e-02       1.310502034530e+04 
       5.303989618930e-02       1.255719509610e+04 
       5.586870668205e-02       1.210425674430e+04 
       5.866042679206e-02       1.171471863292e+04 
       6.142798931504e-02       1.136055826045e+04 
       6.418496438662e-02       1.101862981108e+04 
       6.694418832236e-02       1.067075697392e+04 
       6.971731104453e-02       1.030361541418e+04 
       7.251476154108e-02       9.909041295576e+03 
       7.534587669814e-02       9.483811301294e+03 
       7.821907664495e-02       9.029529003418e+03 
       8.114203771084e-02       8.552371992025e+03 
       8.412184533139e-02       8.061965777748e+03 
       8.716512277352e-02       7.570811146923e+03 
       9.027813693913e-02       7.092519735056e+03 
       9.346688429613e-02       6.640544178858e+03 
       9.673716026122e-02       6.226739808835e+03 
       1.000946150608e-01       5.859987652479e+03 
       1.035447986307e-01       5.545281126234e+03 
       1.070931966524e-01       5.283160658475e+03 
       1.107452594180e-01       5.069435520984e+03 
       1.145064248899e-01       4.895252334875e+03 
       1.183821370656e-01       4.747868839770e+03 
       1.223778605591e-01       4.611736731828e+03 
       1.264990921707e-01       4.470549593079e+03 
       1.307513701078e-01       4.310237364006e+03 
       1.351402814485e-01       4.121298745905e+03 
       1.396714683894e-01       3.902072717384e+03 
       1.443506337875e-01       3.658655208238e+03 
       1.491835464900e-01       3.404481842950e+03 
       1.541760469368e-01       3.156658562672e+03 
       1.593340535209e-01       2.931933060018e+03 
       1.646635701934e-01       2.742360916942e+03 
       1.701706958081e-01       2.592244420169e+03 
       1.758616357070e-01       2.477223476679e+03 
       1.817427160581e-01       2.385162127715e+03 
       1.878204014651e-01       2.300360268148e+03 
       1.941013163855e-01       2.205774198609e+03 
       2.005922709060e-01       2.090829098519e+03 
       2.073002914514e-01       1.956467978766e+03 
       2.142326570343e-01       1.814165425272e+03 
       2.213969417044e-01       1.679271952143e+03 
       2.288010639201e-01       1.563832857107e+03 
       2.364533436625e-01       1.472669644946e+03 
       2.443625682390e-01       1.401505167514e+03 
       2.525380678946e-01       1.338422024843e+03 
       2.609898025770e-01       1.270900276579e+03 
       2.697284614969e-01       1.193358189272e+03 
       2.787655775073e-01       1.109331428662e+03 
       2.881136588192e-01       1.028756152772e+03 
       2.977863412019e-01       9.604745805297e+02 
       3.077985646248e-01       9.050151186088e+02 
       3.181667793367e-01       8.561367894017e+02 
       3.289091877084e-01       8.061805715418e+02 
       3.400460298905e-01       7.523834600208e+02 
       3.515999235695e-01       6.989166568409e+02 
       3.635962710278e-01       6.510549738690e+02 
       3.760637505499e-01       6.101188118093e+02 
       3.890349143014e-01       5.721284330274e+02 
       4.025469215929e-01       5.337767036148e+02 
       4.166424455447e-01       4.956241113734e+02 
       4.313708034899e-01       4.604650954869e+02 
       4.467893781976e-01       4.287697023007e+02 
       4.629654198623e-01       3.987700268207e+02 
       4.799783500912e-01       3.692374360446e+02 
       4.979227318246e-01       3.412375934853e+02 
       5.169121269689e-01       3.154779756329e+02 
       5.370841403262e-01       2.908305961432e+02 
       5.586070463286e-01       2.671019707613e+02 
       5.816885093582e-01       2.448058509907e+02 
       6.065870143577e-01       2.235663495773e+02 
       6.336266466978e-01       2.032091419965e+02 
       6.632156057925e-01       1.838772710993e+02 
       6.958678637575e-01       1.653536486220e+02 
       7.322247983784e-01       1.476943772885e+02 
       7.730680193171e-01       1.308335444562e+02 
       8.193049551574e-01       1.148312656516e+02 
       8.718988013754e-01       9.976232502743e+01 
       9.317218028590e-01       8.577721566380e+01 
       9.993660906273e-01       7.305402758509e+01 
       1.075037109879e+00       6.173559500127e+01 
       1.158653485387e+00       5.187864338358e+01 
       1.250099156961e+00       4.343980119826e+01 
       1.349432400897e+00       3.628838597892e+01 
       1.456947456991e+00       3.026762794776e+01 
       1.573135110893e+00       2.521411124029e+01 
       1.698621895119e+00       2.098168753825e+01 
       1.834127512423e+00       1.744205267439e+01 
       1.980444933977e+00       1.448534430931e+01 
       2.138435191130e+00       1.201865881925e+01 
       2.309029198543e+00       9.962869250157e+00 
       2.493232376993e+00       8.251502856461e+00 
       2.692130394536e+00       6.828278995365e+00 
       2.906895533764e+00       5.645969076235e+00 
       3.138793596840e+00       4.664592408882e+00 
       3.389191365541e+00       3.850840505214e+00 
       3.659564656886e+00       3.176673471865e+00 
       3.951507021438e+00       2.618630380263e+00 
       4.266739135513e+00       2.157086416386e+00 
       4.607118942658e+00       1.775675518679e+00 
       4.974652604172e+00       1.460746621876e+00 
       5.371506323193e+00       1.200883442842e+00 
       5.800019112071e+00       9.866413025235e-01 
       6.262716578240e+00       8.101233321924e-01 
       6.762325809881e+00       6.647836925955e-01 
       7.301791449077e+00       5.452049258663e-01 
       7.884293047211e+00       4.468826959147e-01 
       8.513263804891e+00       3.660866672359e-01 
       9.192410806865e+00       2.997354231531e-01 
       9.925736871166e+00       2.452798648999e-01 
       1.071756414128e+01       2.006100591738e-01 
       1.157255956041e+01       1.639907440988e-01 
       1.249576237789e+01       1.339889650633e-01 
       1.349261385000e+01       1.094200103270e-01 
       1.456898931011e+01       8.931012710338e-02 
       1.573123279727e+01       7.285998821091e-02 
       1.698619444729e+01       5.940910574382e-02 
       1.834127086665e+01       4.841705590764e-02 
       1.980444872733e+01       3.943734829476e-02 
       2.138435183937e+01       3.210626442693e-02 
       2.309029197863e+01       2.612312432638e-02 
       2.493232376942e+01       2.124287031236e-02 
       2.692130394533e+01       1.726366947721e-02 
       2.906895533764e+01       1.402088692560e-02 
       3.138793596840e+01       1.137917535169e-02 
       3.389191365541e+01       9.228304106676e-03 
       3.659564656886e+01       7.477781414001e-03 
       3.951507021438e+01       6.053903885134e-03 
       4.266739135513e+01       4.896140739716e-03 
       4.607118942658e+01       3.955378909831e-03 
       4.974652604172e+01       3.191271281199e-03 
       5.371506323193e+01       2.571010583257e-03 
       5.800019112071e+01       2.067869336656e-03 
       6.262716578240e+01       1.659981398776e-03 
       6.762325809881e+01       1.329584365875e-03 
