# Matter power spectrum P(k) at redshift z=99
# for k=1.04775e-05 to 67.6233 h/Mpc,
# number of wavenumbers equal to 246
#    1:k (h/Mpc)              2:P (Mpc/h)^3        
       1.047750691046e-05       7.261927680985e-03 
       1.131335172503e-05       7.820331652565e-03 
       1.221587619537e-05       8.421675995598e-03 
       1.319039970183e-05       9.069258202003e-03 
       1.424266597921e-05       9.766638412299e-03 
       1.537887696968e-05       1.051764070819e-02 
       1.660572937635e-05       1.132639106745e-02 
       1.793045413292e-05       1.219733232736e-02 
       1.936085902198e-05       1.313524225801e-02 
       2.090537469327e-05       1.414527123423e-02 
       2.257310435294e-05       1.523296273849e-02 
       2.437387741694e-05       1.640429446316e-02 
       2.631830744443e-05       1.766569584088e-02 
       2.841785469300e-05       1.902408737037e-02 
       3.068489366414e-05       2.048692972807e-02 
       3.313278603720e-05       2.206225515980e-02 
       3.577595942169e-05       2.375870707478e-02 
       3.862999239199e-05       2.558560730246e-02 
       4.171170630578e-05       2.755297766323e-02 
       4.503926444729e-05       2.967161930525e-02 
       4.863227907969e-05       3.195316454288e-02 
       5.251192703764e-05       3.441013523006e-02 
       5.670107454120e-05       3.705601726535e-02 
       6.122441196689e-05       3.990533417868e-02 
       6.610859936996e-05       4.297372172851e-02 
       7.138242361596e-05       4.627802146693e-02 
       7.707696804727e-05       4.983636199549e-02 
       8.322579568497e-05       5.366826853035e-02 
       8.986514704559e-05       5.779476400818e-02 
       9.703415373875e-05       6.223848250617e-02 
       1.047750691046e-04       6.702379872888e-02 
       1.131335172503e-04       7.217695161187e-02 
       1.221587619537e-04       7.772619081978e-02 
       1.319039970183e-04       8.370193441429e-02 
       1.424266597921e-04       9.013692517294e-02 
       1.537887696968e-04       9.706641253067e-02 
       1.660572937635e-04       1.045283355402e-01 
       1.793045413292e-04       1.125635350285e-01 
       1.936085902198e-04       1.212159616279e-01 
       2.090537469327e-04       1.305329134126e-01 
       2.257310435294e-04       1.405652847735e-01 
       2.437387741694e-04       1.513678304177e-01 
       2.631830744443e-04       1.629994506633e-01 
       2.841785469300e-04       1.755234923122e-01 
       3.068489366414e-04       1.890080672456e-01 
       3.313278603720e-04       2.035264004635e-01 
       3.577595942169e-04       2.191571806049e-01 
       3.862999239199e-04       2.359849440143e-01 
       4.171170630578e-04       2.541004744284e-01 
       4.503926444729e-04       2.736012083233e-01 
       4.863227907969e-04       2.945916794147e-01 
       5.251192703764e-04       3.171839528608e-01 
       5.670107454121e-04       3.414980767688e-01 
       6.122441196689e-04       3.676625417068e-01 
       6.610859936996e-04       3.958147256573e-01 
       7.138242361596e-04       4.261013289416e-01 
       7.707696804727e-04       4.586787797416e-01 
       8.322579568497e-04       4.937136006360e-01 
       8.986514704559e-04       5.313826807120e-01 
       9.703415373875e-04       5.718734978306e-01 
       1.047750691046e-03       6.153841636114e-01 
       1.131335172503e-03       6.621233246569e-01 
       1.221587619537e-03       7.123098228054e-01 
       1.319039970183e-03       7.661720592729e-01 
       1.424266597921e-03       8.239546306526e-01 
       1.537887696968e-03       8.859011182903e-01 
       1.660572937635e-03       9.522588016511e-01 
       1.793045413292e-03       1.023280100902e+00 
       1.936085902198e-03       1.099216305736e+00 
       2.090537469327e-03       1.180312991688e+00 
       2.257310435294e-03       1.266804117165e+00 
       2.437387741694e-03       1.358904854799e+00 
       2.631830744443e-03       1.456802684628e+00 
       2.841785469300e-03       1.560646892070e+00 
       3.068489366414e-03       1.670536064117e+00 
       3.313278603720e-03       1.786503853855e+00 
       3.577595942169e-03       1.908502932511e+00 
       3.862999239199e-03       2.036387732448e+00 
       4.171170630578e-03       2.169896191302e+00 
       4.503926444729e-03       2.308631880639e+00 
       4.863227907969e-03       2.452047292455e+00 
       5.251192703764e-03       2.599430629325e+00 
       5.670107454120e-03       2.749896932657e+00 
       6.122441196689e-03       2.902386513582e+00 
       6.610859936996e-03       3.055668712789e+00 
       7.138242361596e-03       3.208356459515e+00 
       7.707696804727e-03       3.358923889216e+00 
       8.322579568496e-03       3.505725588948e+00 
       8.986514704559e-03       3.647009686425e+00 
       9.703415373875e-03       3.780923289590e+00 
       1.047750691046e-02       3.905490105878e+00 
       1.131335172503e-02       4.018588165477e+00 
       1.221587619537e-02       4.117901544503e+00 
       1.319039970183e-02       4.200915315934e+00 
       1.424266597920e-02       4.264940997262e+00 
       1.537887696964e-02       4.307216590143e+00 
       1.660572937560e-02       4.325064139874e+00 
       1.793045412207e-02       4.316058051137e+00 
       1.936085889642e-02       4.278227894946e+00 
       2.090537351881e-02       4.210204412862e+00 
       2.257309534705e-02       4.111421465058e+00 
       2.437382002240e-02       3.982416999818e+00 
       2.631799943729e-02       3.825161209842e+00 
       2.841644544598e-02       3.643285926760e+00 
       3.067933354524e-02       3.442203389852e+00 
       3.311368469821e-02       3.229235144858e+00 
       3.571840442514e-02       3.013515890696e+00 
       3.847720347390e-02       2.805284250416e+00 
       4.135335537314e-02       2.614410968772e+00 
       4.429361666563e-02       2.448140414814e+00 
       4.724366437916e-02       2.309232564551e+00 
       5.016480834039e-02       2.196106391582e+00 
       5.303989618930e-02       2.104361920772e+00 
       5.586870668205e-02       2.028461945774e+00 
       5.866042679206e-02       1.963146819574e+00 
       6.142798931504e-02       1.903775179904e+00 
       6.418496438662e-02       1.846476229572e+00 
       6.694418832236e-02       1.788189810797e+00 
       6.971731104453e-02       1.726711088019e+00 
       7.251476154108e-02       1.660647832545e+00 
       7.534587669814e-02       1.589460881952e+00 
       7.821907664495e-02       1.513427610659e+00 
       8.114203771084e-02       1.433562498207e+00 
       8.412184533139e-02       1.351483778180e+00 
       8.716512277352e-02       1.269264379929e+00 
       9.027813693913e-02       1.189182855559e+00 
       9.346688429613e-02       1.113494132087e+00 
       9.673716026122e-02       1.044162088072e+00 
       1.000946150608e-01       9.826947763424e-01 
       1.035447986307e-01       9.299266986617e-01 
       1.070931966524e-01       8.859443950443e-01 
       1.107452594180e-01       8.500572349586e-01 
       1.145064248899e-01       8.207900662002e-01 
       1.183821370656e-01       7.960080317703e-01 
       1.223778605591e-01       7.731306211561e-01 
       1.264990921707e-01       7.494340066233e-01 
       1.307513701078e-01       7.225387063806e-01 
       1.351402814485e-01       6.908913001559e-01 
       1.396714683894e-01       6.541604275367e-01 
       1.443506337875e-01       6.134055738245e-01 
       1.491835464900e-01       5.708461554695e-01 
       1.541760469368e-01       5.293416885810e-01 
       1.593340535209e-01       4.916878596414e-01 
       1.646635701934e-01       4.598954118243e-01 
       1.701706958081e-01       4.347044233656e-01 
       1.758616357070e-01       4.153828935110e-01 
       1.817427160581e-01       3.999096759650e-01 
       1.878204014651e-01       3.856542293557e-01 
       1.941013163855e-01       3.697794384416e-01 
       2.005922709060e-01       3.505157816472e-01 
       2.073002914514e-01       3.280115937541e-01 
       2.142326570343e-01       3.041818475085e-01 
       2.213969417044e-01       2.815800399948e-01 
       2.288010639201e-01       2.622232558942e-01 
       2.364533436625e-01       2.469265388382e-01 
       2.443625682390e-01       2.349768546743e-01 
       2.525380678946e-01       2.243796265087e-01 
       2.609898025770e-01       2.130538802052e-01 
       2.697284614969e-01       2.000621355721e-01 
       2.787655775073e-01       1.859787062236e-01 
       2.881136588192e-01       1.724754966279e-01 
       2.977863412019e-01       1.610227702342e-01 
       3.077985646248e-01       1.517171260219e-01 
       3.181667793367e-01       1.435134345481e-01 
       3.289091877084e-01       1.351345652690e-01 
       3.400460298905e-01       1.261162582199e-01 
       3.515999235695e-01       1.171528061184e-01 
       3.635962710278e-01       1.091262360162e-01 
       3.760637505499e-01       1.022579040265e-01 
       3.890349143014e-01       9.588463264116e-02 
       4.025469215929e-01       8.945372433149e-02 
       4.166424455447e-01       8.305644591908e-02 
       4.313708034899e-01       7.715905761834e-02 
       4.467893781976e-01       7.184283696660e-02 
       4.629654198623e-01       6.681003165951e-02 
       4.799783500912e-01       6.185716073146e-02 
       4.979227318246e-01       5.716053582389e-02 
       5.169121269689e-01       5.283984435857e-02 
       5.370841403262e-01       4.870527293194e-02 
       5.586070463286e-01       4.472492949429e-02 
       5.816885093582e-01       4.098435197264e-02 
       6.065870143577e-01       3.742087224585e-02 
       6.336266466978e-01       3.400584914209e-02 
       6.632156057925e-01       3.076251845246e-02 
       6.958678637575e-01       2.765454493393e-02 
       7.322247983784e-01       2.469146112317e-02 
       7.730680193171e-01       2.186214173479e-02 
       8.193049551574e-01       1.917662120942e-02 
       8.718988013754e-01       1.664777129408e-02 
       9.317218028590e-01       1.430048289410e-02 
       9.993660906273e-01       1.216466297916e-02 
       1.075037109879e+00       1.026429266670e-02 
       1.158653485387e+00       8.609186712708e-03 
       1.250099156961e+00       7.191842199556e-03 
       1.349432400897e+00       5.990588760981e-03 
       1.456947456991e+00       4.978879217933e-03 
       1.573135110893e+00       4.129592978769e-03 
       1.698621895119e+00       3.418165470628e-03 
       1.834127512423e+00       2.823065421933e-03 
       1.980444933977e+00       2.325952739537e-03 
       2.138435191130e+00       1.911216827005e-03 
       2.309029198543e+00       1.565645474533e-03 
       2.493232376993e+00       1.278125627079e-03 
       2.692130394536e+00       1.039224615310e-03 
       2.906895533764e+00       8.410623226503e-04 
       3.138793596840e+00       6.769875149337e-04 
       3.389191365541e+00       5.414399851847e-04 
       3.659564656886e+00       4.297523340245e-04 
       3.951507021438e+00       3.380292459565e-04 
       4.266739135513e+00       2.630174034997e-04 
       4.607118942658e+00       2.019915740382e-04 
       4.974652604172e+00       1.526831088279e-04 
       5.371506323193e+00       1.131910191235e-04 
       5.800019112071e+00       8.192216318914e-05 
       6.262716578240e+00       5.752996134234e-05 
       6.762325809881e+00       3.887220866061e-05 
       7.301791449077e+00       2.496908564780e-05 
       7.884293047211e+00       1.496767509802e-05 
       8.513263804891e+00       8.120240098291e-06 
       9.192410806865e+00       3.762174035036e-06 
       9.925736871166e+00       1.299986721858e-06 
       1.071756414128e+01       2.050909676104e-07 
       1.157255956041e+01       1.450468745918e-08 
       1.249576237789e+01       3.347843754043e-07 
       1.349261385000e+01       8.496884206665e-07 
       1.456898931011e+01       1.327376205075e-06 
       1.573123279727e+01       1.624186191117e-06 
       1.698619444729e+01       1.681976476948e-06 
       1.834127086665e+01       1.516337983500e-06 
       1.980444872733e+01       1.195899154941e-06 
       2.138435183937e+01       8.145772227416e-07 
       2.309029197863e+01       4.623481586716e-07 
       2.493232376942e+01       2.013477443053e-07 
       2.692130394533e+01       5.334063517990e-08 
       2.906895533764e+01       2.112043309177e-09 
       3.138793596840e+01       8.487350108319e-09 
       3.389191365541e+01       3.098004366478e-08 
       3.659564656886e+01       4.256306456691e-08 
       3.951507021438e+01       3.658122112538e-08 
       4.266739135513e+01       2.105327840043e-08 
       4.607118942658e+01       7.239969442541e-09 
       4.974652604172e+01       7.765699039617e-10 
       5.371506323193e+01       2.000231562634e-10 
       5.800019112071e+01       1.236458234397e-09 
       6.262716578240e+01       1.337033834905e-09 
       6.762325809881e+01       6.318919531746e-10 
