# Matter power spectrum P(k) at redshift z=99
# for k=1.04775e-05 to 66.1767 h/Mpc,
# number of wavenumbers equal to 130
#    1:k (h/Mpc)              2:P (Mpc/h)^3        
       1.047750691046e-05       7.261927680867e-03 
       1.319039970183e-05       9.069258201856e-03 
       1.660572937635e-05       1.132639106726e-02 
       2.090537469327e-05       1.414527123400e-02 
       2.631830744443e-05       1.766569584060e-02 
       3.313278603720e-05       2.206225515944e-02 
       4.171170630578e-05       2.755297766279e-02 
       5.251192703764e-05       3.441013522950e-02 
       6.610859936996e-05       4.297372172781e-02 
       8.322579568497e-05       5.366826852948e-02 
       1.047750691046e-04       6.702379872780e-02 
       1.319039970183e-04       8.370193441292e-02 
       1.660572937635e-04       1.045283355385e-01 
       2.090537469327e-04       1.305329134105e-01 
       2.631830744443e-04       1.629994506607e-01 
       3.313278603720e-04       2.035264004603e-01 
       4.171170630578e-04       2.541004744245e-01 
       5.251192703764e-04       3.171839528559e-01 
       6.610859936996e-04       3.958147256516e-01 
       8.322579568497e-04       4.937136006266e-01 
       1.047750691046e-03       6.153841636043e-01 
       1.319039970183e-03       7.661720592590e-01 
       1.660572937635e-03       9.522588016414e-01 
       2.090537469327e-03       1.180312991698e+00 
       2.631830744443e-03       1.456802684683e+00 
       3.313278603720e-03       1.786503854029e+00 
       4.171170630578e-03       2.169896191783e+00 
       5.251192703764e-03       2.599430630689e+00 
       6.610859936996e-03       3.055668703362e+00 
       8.322579568497e-03       3.505725598570e+00 
       1.047750691046e-02       3.905491580854e+00 
       1.319039970183e-02       4.200915319850e+00 
       1.660572937633e-02       4.325061054855e+00 
       2.090537453514e-02       4.210202673974e+00 
       2.631818545635e-02       3.825154915848e+00 
       3.311571692125e-02       3.229066179966e+00 
       4.113809243311e-02       2.627725220085e+00 
       4.792590854610e-02       2.280791494746e+00 
       5.284436902701e-02       2.110087749697e+00 
       5.689644391095e-02       2.003538930777e+00 
       6.051252627066e-02       1.923058615208e+00 
       6.388413457411e-02       1.852733836210e+00 
       6.711249296401e-02       1.784562478512e+00 
       7.025823437965e-02       1.714277689959e+00 
       7.336115587705e-02       1.639814811839e+00 
       7.644928796912e-02       1.560664280492e+00 
       7.954353299775e-02       1.477457376009e+00 
       8.266024078725e-02       1.391697723000e+00 
       8.581273398637e-02       1.305460947916e+00 
       8.901225918437e-02       1.221126802937e+00 
       9.226860540985e-02       1.141079485778e+00 
       9.559052048996e-02       1.067452318836e+00 
       9.898599946599e-02       1.001888816234e+00 
       1.024624891378e-01       9.453835759339e-01 
       1.060270359164e-01       8.981505254657e-01 
       1.096863943056e-01       8.596126107821e-01 
       1.134471073830e-01       8.284048297061e-01 
       1.173155669539e-01       8.024674395970e-01 
       1.212980586983e-01       7.792281759837e-01 
       1.254007961065e-01       7.559191958565e-01 
       1.296299459934e-01       7.299839298209e-01 
       1.339916477160e-01       6.995930022604e-01 
       1.384920277736e-01       6.640792717903e-01 
       1.431372111762e-01       6.241457397986e-01 
       1.479333307714e-01       5.817655262867e-01 
       1.528865355934e-01       5.396908971209e-01 
       1.580029992204e-01       5.008141353883e-01 
       1.632889290723e-01       4.673977647285e-01 
       1.687505775527e-01       4.405340185337e-01 
       1.743942559171e-01       4.198665380846e-01 
       1.802263517371e-01       4.036597179237e-01 
       1.862533508214e-01       3.893632128983e-01 
       1.924818644494e-01       3.741393515846e-01 
       1.989186627765e-01       3.558052719924e-01 
       2.055707152847e-01       3.340029863314e-01 
       2.124452391818e-01       3.102655837773e-01 
       2.195497567139e-01       2.871217980030e-01 
       2.268921624510e-01       2.668082461791e-01 
       2.344808017550e-01       2.504826434447e-01 
       2.423245618548e-01       2.378331790146e-01 
       2.504329772620e-01       2.271118021814e-01 
       2.588163516754e-01       2.161200051894e-01 
       2.674858990930e-01       2.035476368373e-01 
       2.764539076010e-01       1.895974396598e-01 
       2.857339303080e-01       1.757569470428e-01 
       2.953410092148e-01       1.636992616408e-01 
       3.052919395542e-01       1.539062581006e-01 
       3.156055844677e-01       1.455308630657e-01 
       3.263032530092e-01       1.372502298831e-01 
       3.374091587054e-01       1.283016864827e-01 
       3.489509817175e-01       1.191712557512e-01 
       3.609605657343e-01       1.108072389694e-01 
       3.734747921333e-01       1.036448631769e-01 
       3.865366902904e-01       9.714106464540e-02 
       4.001968667448e-01       9.061552789002e-02 
       4.145153713076e-01       8.403712055873e-02 
       4.295641718077e-01       7.789104711989e-02 
       4.454304922144e-01       7.234160227981e-02 
       4.622214006969e-01       6.709353584807e-02 
       4.800702491654e-01       6.189187571077e-02 
       4.991459272112e-01       5.692615586515e-02 
       5.196665217302e-01       5.231596370058e-02 
       5.419201087032e-01       4.783257415521e-02 
       5.662975451962e-01       4.348698794698e-02 
       5.933463737275e-01       3.933098058047e-02 
       6.238638458458e-01       3.525325540542e-02 
       6.590669257916e-01       3.126277818486e-02 
       7.009246080454e-01       2.728725065777e-02 
       7.528593308799e-01       2.327839834775e-02 
       8.213469537518e-01       1.914817910347e-02 
       9.196980813302e-01       1.481692242363e-02 
       1.075112183810e+00       1.035086598154e-02 
       1.322697471132e+00       6.379397032278e-03 
       1.662328205042e+00       3.705578183843e-03 
       2.092692408506e+00       2.124462084405e-03 
       2.634543445090e+00       1.207881262665e-03 
       3.316693691389e+00       6.816203689126e-04 
       4.175469971226e+00       3.820283934195e-04 
       5.256605252960e+00       2.127730898034e-04 
       6.617673932723e+00       1.178139709979e-04 
       8.331157880872e+00       6.486922032604e-05 
       1.048830636590e+01       3.551685379302e-05 
       1.320399541071e+01       1.932533132392e-05 
       1.662284535976e+01       1.043315157185e-05 
       2.092692243973e+01       5.568075969254e-06 
       2.634543445002e+01       2.915073758557e-06 
       3.316693691389e+01       1.473898663084e-06 
       4.175469971226e+01       6.975105783988e-07 
       5.256605252960e+01       2.897270275931e-07 
       6.617673932723e+01       9.127208592013e-08 
