# Matter power spectrum P(k) at redshift z=99
# for k=1.04775e-05 to 66.1767 h/Mpc,
# number of wavenumbers equal to 130
#    1:k (h/Mpc)              2:P (Mpc/h)^3        
       1.047750691046e-05       7.261927680867e-03 
       1.319039970183e-05       9.069258201855e-03 
       1.660572937635e-05       1.132639106726e-02 
       2.090537469327e-05       1.414527123400e-02 
       2.631830744443e-05       1.766569584059e-02 
       3.313278603720e-05       2.206225515944e-02 
       4.171170630578e-05       2.755297766279e-02 
       5.251192703764e-05       3.441013522950e-02 
       6.610859936996e-05       4.297372172780e-02 
       8.322579568497e-05       5.366826852948e-02 
       1.047750691046e-04       6.702379872779e-02 
       1.319039970183e-04       8.370193441292e-02 
       1.660572937635e-04       1.045283355385e-01 
       2.090537469327e-04       1.305329134105e-01 
       2.631830744443e-04       1.629994506606e-01 
       3.313278603720e-04       2.035264004603e-01 
       4.171170630578e-04       2.541004744244e-01 
       5.251192703764e-04       3.171839528559e-01 
       6.610859936996e-04       3.958147256516e-01 
       8.322579568497e-04       4.937136006279e-01 
       1.047750691046e-03       6.153841636044e-01 
       1.319039970183e-03       7.661720592586e-01 
       1.660572937635e-03       9.522588016448e-01 
       2.090537469327e-03       1.180312991699e+00 
       2.631830744443e-03       1.456802684683e+00 
       3.313278603720e-03       1.786503854035e+00 
       4.171170630578e-03       2.169896194782e+00 
       5.251192703764e-03       2.599430630692e+00 
       6.610859936996e-03       3.055668697459e+00 
       8.322579568497e-03       3.505725088070e+00 
       1.047750691046e-02       3.905491553622e+00 
       1.319039970183e-02       4.200915331012e+00 
       1.660572937633e-02       4.325062532850e+00 
       2.090537453514e-02       4.210203628333e+00 
       2.631818545635e-02       3.825152808115e+00 
       3.311571692125e-02       3.229064006678e+00 
       4.113809243311e-02       2.627720395702e+00 
       4.792590854610e-02       2.280795247774e+00 
       5.284436902701e-02       2.110086604658e+00 
       5.689644391095e-02       2.003536042372e+00 
       6.051252627066e-02       1.923058301450e+00 
       6.388413457411e-02       1.852733495075e+00 
       6.711249296401e-02       1.784561709433e+00 
       7.025823437965e-02       1.714277249968e+00 
       7.336115587705e-02       1.639817546517e+00 
       7.644928796912e-02       1.560661863200e+00 
       7.954353299775e-02       1.477456972474e+00 
       8.266024078725e-02       1.391696692352e+00 
       8.581273398637e-02       1.305460886684e+00 
       8.901225918437e-02       1.221125526519e+00 
       9.226860540985e-02       1.141078892694e+00 
       9.559052048996e-02       1.067450336722e+00 
       9.898599946599e-02       1.001890307682e+00 
       1.024624891378e-01       9.453857540403e-01 
       1.060270359164e-01       8.981490848822e-01 
       1.096863943056e-01       8.596127251907e-01 
       1.134471073830e-01       8.284070848857e-01 
       1.173155669539e-01       8.024680824873e-01 
       1.212980586983e-01       7.792297480974e-01 
       1.254007961065e-01       7.559195131086e-01 
       1.296299459934e-01       7.299826634641e-01 
       1.339916477160e-01       6.995916847307e-01 
       1.384920277736e-01       6.640798540255e-01 
       1.431372111762e-01       6.241455942176e-01 
       1.479333307714e-01       5.817644720723e-01 
       1.528865355934e-01       5.396899473657e-01 
       1.580029992204e-01       5.008133412653e-01 
       1.632889290723e-01       4.673985539980e-01 
       1.687505775527e-01       4.405348778881e-01 
       1.743942559171e-01       4.198664152359e-01 
       1.802263517371e-01       4.036593363790e-01 
       1.862533508214e-01       3.893625800834e-01 
       1.924818644494e-01       3.741379981446e-01 
       1.989186627765e-01       3.558054886422e-01 
       2.055707152847e-01       3.340025509538e-01 
       2.124452391818e-01       3.102673985097e-01 
       2.195497567139e-01       2.871224376516e-01 
       2.268921624510e-01       2.668076621285e-01 
       2.344808017550e-01       2.504831507702e-01 
       2.423245618548e-01       2.378334025347e-01 
       2.504329772620e-01       2.271121152382e-01 
       2.588163516754e-01       2.161192665347e-01 
       2.674858990930e-01       2.035477035385e-01 
       2.764539076010e-01       1.895974493900e-01 
       2.857339303080e-01       1.757572607189e-01 
       2.953410092148e-01       1.636991653595e-01 
       3.052919395542e-01       1.539063295082e-01 
       3.156055844677e-01       1.455310660231e-01 
       3.263032530092e-01       1.372503255302e-01 
       3.374091587054e-01       1.283015695759e-01 
       3.489509817175e-01       1.191712458677e-01 
       3.609605657343e-01       1.108071506034e-01 
       3.734747921333e-01       1.036452023415e-01 
       3.865366902904e-01       9.714115024961e-02 
       4.001968667448e-01       9.061529552992e-02 
       4.145153713076e-01       8.403677123909e-02 
       4.295641718077e-01       7.789131969884e-02 
       4.454304922144e-01       7.234147929297e-02 
       4.622214006969e-01       6.709369258836e-02 
       4.800702491654e-01       6.189168576440e-02 
       4.991459272112e-01       5.692625829749e-02 
       5.196665217302e-01       5.231614269875e-02 
       5.419201087032e-01       4.783253668775e-02 
       5.662975451962e-01       4.348678557459e-02 
       5.933463737275e-01       3.933098843321e-02 
       6.238638458458e-01       3.525333814369e-02 
       6.590669257916e-01       3.126284811380e-02 
       7.009246080454e-01       2.728720614003e-02 
       7.528593308799e-01       2.327842647796e-02 
       8.213469537518e-01       1.914822752028e-02 
       9.196980813302e-01       1.481697093571e-02 
       1.075112183810e+00       1.035085070627e-02 
       1.322697471132e+00       6.379392109486e-03 
       1.662328205042e+00       3.705602085975e-03 
       2.092692408506e+00       2.124476976755e-03 
       2.634543445090e+00       1.207909087872e-03 
       3.316693691389e+00       6.816556869685e-04 
       4.175469971226e+00       3.820682741993e-04 
       5.256605252960e+00       2.128230847331e-04 
       6.617673932723e+00       1.178741120102e-04 
       8.331157880872e+00       6.494115000965e-05 
       1.048830636590e+01       3.560222662401e-05 
       1.320399541071e+01       1.942614868235e-05 
       1.662284535976e+01       1.055076322703e-05 
       2.092692243973e+01       5.703276723408e-06 
       2.634543445002e+01       3.066989014019e-06 
       3.316693691389e+01       1.639244788684e-06 
       4.175469971226e+01       8.692117479484e-07 
       5.256605252960e+01       4.557783902595e-07 
       6.617673932723e+01       2.349938954075e-07 
