# Matter power spectrum P(k) at redshift z=99
# for k=1.04775e-05 to 66.1767 h/Mpc,
# number of wavenumbers equal to 130
#    1:k (h/Mpc)              2:P (Mpc/h)^3        
       1.047750691046e-05       7.261927680862e-03 
       1.319039970183e-05       9.069258201849e-03 
       1.660572937635e-05       1.132639106725e-02 
       2.090537469327e-05       1.414527123399e-02 
       2.631830744443e-05       1.766569584058e-02 
       3.313278603720e-05       2.206225515942e-02 
       4.171170630578e-05       2.755297766277e-02 
       5.251192703764e-05       3.441013522947e-02 
       6.610859936996e-05       4.297372172778e-02 
       8.322579568497e-05       5.366826852944e-02 
       1.047750691046e-04       6.702379872775e-02 
       1.319039970183e-04       8.370193441286e-02 
       1.660572937635e-04       1.045283355384e-01 
       2.090537469327e-04       1.305329134104e-01 
       2.631830744443e-04       1.629994506605e-01 
       3.313278603720e-04       2.035264004601e-01 
       4.171170630578e-04       2.541004744243e-01 
       5.251192703764e-04       3.171839528557e-01 
       6.610859936996e-04       3.958147256514e-01 
       8.322579568497e-04       4.937136006279e-01 
       1.047750691046e-03       6.153841636042e-01 
       1.319039970183e-03       7.661720592521e-01 
       1.660572937635e-03       9.522588016472e-01 
       2.090537469327e-03       1.180312991698e+00 
       2.631830744443e-03       1.456802684686e+00 
       3.313278603720e-03       1.786503854042e+00 
       4.171170630578e-03       2.169896192390e+00 
       5.251192703764e-03       2.599430630717e+00 
       6.610859936996e-03       3.055668701042e+00 
       8.322579568497e-03       3.505725598630e+00 
       1.047750691046e-02       3.905490412444e+00 
       1.319039970183e-02       4.200915352201e+00 
       1.660572937633e-02       4.325061529961e+00 
       2.090537453514e-02       4.210207243457e+00 
       2.631818545635e-02       3.825150159868e+00 
       3.311571692125e-02       3.229071791502e+00 
       4.113809243311e-02       2.627737904775e+00 
       4.792590854610e-02       2.280792930162e+00 
       5.284436902701e-02       2.110083394589e+00 
       5.689644391095e-02       2.003540821419e+00 
       6.051252627066e-02       1.923056990859e+00 
       6.388413457411e-02       1.852734110100e+00 
       6.711249296401e-02       1.784565336140e+00 
       7.025823437965e-02       1.714275709724e+00 
       7.336115587705e-02       1.639810376600e+00 
       7.644928796912e-02       1.560662656982e+00 
       7.954353299775e-02       1.477459375637e+00 
       8.266024078725e-02       1.391701983590e+00 
       8.581273398637e-02       1.305462313572e+00 
       8.901225918437e-02       1.221126551457e+00 
       9.226860540985e-02       1.141080415549e+00 
       9.559052048996e-02       1.067453983648e+00 
       9.898599946599e-02       1.001891293596e+00 
       1.024624891378e-01       9.453809866691e-01 
       1.060270359164e-01       8.981490089024e-01 
       1.096863943056e-01       8.596121930804e-01 
       1.134471073830e-01       8.284070453040e-01 
       1.173155669539e-01       8.024675107416e-01 
       1.212980586983e-01       7.792295737804e-01 
       1.254007961065e-01       7.559183079566e-01 
       1.296299459934e-01       7.299816199809e-01 
       1.339916477160e-01       6.995938917742e-01 
       1.384920277736e-01       6.640792219718e-01 
       1.431372111762e-01       6.241475018417e-01 
       1.479333307714e-01       5.817632884294e-01 
       1.528865355934e-01       5.396943653882e-01 
       1.580029992204e-01       5.008135037258e-01 
       1.632889290723e-01       4.673972776905e-01 
       1.687505775527e-01       4.405341091456e-01 
       1.743942559171e-01       4.198655034702e-01 
       1.802263517371e-01       4.036605531186e-01 
       1.862533508214e-01       3.893604802858e-01 
       1.924818644494e-01       3.741350627887e-01 
       1.989186627765e-01       3.558021687111e-01 
       2.055707152847e-01       3.339989815910e-01 
       2.124452391818e-01       3.102655799753e-01 
       2.195497567139e-01       2.871233133623e-01 
       2.268921624510e-01       2.668081335764e-01 
       2.344808017550e-01       2.504828147297e-01 
       2.423245618548e-01       2.378333818094e-01 
       2.504329772620e-01       2.271116326848e-01 
       2.588163516754e-01       2.161174881187e-01 
       2.674858990930e-01       2.035442192448e-01 
       2.764539076010e-01       1.895971876929e-01 
       2.857339303080e-01       1.757577587612e-01 
       2.953410092148e-01       1.636991603057e-01 
       3.052919395542e-01       1.539063293544e-01 
       3.156055844677e-01       1.455308044728e-01 
       3.263032530092e-01       1.372498727260e-01 
       3.374091587054e-01       1.283018041660e-01 
       3.489509817175e-01       1.191710112869e-01 
       3.609605657343e-01       1.108071227897e-01 
       3.734747921333e-01       1.036452217211e-01 
       3.865366902904e-01       9.714139353173e-02 
       4.001968667448e-01       9.061526195082e-02 
       4.145153713076e-01       8.403690515262e-02 
       4.295641718077e-01       7.789124620716e-02 
       4.454304922144e-01       7.234157480029e-02 
       4.622214006969e-01       6.709342340318e-02 
       4.800702491654e-01       6.189162291247e-02 
       4.991459272112e-01       5.692621289840e-02 
       5.196665217302e-01       5.231609979472e-02 
       5.419201087032e-01       4.783245900955e-02 
       5.662975451962e-01       4.348675273467e-02 
       5.933463737275e-01       3.933076757246e-02 
       6.238638458458e-01       3.525328643314e-02 
       6.590669257916e-01       3.126269113286e-02 
       7.009246080454e-01       2.728714983082e-02 
       7.528593308799e-01       2.327817372782e-02 
       8.213469537518e-01       1.914806936326e-02 
       9.196980813302e-01       1.481677683491e-02 
       1.075112183810e+00       1.035060203824e-02 
       1.322697471132e+00       6.379155326702e-03 
       1.662328205042e+00       3.705320882699e-03 
       2.092692408506e+00       2.124182990989e-03 
       2.634543445090e+00       1.207597254183e-03 
       3.316693691389e+00       6.813288448802e-04 
       4.175469971226e+00       3.817288760297e-04 
       5.256605252960e+00       2.124713602603e-04 
       6.617673932723e+00       1.175143117804e-04 
       8.331157880872e+00       6.457443822303e-05 
       1.048830636590e+01       3.523088685360e-05 
       1.320399541071e+01       1.905318537978e-05 
       1.662284535976e+01       1.018014810530e-05 
       2.092692243973e+01       5.340419869884e-06 
       2.634543445002e+01       2.719295121056e-06 
       3.316693691389e+01       1.316488462955e-06 
       4.175469971226e+01       5.833924908221e-07 
       5.256605252960e+01       2.198074438993e-07 
       6.617673932723e+01       5.957056528913e-08 
