# Matter power spectrum P(k) at redshift z=99
# for k=1.04775e-05 to 67.6233 h/Mpc,
# number of wavenumbers equal to 246
#    1:k (h/Mpc)              2:P (Mpc/h)^3        
       1.047750691046e-05       7.261927970377e-03 
       1.131335172503e-05       7.820332065940e-03 
       1.221587619537e-05       8.421676332877e-03 
       1.319039970183e-05       9.069258576021e-03 
       1.424266597921e-05       9.766638801789e-03 
       1.537887696968e-05       1.051764112246e-02 
       1.660572937635e-05       1.132639186069e-02 
       1.793045413292e-05       1.219733281322e-02 
       1.936085902198e-05       1.313524278166e-02 
       2.090537469327e-05       1.414526951976e-02 
       2.257310435294e-05       1.523296489983e-02 
       2.437387741694e-05       1.640429499457e-02 
       2.631830744443e-05       1.766569640799e-02 
       2.841785469300e-05       1.902408813769e-02 
       3.068489366414e-05       2.048693132955e-02 
       3.313278603720e-05       2.206225603212e-02 
       3.577595942169e-05       2.375871009208e-02 
       3.862999239199e-05       2.558560670683e-02 
       4.171170630578e-05       2.755297875866e-02 
       4.503926444729e-05       2.967162046865e-02 
       4.863227907969e-05       3.195316582088e-02 
       5.251192703764e-05       3.441013659864e-02 
       5.670107454120e-05       3.705601895151e-02 
       6.122441196689e-05       3.990533647444e-02 
       6.610859936996e-05       4.297372343758e-02 
       7.138242361596e-05       4.627802310235e-02 
       7.707696804727e-05       4.983636397996e-02 
       8.322579568497e-05       5.366827066525e-02 
       8.986514704559e-05       5.779476629042e-02 
       9.703415373875e-05       6.223848650377e-02 
       1.047750691046e-04       6.702380140033e-02 
       1.131335172503e-04       7.217695440925e-02 
       1.221587619537e-04       7.772619430603e-02 
       1.319039970183e-04       8.370193873982e-02 
       1.424266597921e-04       9.013693023986e-02 
       1.537887696968e-04       9.706641612884e-02 
       1.660572937635e-04       1.045283396821e-01 
       1.793045413292e-04       1.125635394690e-01 
       1.936085902198e-04       1.212159664345e-01 
       2.090537469327e-04       1.305329185826e-01 
       2.257310435294e-04       1.405652902949e-01 
       2.437387741694e-04       1.513678363515e-01 
       2.631830744443e-04       1.629994570219e-01 
       2.841785469300e-04       1.755234991498e-01 
       3.068489366414e-04       1.890080745810e-01 
       3.313278603720e-04       2.035264080400e-01 
       3.577595942169e-04       2.191571890237e-01 
       3.862999239199e-04       2.359849530260e-01 
       4.171170630578e-04       2.541004840522e-01 
       4.503926444729e-04       2.736012192122e-01 
       4.863227907969e-04       2.945916903623e-01 
       5.251192703764e-04       3.171839640826e-01 
       5.670107454121e-04       3.414980891159e-01 
       6.122441196689e-04       3.676625547785e-01 
       6.610859936996e-04       3.958147394374e-01 
       7.138242361596e-04       4.261013435612e-01 
       7.707696804727e-04       4.586787948807e-01 
       8.322579568497e-04       4.937136163371e-01 
       8.986514704559e-04       5.313826969364e-01 
       9.703415373875e-04       5.718735142737e-01 
       1.047750691046e-03       6.153841801205e-01 
       1.131335172503e-03       6.621233409117e-01 
       1.221587619537e-03       7.123098383494e-01 
       1.319039970183e-03       7.661720735372e-01 
       1.424266597921e-03       8.239546441387e-01 
       1.537887696968e-03       8.859011286033e-01 
       1.660572937635e-03       9.522588049030e-01 
       1.793045413292e-03       1.023280092488e+00 
       1.936085902198e-03       1.099216276364e+00 
       2.090537469327e-03       1.180312920364e+00 
       2.257310435294e-03       1.266803999571e+00 
       2.437387741694e-03       1.358904653073e+00 
       2.631830744443e-03       1.456802354909e+00 
       2.841785469300e-03       1.560646369173e+00 
       3.068489366414e-03       1.670535245774e+00 
       3.313278603720e-03       1.786502613048e+00 
       3.577595942169e-03       1.908501060655e+00 
       3.862999239199e-03       2.036384937906e+00 
       4.171170630578e-03       2.169892011597e+00 
       4.503926444729e-03       2.308625830042e+00 
       4.863227907969e-03       2.452038514231e+00 
       5.251192703764e-03       2.599418019236e+00 
       5.670107454120e-03       2.749879177571e+00 
       6.122441196689e-03       2.902360895038e+00 
       6.610859936996e-03       3.055633021305e+00 
       7.138242361596e-03       3.208306467407e+00 
       7.707696804727e-03       3.358854767782e+00 
       8.322579568496e-03       3.505630127203e+00 
       8.986514704559e-03       3.646878915044e+00 
       9.703415373875e-03       3.780743323254e+00 
       1.047750691046e-02       3.905246428911e+00 
       1.131335172503e-02       4.018254536305e+00 
       1.221587619537e-02       4.117450293036e+00 
       1.319039970183e-02       4.200306382335e+00 
       1.424266597920e-02       4.264130585668e+00 
       1.537887696964e-02       4.306131773507e+00 
       1.660572937560e-02       4.323617358039e+00 
       1.793045412207e-02       4.314143418692e+00 
       1.936085889642e-02       4.275713325894e+00 
       2.090537351881e-02       4.206911739591e+00 
       2.257309534705e-02       4.107150375530e+00 
       2.437382002240e-02       3.976917288112e+00 
       2.631799943729e-02       3.818133923683e+00 
       2.841644544598e-02       3.634364927963e+00 
       3.067933354524e-02       3.431009599694e+00 
       3.311368469821e-02       3.215344607993e+00 
       3.571840442514e-02       2.996455844339e+00 
       3.847720347390e-02       2.784587825479e+00 
       4.135335537314e-02       2.589673115574e+00 
       4.429361666563e-02       2.418987939310e+00 
       4.724366437916e-02       2.275420815918e+00 
       5.016480834039e-02       2.157433814642e+00 
       5.303989618930e-02       2.060671368996e+00 
       5.586870668205e-02       1.979622797716e+00 
       5.866042679206e-02       1.909039002703e+00 
       6.142798931504e-02       1.844271056431e+00 
       6.418496438662e-02       1.781446779895e+00 
       6.694418832236e-02       1.717527638812e+00 
       6.971731104453e-02       1.650296716164e+00 
       7.251476154108e-02       1.578385951424e+00 
       7.534587669814e-02       1.501269122492e+00 
       7.821907664495e-02       1.419238679066e+00 
       8.114203771084e-02       1.333322397521e+00 
       8.412184533139e-02       1.245165317765e+00 
       8.716512277352e-02       1.156831361576e+00 
       9.027813693913e-02       1.070583820658e+00 
       9.346688429613e-02       9.886454143421e-01 
       9.673716026122e-02       9.129325050868e-01 
       1.000946150608e-01       8.448718419222e-01 
       1.035447986307e-01       7.852160971777e-01 
       1.070931966524e-01       7.340026105341e-01 
       1.107452594180e-01       6.905055377642e-01 
       1.145064248899e-01       6.533009119718e-01 
       1.183821370656e-01       6.203885288138e-01 
       1.223778605591e-01       5.894007448634e-01 
       1.264990921707e-01       5.579000045723e-01 
       1.307513701078e-01       5.238108666293e-01 
       1.351402814485e-01       4.858468868810e-01 
       1.396714683894e-01       4.438564090047e-01 
       1.443506337875e-01       3.989161870330e-01 
       1.491835464900e-01       3.530918276774e-01 
       1.541760469368e-01       3.089031642929e-01 
       1.593340535209e-01       2.686778275678e-01 
       1.646635701934e-01       2.339554676030e-01 
       1.701706958081e-01       2.051631483785e-01 
       1.758616357070e-01       1.816024571773e-01 
       1.817427160581e-01       1.617224415118e-01 
       1.878204014651e-01       1.437151924780e-01 
       1.941013163855e-01       1.257734783167e-01 
       2.005922709060e-01       1.069352074719e-01 
       2.073002914514e-01       8.751440209188e-02 
       2.142326570343e-01       6.881034411280e-02 
       2.213969417044e-01       5.228424241385e-02 
       2.288010639201e-01       3.883124608953e-02 
       2.364533436625e-01       2.854585740598e-02 
       2.443625682390e-01       2.083602231253e-02 
       2.525380678946e-01       1.480476086546e-02 
       2.609898025770e-01       9.769351389171e-03 
       2.697284614969e-01       5.555657445076e-03 
       2.787655775073e-01       2.397355654938e-03 
       2.881136588192e-01       5.680813380597e-04 
       2.977863412019e-01       1.453510265200e-06 
       3.077985646248e-01       3.291395967626e-04 
       3.181667793367e-01       1.221266447367e-03 
       3.289091877084e-01       2.568705521613e-03 
       3.400460298905e-01       4.379591574829e-03 
       3.515999235695e-01       6.518707461441e-03 
       3.635962710278e-01       8.652477003609e-03 
       3.760637505499e-01       1.045408817444e-02 
       3.890349143014e-01       1.188354020122e-02 
       4.025469215929e-01       1.302807833501e-02 
       4.166424455447e-01       1.384422447922e-02 
       4.313708034899e-01       1.411891882990e-02 
       4.467893781976e-01       1.375339670371e-02 
       4.629654198623e-01       1.285442123161e-02 
       4.799783500912e-01       1.157687740917e-02 
       4.979227318246e-01       9.956308064815e-03 
       5.169121269689e-01       8.049366465986e-03 
       5.370841403262e-01       6.061363077648e-03 
       5.586070463286e-01       4.167763912094e-03 
       5.816885093582e-01       2.494700592862e-03 
       6.065870143577e-01       1.190902371220e-03 
       6.336266466978e-01       3.558175945043e-04 
       6.632156057925e-01       1.305849706296e-05 
       6.958678637575e-01       1.063866940674e-04 
       7.322247983784e-01       4.803401189781e-04 
       7.730680193171e-01       8.998029232012e-04 
       8.193049551574e-01       1.116324924233e-03 
       8.718988013754e-01       9.835717123011e-04 
       9.317218028590e-01       5.753545700906e-04 
       9.993660906273e-01       1.668499259140e-04 
       1.075037109879e+00       1.642724273119e-06 
       1.158653485387e+00       5.354886055331e-05 
       1.250099156961e+00       1.100563593303e-04 
       1.349432400897e+00       6.887025367805e-05 
       1.456947456991e+00       9.970463753338e-06 
       1.573135110893e+00       2.438561471593e-06 
       1.698621895119e+00       1.200108649320e-05 
       1.834127512423e+00       5.780059822188e-06 
       1.980444933977e+00       3.410697692968e-08 
       2.138435191130e+00       1.262117174223e-06 
       2.309029198543e+00       7.463383837237e-07 
       2.493232376993e+00       1.009756651148e-09 
       2.692130394536e+00       1.646680194809e-07 
       2.906895533764e+00       1.763154915037e-08 
       3.138793596840e+00       1.820606744342e-08 
       3.389191365541e+00       5.477904200485e-09 
       3.659564656886e+00       1.829749192677e-09 
       3.951507021438e+00       3.202551732312e-10 
       4.266739135513e+00       3.832357884872e-10 
       4.607118942658e+00       3.541942242237e-12 
       4.974652604172e+00       1.084938193455e-11 
       5.371506323193e+00       1.116635057744e-11 
       5.800019112071e+00       5.498116132279e-13 
       6.262716578240e+00       3.643801710894e-13 
       6.762325809881e+00       8.088302744470e-13 
       7.301791449077e+00       2.648404363399e-13 
       7.884293047211e+00       2.831567866003e-13 
       8.513263804891e+00       1.595353996545e-13 
       9.192410806865e+00       1.194293271815e-13 
       9.925736871166e+00       7.605391009337e-14 
       1.071756414128e+01       5.037395479733e-14 
       1.157255956041e+01       3.390400222949e-14 
       1.249576237789e+01       2.172531220252e-14 
       1.349261385000e+01       1.371639665420e-14 
       1.456898931011e+01       8.394875975043e-15 
       1.573123279727e+01       4.885282970628e-15 
       1.698619444729e+01       2.847617494545e-15 
       1.834127086665e+01       1.603693081296e-15 
       1.980444872733e+01       8.662652465149e-16 
       2.138435183937e+01       4.449360499985e-16 
       2.309029197863e+01       2.224659160081e-16 
       2.493232376942e+01       9.909028337617e-17 
       2.692130394533e+01       3.877837298816e-17 
       2.906895533764e+01       1.306991608659e-17 
       3.138793596840e+01       3.783308346479e-18 
       3.389191365541e+01       8.696733129543e-19 
       3.659564656886e+01       7.114823478570e-20 
       3.951507021438e+01       1.193705629680e-21 
       4.266739135513e+01       1.158207186640e-20 
       4.607118942658e+01       1.445809667028e-20 
       4.974652604172e+01       8.423300934803e-21 
       5.371506323193e+01       6.399821022228e-22 
       5.800019112071e+01       4.327583748393e-22 
       6.262716578240e+01       1.296411440183e-21 
       6.762325809881e+01       2.875609491815e-24 
