# Matter power spectrum P(k) at redshift z=0
# for k=1.04775e-05 to 66.1767 h/Mpc,
# number of wavenumbers equal to 130
#    1:k (h/Mpc)              2:P (Mpc/h)^3        
       1.047750691046e-05       5.020964811306e+01 
       1.319039970183e-05       6.270562594779e+01 
       1.660572937635e-05       7.831147247912e+01 
       2.090537469327e-05       9.780108069296e+01 
       2.631830744443e-05       1.221408203810e+02 
       3.313278603720e-05       1.525374501932e+02 
       4.171170630578e-05       1.904975994010e+02 
       5.251192703764e-05       2.379022224249e+02 
       6.610859936996e-05       2.970989227880e+02 
       8.322579568497e-05       3.710167318946e+02 
       1.047750691046e-04       4.633080766742e+02 
       1.319039970183e-04       5.785234129344e+02 
       1.660572937635e-04       7.223242666092e+02 
       2.090537469327e-04       9.017396271824e+02 
       2.631830744443e-04       1.125468123750e+03 
       3.313278603720e-04       1.404223053681e+03 
       4.171170630578e-04       1.751108028790e+03 
       5.251192703764e-04       2.181998448133e+03 
       6.610859936996e-04       2.715889983591e+03 
       8.322579568497e-04       3.375152337134e+03 
       1.047750691046e-03       4.185552174307e+03 
       1.319039970183e-03       5.175742741829e+03 
       1.660572937635e-03       6.376123051778e+03 
       2.090537469327e-03       7.815671851808e+03 
       2.631830744443e-03       9.517783069112e+03 
       3.313278603720e-03       1.149357460340e+04 
       4.171170630578e-03       1.373266008915e+04 
       5.251192703764e-03       1.619063614553e+04 
       6.610859936996e-03       1.877460421728e+04 
       8.322579568497e-03       2.132606930529e+04 
       1.047750691046e-02       2.360548918339e+04 
       1.319039970183e-02       2.528218622344e+04 
       1.660572937633e-02       2.595026974056e+04 
       2.090537453514e-02       2.520933995370e+04 
       2.631818545635e-02       2.287040452064e+04 
       3.311571692125e-02       1.928624586081e+04 
       4.113809243311e-02       1.568424425793e+04 
       4.792590854610e-02       1.361062602126e+04 
       5.284436902701e-02       1.259130417165e+04 
       5.689644391095e-02       1.195552973418e+04 
       6.051252627066e-02       1.147545620969e+04 
       6.388413457411e-02       1.105591414178e+04 
       6.711249296401e-02       1.064900844638e+04 
       7.025823437965e-02       1.022930454274e+04 
       7.336115587705e-02       9.784511827608e+03 
       7.644928796912e-02       9.311650057315e+03 
       7.954353299775e-02       8.814527291840e+03 
       8.266024078725e-02       8.302115539519e+03 
       8.581273398637e-02       7.786951361904e+03 
       8.901225918437e-02       7.283181543879e+03 
       9.226860540985e-02       6.805165156908e+03 
       9.559052048996e-02       6.365639669824e+03 
       9.898599946599e-02       5.974403687978e+03 
       1.024624891378e-01       5.637339610853e+03 
       1.060270359164e-01       5.355758991201e+03 
       1.096863943056e-01       5.126231115840e+03 
       1.134471073830e-01       4.940481827958e+03 
       1.173155669539e-01       4.786155801557e+03 
       1.212980586983e-01       4.647939046392e+03 
       1.254007961065e-01       4.509118446091e+03 
       1.296299459934e-01       4.354554011707e+03 
       1.339916477160e-01       4.173216101005e+03 
       1.384920277736e-01       3.961165465686e+03 
       1.431372111762e-01       3.722695834334e+03 
       1.479333307714e-01       3.469547337428e+03 
       1.528865355934e-01       3.218339474412e+03 
       1.580029992204e-01       2.986295405056e+03 
       1.632889290723e-01       2.786965723056e+03 
       1.687505775527e-01       2.626824335554e+03 
       1.743942559171e-01       2.503757161674e+03 
       1.802263517371e-01       2.407348796986e+03 
       1.862533508214e-01       2.322249348856e+03 
       1.924818644494e-01       2.231553078301e+03 
       1.989186627765e-01       2.122187296850e+03 
       2.055707152847e-01       1.992021391432e+03 
       2.124452391818e-01       1.850328884786e+03 
       2.195497567139e-01       1.712177488671e+03 
       2.268921624510e-01       1.590989935452e+03 
       2.344808017550e-01       1.493668068700e+03 
       2.423245618548e-01       1.418311825417e+03 
       2.504329772620e-01       1.354465070081e+03 
       2.588163516754e-01       1.288932040376e+03 
       2.674858990930e-01       1.213935589228e+03 
       2.764539076010e-01       1.130691320791e+03 
       2.857339303080e-01       1.048099068332e+03 
       2.953410092148e-01       9.761820313639e+02 
       3.052919395542e-01       9.178099851495e+02 
       3.156055844677e-01       8.678992660593e+02 
       3.263032530092e-01       8.185247422826e+02 
       3.374091587054e-01       7.651453690824e+02 
       3.489509817175e-01       7.106742722617e+02 
       3.609605657343e-01       6.607846846448e+02 
       3.734747921333e-01       6.180856039318e+02 
       3.865366902904e-01       5.793097864947e+02 
       4.001968667448e-01       5.403895731001e+02 
       4.145153713076e-01       5.011512603201e+02 
       4.295641718077e-01       4.644991240057e+02 
       4.454304922144e-01       4.314082131445e+02 
       4.622214006969e-01       4.001127817860e+02 
       4.800702491654e-01       3.690900051358e+02 
       4.991459272112e-01       3.394753137047e+02 
       5.196665217302e-01       3.119850938709e+02 
       5.419201087032e-01       2.852474014754e+02 
       5.662975451962e-01       2.593313496654e+02 
       5.933463737275e-01       2.345478956595e+02 
       6.238638458458e-01       2.102301230416e+02 
       6.590669257916e-01       1.864328421052e+02 
       7.009246080454e-01       1.627254070756e+02 
       7.528593308799e-01       1.388184578740e+02 
       8.213469537518e-01       1.141879696717e+02 
       9.196980813302e-01       8.835921649581e+01 
       1.075112183810e+00       6.172610610438e+01 
       1.322697471132e+00       3.804272115613e+01 
       1.662328205042e+00       2.209787081293e+01 
       2.092692408506e+00       1.266914661665e+01 
       2.634543445090e+00       7.203251968727e+00 
       3.316693691389e+00       4.065021858005e+00 
       4.175469971226e+00       2.278489712440e+00 
       5.256605252960e+00       1.269212740384e+00 
       6.617673932723e+00       7.029903572419e-01 
       8.331157880872e+00       3.873282926614e-01 
       1.048830636590e+01       2.123631320847e-01 
       1.320399541071e+01       1.158912556375e-01 
       1.662284535976e+01       6.295380463979e-02 
       2.092692243973e+01       3.403583071848e-02 
       2.634543445002e+01       1.830421259568e-02 
       3.316693691389e+01       9.779931681584e-03 
       4.175469971226e+01       5.178728114055e-03 
       5.256605252960e+01       2.705497835478e-03 
       6.617673932723e+01       1.382994916872e-03 
