# Matter power spectrum P(k) at redshift z=0
# for k=1.04775e-05 to 66.1767 h/Mpc,
# number of wavenumbers equal to 130
#    1:k (h/Mpc)              2:P (Mpc/h)^3        
       1.047750691046e-05       5.020964811308e+01 
       1.319039970183e-05       6.270562594771e+01 
       1.660572937635e-05       7.831147247912e+01 
       2.090537469327e-05       9.780108069295e+01 
       2.631830744443e-05       1.221408203809e+02 
       3.313278603720e-05       1.525374501932e+02 
       4.171170630578e-05       1.904975994010e+02 
       5.251192703764e-05       2.379022224248e+02 
       6.610859936996e-05       2.970989227881e+02 
       8.322579568497e-05       3.710167318945e+02 
       1.047750691046e-04       4.633080766742e+02 
       1.319039970183e-04       5.785234129337e+02 
       1.660572937635e-04       7.223242666090e+02 
       2.090537469327e-04       9.017396271819e+02 
       2.631830744443e-04       1.125468123749e+03 
       3.313278603720e-04       1.404223053679e+03 
       4.171170630578e-04       1.751108028786e+03 
       5.251192703764e-04       2.181998448125e+03 
       6.610859936996e-04       2.715889983577e+03 
       8.322579568497e-04       3.375152337103e+03 
       1.047750691046e-03       4.185552174260e+03 
       1.319039970183e-03       5.175742738389e+03 
       1.660572937635e-03       6.376123051534e+03 
       2.090537469327e-03       7.815671862648e+03 
       2.631830744443e-03       9.517783068009e+03 
       3.313278603720e-03       1.149357460121e+04 
       4.171170630578e-03       1.373266011501e+04 
       5.251192703764e-03       1.619063493636e+04 
       6.610859936996e-03       1.877460450167e+04 
       8.322579568497e-03       2.132611293502e+04 
       1.047750691046e-02       2.360547986511e+04 
       1.319039970183e-02       2.528218943751e+04 
       1.660572937633e-02       2.595036131193e+04 
       2.090537453514e-02       2.520924685618e+04 
       2.631818545635e-02       2.287019154910e+04 
       3.311571692125e-02       1.928618197320e+04 
       4.113809243311e-02       1.568415561137e+04 
       4.792590854610e-02       1.361050023972e+04 
       5.284436902701e-02       1.259122344048e+04 
       5.689644391095e-02       1.195550272409e+04 
       6.051252627066e-02       1.147547867747e+04 
       6.388413457411e-02       1.105561699432e+04 
       6.711249296401e-02       1.064886552242e+04 
       7.025823437965e-02       1.022928042639e+04 
       7.336115587705e-02       9.784554553389e+03 
       7.644928796912e-02       9.311709910215e+03 
       7.954353299775e-02       8.814479940624e+03 
       8.266024078725e-02       8.301915252574e+03 
       8.581273398637e-02       7.786946591989e+03 
       8.901225918437e-02       7.283206208416e+03 
       9.226860540985e-02       6.805180831307e+03 
       9.559052048996e-02       6.365626809991e+03 
       9.898599946599e-02       5.974368698366e+03 
       1.024624891378e-01       5.637312627956e+03 
       1.060270359164e-01       5.355793334439e+03 
       1.096863943056e-01       5.126239160375e+03 
       1.134471073830e-01       4.940466762770e+03 
       1.173155669539e-01       4.786144723344e+03 
       1.212980586983e-01       4.647920054314e+03 
       1.254007961065e-01       4.509029690741e+03 
       1.296299459934e-01       4.354538587384e+03 
       1.339916477160e-01       4.173136053017e+03 
       1.384920277736e-01       3.961169630128e+03 
       1.431372111762e-01       3.722584060039e+03 
       1.479333307714e-01       3.469538233036e+03 
       1.528865355934e-01       3.218313264822e+03 
       1.580029992204e-01       2.986236838691e+03 
       1.632889290723e-01       2.786936009676e+03 
       1.687505775527e-01       2.626802698095e+03 
       1.743942559171e-01       2.503750177917e+03 
       1.802263517371e-01       2.407299037623e+03 
       1.862533508214e-01       2.322246131583e+03 
       1.924818644494e-01       2.231558970869e+03 
       1.989186627765e-01       2.122197054620e+03 
       2.055707152847e-01       1.992036652245e+03 
       2.124452391818e-01       1.850295060474e+03 
       2.195497567139e-01       1.712150689789e+03 
       2.268921624510e-01       1.590960414604e+03 
       2.344808017550e-01       1.493649834875e+03 
       2.423245618548e-01       1.418293713336e+03 
       2.504329772620e-01       1.354437142945e+03 
       2.588163516754e-01       1.288924080065e+03 
       2.674858990930e-01       1.213895332827e+03 
       2.764539076010e-01       1.130669582602e+03 
       2.857339303080e-01       1.048075225613e+03 
       2.953410092148e-01       9.761607503452e+02 
       3.052919395542e-01       9.177897982851e+02 
       3.156055844677e-01       8.678759120863e+02 
       3.263032530092e-01       8.185106446030e+02 
       3.374091587054e-01       7.651361846479e+02 
       3.489509817175e-01       7.106459233176e+02 
       3.609605657343e-01       6.607649788930e+02 
       3.734747921333e-01       6.180688884062e+02 
       3.865366902904e-01       5.792881514431e+02 
       4.001968667448e-01       5.403680960599e+02 
       4.145153713076e-01       5.011307406775e+02 
       4.295641718077e-01       4.644815147311e+02 
       4.454304922144e-01       4.313878555572e+02 
       4.622214006969e-01       4.000950702362e+02 
       4.800702491654e-01       3.690691854516e+02 
       4.991459272112e-01       3.394568455823e+02 
       5.196665217302e-01       3.119654423274e+02 
       5.419201087032e-01       2.852264506306e+02 
       5.662975451962e-01       2.593113622300e+02 
       5.933463737275e-01       2.345288223044e+02 
       6.238638458458e-01       2.102128550188e+02 
       6.590669257916e-01       1.864151327565e+02 
       7.009246080454e-01       1.627073271376e+02 
       7.528593308799e-01       1.387997609158e+02 
       8.213469537518e-01       1.141694884860e+02 
       9.196980813302e-01       8.833932214582e+01 
       1.075112183810e+00       6.170491930161e+01 
       1.322697471132e+00       3.801997521175e+01 
       1.662328205042e+00       2.207333294731e+01 
       2.092692408506e+00       1.264193093482e+01 
       2.634543445090e+00       7.173323059362e+00 
       3.316693691389e+00       4.031976893199e+00 
       4.175469971226e+00       2.242005635358e+00 
       5.256605252960e+00       1.229106476444e+00 
       6.617673932723e+00       6.594173677538e-01 
       8.331157880872e+00       3.409761600503e-01 
       1.048830636590e+01       1.648426399272e-01 
       1.320399541071e+01       7.002683005404e-02 
       1.662284535976e+01       2.276776783248e-02 
       2.092692243973e+01       3.752512142890e-03 
       2.634543445002e+01       4.598824954208e-06 
       3.316693691389e+01       1.140159965406e-03 
       4.175469971226e+01       1.042065855187e-03 
       5.256605252960e+01       1.286221477598e-04 
       6.617673932723e+01       8.312408512923e-06 
