# Matter power spectrum P(k) at redshift z=0
# for k=1.04775e-05 to 66.1767 h/Mpc,
# number of wavenumbers equal to 130
#    1:k (h/Mpc)              2:P (Mpc/h)^3        
       1.047750691046e-05       5.020964811307e+01 
       1.319039970183e-05       6.270562594784e+01 
       1.660572937635e-05       7.831147247911e+01 
       2.090537469327e-05       9.780108069296e+01 
       2.631830744443e-05       1.221408203809e+02 
       3.313278603720e-05       1.525374501932e+02 
       4.171170630578e-05       1.904975994009e+02 
       5.251192703764e-05       2.379022224249e+02 
       6.610859936996e-05       2.970989227881e+02 
       8.322579568497e-05       3.710167318946e+02 
       1.047750691046e-04       4.633080766742e+02 
       1.319039970183e-04       5.785234129334e+02 
       1.660572937635e-04       7.223242666092e+02 
       2.090537469327e-04       9.017396271824e+02 
       2.631830744443e-04       1.125468123750e+03 
       3.313278603720e-04       1.404223053681e+03 
       4.171170630578e-04       1.751108028789e+03 
       5.251192703764e-04       2.181998448133e+03 
       6.610859936996e-04       2.715889983592e+03 
       8.322579568497e-04       3.375152337134e+03 
       1.047750691046e-03       4.185552174301e+03 
       1.319039970183e-03       5.175742738752e+03 
       1.660572937635e-03       6.376123051776e+03 
       2.090537469327e-03       7.815671865074e+03 
       2.631830744443e-03       9.517783069109e+03 
       3.313278603720e-03       1.149357460344e+04 
       4.171170630578e-03       1.373266012878e+04 
       5.251192703764e-03       1.619063614134e+04 
       6.610859936996e-03       1.877460414357e+04 
       8.322579568497e-03       2.132607235306e+04 
       1.047750691046e-02       2.360548422828e+04 
       1.319039970183e-02       2.528218658511e+04 
       1.660572937633e-02       2.595026920389e+04 
       2.090537453514e-02       2.520937864951e+04 
       2.631818545635e-02       2.287033852857e+04 
       3.311571692125e-02       1.928623424225e+04 
       4.113809243311e-02       1.568427819679e+04 
       4.792590854610e-02       1.361061942903e+04 
       5.284436902701e-02       1.259128192433e+04 
       5.689644391095e-02       1.195552039587e+04 
       6.051252627066e-02       1.147550382573e+04 
       6.388413457411e-02       1.105593472399e+04 
       6.711249296401e-02       1.064908159883e+04 
       7.025823437965e-02       1.022934729452e+04 
       7.336115587705e-02       9.784554766509e+03 
       7.644928796912e-02       9.311713275846e+03 
       7.954353299775e-02       8.814602002639e+03 
       8.266024078725e-02       8.302200116549e+03 
       8.581273398637e-02       7.786973262365e+03 
       8.901225918437e-02       7.283240908055e+03 
       9.226860540985e-02       6.805207852032e+03 
       9.559052048996e-02       6.365660240299e+03 
       9.898599946599e-02       5.974432085614e+03 
       1.024624891378e-01       5.637355325321e+03 
       1.060270359164e-01       5.355809206437e+03 
       1.096863943056e-01       5.126271049476e+03 
       1.134471073830e-01       4.940497274749e+03 
       1.173155669539e-01       4.786183920043e+03 
       1.212980586983e-01       4.647961741275e+03 
       1.254007961065e-01       4.509165593419e+03 
       1.296299459934e-01       4.354558274613e+03 
       1.339916477160e-01       4.173223743166e+03 
       1.384920277736e-01       3.961180062300e+03 
       1.431372111762e-01       3.722700138335e+03 
       1.479333307714e-01       3.469544171496e+03 
       1.528865355934e-01       3.218337082848e+03 
       1.580029992204e-01       2.986266829689e+03 
       1.632889290723e-01       2.786965680437e+03 
       1.687505775527e-01       2.626816603131e+03 
       1.743942559171e-01       2.503767329821e+03 
       1.802263517371e-01       2.407323747657e+03 
       1.862533508214e-01       2.322229625873e+03 
       1.924818644494e-01       2.231518565184e+03 
       1.989186627765e-01       2.122166805662e+03 
       2.055707152847e-01       1.992013796099e+03 
       2.124452391818e-01       1.850317719251e+03 
       2.195497567139e-01       1.712160057593e+03 
       2.268921624510e-01       1.590977570788e+03 
       2.344808017550e-01       1.493662968058e+03 
       2.423245618548e-01       1.418309613793e+03 
       2.504329772620e-01       1.354454952277e+03 
       2.588163516754e-01       1.288933833468e+03 
       2.674858990930e-01       1.213935105012e+03 
       2.764539076010e-01       1.130692476375e+03 
       2.857339303080e-01       1.048089962585e+03 
       2.953410092148e-01       9.761693339141e+02 
       3.052919395542e-01       9.177985677417e+02 
       3.156055844677e-01       8.678878418046e+02 
       3.263032530092e-01       8.185094198316e+02 
       3.374091587054e-01       7.651369836431e+02 
       3.489509817175e-01       7.106667313968e+02 
       3.609605657343e-01       6.607799098188e+02 
       3.734747921333e-01       6.180777507579e+02 
       3.865366902904e-01       5.793028029682e+02 
       4.001968667448e-01       5.403820916813e+02 
       4.145153713076e-01       5.011475914951e+02 
       4.295641718077e-01       4.644948217556e+02 
       4.454304922144e-01       4.314024551799e+02 
       4.622214006969e-01       4.001096336089e+02 
       4.800702491654e-01       3.690845275269e+02 
       4.991459272112e-01       3.394701446163e+02 
       5.196665217302e-01       3.119794726915e+02 
       5.419201087032e-01       2.852422194757e+02 
       5.662975451962e-01       2.593265349066e+02 
       5.933463737275e-01       2.345444412535e+02 
       6.238638458458e-01       2.102289835271e+02 
       6.590669257916e-01       1.864322451436e+02 
       7.009246080454e-01       1.627241816944e+02 
       7.528593308799e-01       1.388172700203e+02 
       8.213469537518e-01       1.141879741549e+02 
       9.196980813302e-01       8.835865499172e+01 
       1.075112183810e+00       6.172562876581e+01 
       1.322697471132e+00       3.804292594712e+01 
       1.662328205042e+00       2.209786057606e+01 
       2.092692408506e+00       1.266903212364e+01 
       2.634543445090e+00       7.203201863058e+00 
       3.316693691389e+00       4.065069597359e+00 
       4.175469971226e+00       2.278556813817e+00 
       5.256605252960e+00       1.269295065047e+00 
       6.617673932723e+00       7.030812789898e-01 
       8.331157880872e+00       3.874320677435e-01 
       1.048830636590e+01       2.124691844510e-01 
       1.320399541071e+01       1.159995911724e-01 
       1.662284535976e+01       6.306466803924e-02 
       2.092692243973e+01       3.414819479454e-02 
       2.634543445002e+01       1.841706114989e-02 
       3.316693691389e+01       9.892830676522e-03 
       4.175469971226e+01       5.290515934545e-03 
       5.256605252960e+01       2.814667544475e-03 
       6.617673932723e+01       1.487655727244e-03 
