# Matter power spectrum P(k) at redshift z=0
# for k=1.04775e-05 to 66.1767 h/Mpc,
# number of wavenumbers equal to 130
#    1:k (h/Mpc)              2:P (Mpc/h)^3        
       1.047750691046e-05       5.020964811312e+01 
       1.319039970183e-05       6.270562594778e+01 
       1.660572937635e-05       7.831147247912e+01 
       2.090537469327e-05       9.780108069295e+01 
       2.631830744443e-05       1.221408203809e+02 
       3.313278603720e-05       1.525374501932e+02 
       4.171170630578e-05       1.904975994010e+02 
       5.251192703764e-05       2.379022224249e+02 
       6.610859936996e-05       2.970989227882e+02 
       8.322579568497e-05       3.710167318946e+02 
       1.047750691046e-04       4.633080766742e+02 
       1.319039970183e-04       5.785234129333e+02 
       1.660572937635e-04       7.223242666092e+02 
       2.090537469327e-04       9.017396271824e+02 
       2.631830744443e-04       1.125468123750e+03 
       3.313278603720e-04       1.404223053681e+03 
       4.171170630578e-04       1.751108028790e+03 
       5.251192703764e-04       2.181998448133e+03 
       6.610859936996e-04       2.715889983593e+03 
       8.322579568497e-04       3.375152337134e+03 
       1.047750691046e-03       4.185552174306e+03 
       1.319039970183e-03       5.175742742837e+03 
       1.660572937635e-03       6.376123051778e+03 
       2.090537469327e-03       7.815671904079e+03 
       2.631830744443e-03       9.517783069112e+03 
       3.313278603720e-03       1.149357460342e+04 
       4.171170630578e-03       1.373266011971e+04 
       5.251192703764e-03       1.619063614559e+04 
       6.610859936996e-03       1.877460424480e+04 
       8.322579568497e-03       2.132607231912e+04 
       1.047750691046e-02       2.360548026533e+04 
       1.319039970183e-02       2.528218431853e+04 
       1.660572937633e-02       2.595026914254e+04 
       2.090537453514e-02       2.520934543031e+04 
       2.631818545635e-02       2.287034863072e+04 
       3.311571692125e-02       1.928626621374e+04 
       4.113809243311e-02       1.568429435804e+04 
       4.792590854610e-02       1.361067559123e+04 
       5.284436902701e-02       1.259131576587e+04 
       5.689644391095e-02       1.195554221149e+04 
       6.051252627066e-02       1.147546474471e+04 
       6.388413457411e-02       1.105587902385e+04 
       6.711249296401e-02       1.064899808764e+04 
       7.025823437965e-02       1.022930426940e+04 
       7.336115587705e-02       9.784516862528e+03 
       7.644928796912e-02       9.311661510014e+03 
       7.954353299775e-02       8.814532906041e+03 
       8.266024078725e-02       8.302119138220e+03 
       8.581273398637e-02       7.786943985527e+03 
       8.901225918437e-02       7.283181706386e+03 
       9.226860540985e-02       6.805166453375e+03 
       9.559052048996e-02       6.365638234698e+03 
       9.898599946599e-02       5.974396441406e+03 
       1.024624891378e-01       5.637328454370e+03 
       1.060270359164e-01       5.355768001945e+03 
       1.096863943056e-01       5.126250372930e+03 
       1.134471073830e-01       4.940484147472e+03 
       1.173155669539e-01       4.786172828313e+03 
       1.212980586983e-01       4.647922288999e+03 
       1.254007961065e-01       4.509151982552e+03 
       1.296299459934e-01       4.354547742228e+03 
       1.339916477160e-01       4.173217414707e+03 
       1.384920277736e-01       3.961169292885e+03 
       1.431372111762e-01       3.722691266793e+03 
       1.479333307714e-01       3.469552035571e+03 
       1.528865355934e-01       3.218335698746e+03 
       1.580029992204e-01       2.986295915673e+03 
       1.632889290723e-01       2.786967043447e+03 
       1.687505775527e-01       2.626831605750e+03 
       1.743942559171e-01       2.503756055188e+03 
       1.802263517371e-01       2.407342435952e+03 
       1.862533508214e-01       2.322254997167e+03 
       1.924818644494e-01       2.231553755527e+03 
       1.989186627765e-01       2.122190083569e+03 
       2.055707152847e-01       1.992021584730e+03 
       2.124452391818e-01       1.850323900562e+03 
       2.195497567139e-01       1.712185592927e+03 
       2.268921624510e-01       1.590988999200e+03 
       2.344808017550e-01       1.493664430884e+03 
       2.423245618548e-01       1.418310046611e+03 
       2.504329772620e-01       1.354464149667e+03 
       2.588163516754e-01       1.288938553569e+03 
       2.674858990930e-01       1.213937741410e+03 
       2.764539076010e-01       1.130696596530e+03 
       2.857339303080e-01       1.048101244767e+03 
       2.953410092148e-01       9.761852308966e+02 
       3.052919395542e-01       9.178095396582e+02 
       3.156055844677e-01       8.678990604361e+02 
       3.263032530092e-01       8.185261324826e+02 
       3.374091587054e-01       7.651443558255e+02 
       3.489509817175e-01       7.106699567855e+02 
       3.609605657343e-01       6.607862863570e+02 
       3.734747921333e-01       6.180841445569e+02 
       3.865366902904e-01       5.793112147012e+02 
       4.001968667448e-01       5.403905800384e+02 
       4.145153713076e-01       5.011511312643e+02 
       4.295641718077e-01       4.644992397398e+02 
       4.454304922144e-01       4.314076698579e+02 
       4.622214006969e-01       4.001134040542e+02 
       4.800702491654e-01       3.690896216177e+02 
       4.991459272112e-01       3.394770564338e+02 
       5.196665217302e-01       3.119852327684e+02 
       5.419201087032e-01       2.852464868778e+02 
       5.662975451962e-01       2.593311768730e+02 
       5.933463737275e-01       2.345481086820e+02 
       6.238638458458e-01       2.102307890226e+02 
       6.590669257916e-01       1.864333609257e+02 
       7.009246080454e-01       1.627253594972e+02 
       7.528593308799e-01       1.388184102448e+02 
       8.213469537518e-01       1.141879583159e+02 
       9.196980813302e-01       8.835934135884e+01 
       1.075112183810e+00       6.172628169975e+01 
       1.322697471132e+00       3.804294003216e+01 
       1.662328205042e+00       2.209791550644e+01 
       2.092692408506e+00       1.266921142510e+01 
       2.634543445090e+00       7.203317736205e+00 
       3.316693691389e+00       4.065125511277e+00 
       4.175469971226e+00       2.278605625890e+00 
       5.256605252960e+00       1.269350649044e+00 
       6.617673932723e+00       7.031355043515e-01 
       8.331157880872e+00       3.874763213659e-01 
       1.048830636590e+01       2.125098263248e-01 
       1.320399541071e+01       1.160355811352e-01 
       1.662284535976e+01       6.309847011562e-02 
       2.092692243973e+01       3.417915626330e-02 
       2.634543445002e+01       1.844587590779e-02 
       3.316693691389e+01       9.918892455752e-03 
       4.175469971226e+01       5.314351569880e-03 
       5.256605252960e+01       2.836459989653e-03 
       6.617673932723e+01       1.507480301298e-03 
