# Matter power spectrum P(k) at redshift z=99
# for k=1.04775e-05 to 66.1767 h/Mpc,
# number of wavenumbers equal to 130
#    1:k (h/Mpc)              2:P (Mpc/h)^3        
       1.047750691046e-05       7.261927680869e-03 
       1.319039970183e-05       9.069258201857e-03 
       1.660572937635e-05       1.132639106726e-02 
       2.090537469327e-05       1.414527123400e-02 
       2.631830744443e-05       1.766569584060e-02 
       3.313278603720e-05       2.206225515944e-02 
       4.171170630578e-05       2.755297766279e-02 
       5.251192703764e-05       3.441013522950e-02 
       6.610859936996e-05       4.297372172782e-02 
       8.322579568497e-05       5.366826852949e-02 
       1.047750691046e-04       6.702379872781e-02 
       1.319039970183e-04       8.370193441294e-02 
       1.660572937635e-04       1.045283355385e-01 
       2.090537469327e-04       1.305329134105e-01 
       2.631830744443e-04       1.629994506607e-01 
       3.313278603720e-04       2.035264004603e-01 
       4.171170630578e-04       2.541004744245e-01 
       5.251192703764e-04       3.171839528559e-01 
       6.610859936996e-04       3.958147256517e-01 
       8.322579568497e-04       4.937136006289e-01 
       1.047750691046e-03       6.153841636046e-01 
       1.319039970183e-03       7.661720592354e-01 
       1.660572937635e-03       9.522588016472e-01 
       2.090537469327e-03       1.180312991698e+00 
       2.631830744443e-03       1.456802684683e+00 
       3.313278603720e-03       1.786503854027e+00 
       4.171170630578e-03       2.169896192193e+00 
       5.251192703764e-03       2.599430630643e+00 
       6.610859936996e-03       3.055668701691e+00 
       8.322579568497e-03       3.505725598168e+00 
       1.047750691046e-02       3.905491111649e+00 
       1.319039970183e-02       4.200915362332e+00 
       1.660572937633e-02       4.325064521081e+00 
       2.090537453514e-02       4.210203859169e+00 
       2.631818545635e-02       3.825151850799e+00 
       3.311571692125e-02       3.229065584503e+00 
       4.113809243311e-02       2.627732483541e+00 
       4.792590854610e-02       2.280795836568e+00 
       5.284436902701e-02       2.110080757621e+00 
       5.689644391095e-02       2.003537006786e+00 
       6.051252627066e-02       1.923055929595e+00 
       6.388413457411e-02       1.852738408165e+00 
       6.711249296401e-02       1.784564971211e+00 
       7.025823437965e-02       1.714274370159e+00 
       7.336115587705e-02       1.639815845804e+00 
       7.644928796912e-02       1.560662438182e+00 
       7.954353299775e-02       1.477457485746e+00 
       8.266024078725e-02       1.391697116063e+00 
       8.581273398637e-02       1.305464886226e+00 
       8.901225918437e-02       1.221127774627e+00 
       9.226860540985e-02       1.141078225311e+00 
       9.559052048996e-02       1.067450363085e+00 
       9.898599946599e-02       1.001890624489e+00 
       1.024624891378e-01       9.453806383586e-01 
       1.060270359164e-01       8.981493054017e-01 
       1.096863943056e-01       8.596132172623e-01 
       1.134471073830e-01       8.284061368928e-01 
       1.173155669539e-01       8.024673647110e-01 
       1.212980586983e-01       7.792283301294e-01 
       1.254007961065e-01       7.559178219373e-01 
       1.296299459934e-01       7.299819777889e-01 
       1.339916477160e-01       6.995913796529e-01 
       1.384920277736e-01       6.640780732406e-01 
       1.431372111762e-01       6.241445136202e-01 
       1.479333307714e-01       5.817621036263e-01 
       1.528865355934e-01       5.396927001934e-01 
       1.580029992204e-01       5.008133885808e-01 
       1.632889290723e-01       4.673973784165e-01 
       1.687505775527e-01       4.405328850150e-01 
       1.743942559171e-01       4.198632850851e-01 
       1.802263517371e-01       4.036586919488e-01 
       1.862533508214e-01       3.893580223250e-01 
       1.924818644494e-01       3.741325412694e-01 
       1.989186627765e-01       3.558003907253e-01 
       2.055707152847e-01       3.339961726017e-01 
       2.124452391818e-01       3.102639543754e-01 
       2.195497567139e-01       2.871219596068e-01 
       2.268921624510e-01       2.668070414497e-01 
       2.344808017550e-01       2.504819761110e-01 
       2.423245618548e-01       2.378317723407e-01 
       2.504329772620e-01       2.271100117112e-01 
       2.588163516754e-01       2.161159253920e-01 
       2.674858990930e-01       2.035435939450e-01 
       2.764539076010e-01       1.895954174716e-01 
       2.857339303080e-01       1.757551345797e-01 
       2.953410092148e-01       1.636977978684e-01 
       3.052919395542e-01       1.539043608755e-01 
       3.156055844677e-01       1.455288652414e-01 
       3.263032530092e-01       1.372476430212e-01 
       3.374091587054e-01       1.282995306147e-01 
       3.489509817175e-01       1.191685001062e-01 
       3.609605657343e-01       1.108048944730e-01 
       3.734747921333e-01       1.036425495580e-01 
       3.865366902904e-01       9.713856958752e-02 
       4.001968667448e-01       9.061267333404e-02 
       4.145153713076e-01       8.403422509270e-02 
       4.295641718077e-01       7.788863025662e-02 
       4.454304922144e-01       7.233879852541e-02 
       4.622214006969e-01       6.709075860213e-02 
       4.800702491654e-01       6.188872772952e-02 
       4.991459272112e-01       5.692328049123e-02 
       5.196665217302e-01       5.231289454392e-02 
       5.419201087032e-01       4.782935966815e-02 
       5.662975451962e-01       4.348354124509e-02 
       5.933463737275e-01       3.932757518388e-02 
       6.238638458458e-01       3.524985263728e-02 
       6.590669257916e-01       3.125908877845e-02 
       7.009246080454e-01       2.728358195860e-02 
       7.528593308799e-01       2.327450607537e-02 
       8.213469537518e-01       1.914416347937e-02 
       9.196980813302e-01       1.481274228942e-02 
       1.075112183810e+00       1.034639248478e-02 
       1.322697471132e+00       6.374636411378e-03 
       1.662328205042e+00       3.700493061259e-03 
       2.092692408506e+00       2.119087677309e-03 
       2.634543445090e+00       1.202263209185e-03 
       3.316693691389e+00       6.757998847942e-04 
       4.175469971226e+00       3.760535900724e-04 
       5.256605252960e+00       2.067095477831e-04 
       6.617673932723e+00       1.117474769597e-04 
       8.331157880872e+00       5.891724461874e-05 
       1.048830636590e+01       2.983307418640e-05 
       1.320399541071e+01       1.410748639052e-05 
       1.662284535976e+01       5.911953745504e-06 
       2.092692243973e+01       1.970618235967e-06 
       2.634543445002e+01       3.924489873487e-07 
       3.316693691389e+01       7.100000139212e-09 
       4.175469971226e+01       4.905413554492e-08 
       5.256605252960e+01       9.030600164262e-08 
       6.617673932723e+01       4.298795956503e-08 
