# Matter power spectrum P(k) at redshift z=0
# for k=1.04775e-05 to 67.6233 h/Mpc,
# number of wavenumbers equal to 246
#    1:k (h/Mpc)              2:P (Mpc/h)^3        
       1.047750691046e-05       5.020964811306e+01 
       1.131335172503e-05       5.407050701924e+01 
       1.221587619537e-05       5.822819068558e+01 
       1.319039970183e-05       6.270562594775e+01 
       1.424266597921e-05       6.752732240880e+01 
       1.537887696968e-05       7.271977206173e+01 
       1.660572937635e-05       7.831147247912e+01 
       1.793045413292e-05       8.433311821988e+01 
       1.936085902198e-05       9.081778249833e+01 
       2.090537469327e-05       9.780108069294e+01 
       2.257310435294e-05       1.053213197893e+02 
       2.437387741694e-05       1.134197377890e+02 
       2.631830744443e-05       1.221408203809e+02 
       2.841785469300e-05       1.315324642474e+02 
       3.068489366414e-05       1.416462094881e+02 
       3.313278603720e-05       1.525374501932e+02 
       3.577595942169e-05       1.642660688414e+02 
       3.862999239199e-05       1.768963506307e+02 
       4.171170630578e-05       1.904975994010e+02 
       4.503926444729e-05       2.051444491974e+02 
       4.863227907969e-05       2.209171465549e+02 
       5.251192703764e-05       2.379022224249e+02 
       5.670107454120e-05       2.561927927512e+02 
       6.122441196689e-05       2.758890444040e+02 
       6.610859936996e-05       2.970989227881e+02 
       7.138242361596e-05       3.199385560802e+02 
       7.707696804727e-05       3.445329783680e+02 
       8.322579568497e-05       3.710167318946e+02 
       8.986514704559e-05       3.995346444203e+02 
       9.703415373875e-05       4.302425407383e+02 
       1.047750691046e-04       4.633080766742e+02 
       1.131335172503e-04       4.989116271565e+02 
       1.221587619537e-04       5.372471950929e+02 
       1.319039970183e-04       5.785234129338e+02 
       1.424266597921e-04       6.229645934871e+02 
       1.537887696968e-04       6.708118490405e+02 
       1.660572937635e-04       7.223242666092e+02 
       1.793045413292e-04       7.777801559016e+02 
       1.936085902198e-04       8.374783614141e+02 
       2.090537469327e-04       9.017396271824e+02 
       2.257310435294e-04       9.709080268041e+02 
       2.437387741694e-04       1.045352449493e+03 
       2.631830744443e-04       1.125468123750e+03 
       2.841785469300e-04       1.211678180495e+03 
       3.068489366414e-04       1.304435250150e+03 
       3.313278603720e-04       1.404223053681e+03 
       3.577595942169e-04       1.511558014616e+03 
       3.862999239199e-04       1.626990837812e+03 
       4.171170630578e-04       1.751108028790e+03 
       4.503926444729e-04       1.884533382872e+03 
       4.863227907969e-04       2.027929378112e+03 
       5.251192703764e-04       2.181998448133e+03 
       5.670107454121e-04       2.347484102755e+03 
       6.122441196689e-04       2.525171871366e+03 
       6.610859936996e-04       2.715889983593e+03 
       7.138242361596e-04       2.920509688385e+03 
       7.707696804727e-04       3.139945100279e+03 
       8.322579568497e-04       3.375152337586e+03 
       8.986514704559e-04       3.627127831140e+03 
       9.703415373875e-04       3.896905453136e+03 
       1.047750691046e-03       4.185552174298e+03 
       1.131335172503e-03       4.494162430373e+03 
       1.221587619537e-03       4.823850706501e+03 
       1.319039970183e-03       5.175742739217e+03 
       1.424266597921e-03       5.551019596899e+03 
       1.537887696968e-03       5.950788340558e+03 
       1.660572937635e-03       6.376123051788e+03 
       1.793045413292e-03       6.828073901456e+03 
       1.936085902198e-03       7.307625381066e+03 
       2.090537469327e-03       7.815671860701e+03 
       2.257310435294e-03       8.352990375819e+03 
       2.437387741694e-03       8.920211064315e+03 
       2.631830744443e-03       9.517783069112e+03 
       2.841785469300e-03       1.014593704435e+04 
       3.068489366414e-03       1.080464502789e+04 
       3.313278603720e-03       1.149357460345e+04 
       3.577595942169e-03       1.221203621722e+04 
       3.862999239199e-03       1.295892539446e+04 
       4.171170630578e-03       1.373266013296e+04 
       4.503926444729e-03       1.453111835625e+04 
       4.863227907969e-03       1.535154985300e+04 
       5.251192703764e-03       1.619063614557e+04 
       5.670107454120e-03       1.704431257751e+04 
       6.122441196689e-03       1.790755939653e+04 
       6.610859936996e-03       1.877460409717e+04 
       7.138242361596e-03       1.963872430357e+04 
       7.707696804727e-03       2.049215713755e+04 
       8.322579568496e-03       2.132607231812e+04 
       8.986514704559e-03       2.213055007527e+04 
       9.703415373875e-03       2.289445472125e+04 
       1.047750691046e-02       2.360547712746e+04 
       1.131335172503e-02       2.425022942146e+04 
       1.221587619537e-02       2.481423924252e+04 
       1.319039970183e-02       2.528218541164e+04 
       1.424266597920e-02       2.563814356136e+04 
       1.537887696964e-02       2.586608241026e+04 
       1.660572937560e-02       2.595026992104e+04 
       1.793045412207e-02       2.587634583627e+04 
       1.936085889642e-02       2.563219333466e+04 
       2.090537351881e-02       2.520938309180e+04 
       2.257309534705e-02       2.460448271193e+04 
       2.437382002240e-02       2.382090265719e+04 
       2.631799943729e-02       2.287044419500e+04 
       2.841644544598e-02       2.177447578924e+04 
       3.067933354524e-02       2.056553520444e+04 
       3.311368469821e-02       1.928736534772e+04 
       3.571840442514e-02       1.799400772306e+04 
       3.847720347390e-02       1.674691010807e+04 
       4.135335537314e-02       1.560460853505e+04 
       4.429361666563e-02       1.461039617639e+04 
       4.724366437916e-02       1.378053304403e+04 
       5.016480834039e-02       1.310509725355e+04 
       5.303989618930e-02       1.255712818441e+04 
       5.586870668205e-02       1.210426767429e+04 
       5.866042679206e-02       1.171465720872e+04 
       6.142798931504e-02       1.136049102554e+04 
       6.418496438662e-02       1.101854146160e+04 
       6.694418832236e-02       1.067069935162e+04 
       6.971731104453e-02       1.030359315590e+04 
       7.251476154108e-02       9.908985373774e+03 
       7.534587669814e-02       9.483794213053e+03 
       7.821907664495e-02       9.029505775503e+03 
       8.114203771084e-02       8.552342462704e+03 
       8.412184533139e-02       8.061936390030e+03 
       8.716512277352e-02       7.570786118337e+03 
       9.027813693913e-02       7.092504391417e+03 
       9.346688429613e-02       6.640522128270e+03 
       9.673716026122e-02       6.226714981940e+03 
       1.000946150608e-01       5.859928223718e+03 
       1.035447986307e-01       5.545222370613e+03 
       1.070931966524e-01       5.283121040933e+03 
       1.107452594180e-01       5.069418800851e+03 
       1.145064248899e-01       4.895240334363e+03 
       1.183821370656e-01       4.747854322195e+03 
       1.223778605591e-01       4.611733340590e+03 
       1.264990921707e-01       4.470621025083e+03 
       1.307513701078e-01       4.310275778063e+03 
       1.351402814485e-01       4.121389137191e+03 
       1.396714683894e-01       3.902072805434e+03 
       1.443506337875e-01       3.658637794981e+03 
       1.491835464900e-01       3.404483441034e+03 
       1.541760469368e-01       3.156684334665e+03 
       1.593340535209e-01       2.931978616965e+03 
       1.646635701934e-01       2.742375643704e+03 
       1.701706958081e-01       2.592261240706e+03 
       1.758616357070e-01       2.477239252646e+03 
       1.817427160581e-01       2.385187198607e+03 
       1.878204014651e-01       2.300360134259e+03 
       1.941013163855e-01       2.205759017235e+03 
       2.005922709060e-01       2.090816291202e+03 
       2.073002914514e-01       1.956467484477e+03 
       2.142326570343e-01       1.814194464225e+03 
       2.213969417044e-01       1.679297166238e+03 
       2.288010639201e-01       1.563848727380e+03 
       2.364533436625e-01       1.472684794407e+03 
       2.443625682390e-01       1.401512572601e+03 
       2.525380678946e-01       1.338417719029e+03 
       2.609898025770e-01       1.270906593330e+03 
       2.697284614969e-01       1.193382629844e+03 
       2.787655775073e-01       1.109338548905e+03 
       2.881136588192e-01       1.028770431024e+03 
       2.977863412019e-01       9.604796478914e+02 
       3.077985646248e-01       9.050263208272e+02 
       3.181667793367e-01       8.561444534315e+02 
       3.289091877084e-01       8.061883249120e+02 
       3.400460298905e-01       7.523912939887e+02 
       3.515999235695e-01       6.989246909854e+02 
       3.635962710278e-01       6.510650410908e+02 
       3.760637505499e-01       6.101221015920e+02 
       3.890349143014e-01       5.721319879096e+02 
       4.025469215929e-01       5.337820524953e+02 
       4.166424455447e-01       4.956322186013e+02 
       4.313708034899e-01       4.604689075089e+02 
       4.467893781976e-01       4.287769051144e+02 
       4.629654198623e-01       3.987722527152e+02 
       4.799783500912e-01       3.692416744839e+02 
       4.979227318246e-01       3.412398350065e+02 
       5.169121269689e-01       3.154835609966e+02 
       5.370841403262e-01       2.908359889721e+02 
       5.586070463286e-01       2.671064402612e+02 
       5.816885093582e-01       2.448089369048e+02 
       6.065870143577e-01       2.235675041056e+02 
       6.336266466978e-01       2.032102949274e+02 
       6.632156057925e-01       1.838792524307e+02 
       6.958678637575e-01       1.653544116616e+02 
       7.322247983784e-01       1.476962862150e+02 
       7.730680193171e-01       1.308340216977e+02 
       8.193049551574e-01       1.148318594535e+02 
       8.718988013754e-01       9.976279523333e+01 
       9.317218028590e-01       8.577807968024e+01 
       9.993660906273e-01       7.305481822312e+01 
       1.075037109879e+00       6.173601132369e+01 
       1.158653485387e+00       5.187928085386e+01 
       1.250099156961e+00       4.344034155234e+01 
       1.349432400897e+00       3.628970963347e+01 
       1.456947456991e+00       3.026811398505e+01 
       1.573135110893e+00       2.521462714156e+01 
       1.698621895119e+00       2.098207085950e+01 
       1.834127512423e+00       1.744240330564e+01 
       1.980444933977e+00       1.448570634342e+01 
       2.138435191130e+00       1.201892650346e+01 
       2.309029198543e+00       9.963188801362e+00 
       2.493232376993e+00       8.251825934769e+00 
       2.692130394536e+00       6.828631636363e+00 
       2.906895533764e+00       5.646238801957e+00 
       3.138793596840e+00       4.664911058411e+00 
       3.389191365541e+00       3.851123411546e+00 
       3.659564656886e+00       3.176947814148e+00 
       3.951507021438e+00       2.618899689830e+00 
       4.266739135513e+00       2.157365618548e+00 
       4.607118942658e+00       1.775934976105e+00 
       4.974652604172e+00       1.460996187562e+00 
       5.371506323193e+00       1.201133906950e+00 
       5.800019112071e+00       9.868729516457e-01 
       6.262716578240e+00       8.103556541151e-01 
       6.762325809881e+00       6.650113406433e-01 
       7.301791449077e+00       5.454284318236e-01 
       7.884293047211e+00       4.470984405698e-01 
       8.513263804891e+00       3.662980734440e-01 
       9.192410806865e+00       2.999413111970e-01 
       9.925736871166e+00       2.454821271238e-01 
       1.071756414128e+01       2.008068383967e-01 
       1.157255956041e+01       1.641844609372e-01 
       1.249576237789e+01       1.341764960222e-01 
       1.349261385000e+01       1.096026183834e-01 
       1.456898931011e+01       8.948854624327e-02 
       1.573123279727e+01       7.303321763075e-02 
       1.698619444729e+01       5.957764535836e-02 
       1.834127086665e+01       4.858001977578e-02 
       1.980444872733e+01       3.959628063996e-02 
       2.138435183937e+01       3.226038900992e-02 
       2.309029197863e+01       2.627239997143e-02 
       2.493232376942e+01       2.138749147367e-02 
       2.692130394533e+01       1.740392981535e-02 
       2.906895533764e+01       1.415629661422e-02 
       3.138793596840e+01       1.151042766618e-02 
       3.389191365541e+01       9.355080630185e-03 
       3.659564656886e+01       7.600298344781e-03 
       3.951507021438e+01       6.172196324450e-03 
       4.266739135513e+01       5.010145234739e-03 
       4.607118942658e+01       4.065160663429e-03 
       4.974652604172e+01       3.297050599102e-03 
       5.371506323193e+01       2.672791979359e-03 
       5.800019112071e+01       2.165662326044e-03 
       6.262716578240e+01       1.753854028234e-03 
       6.762325809881e+01       1.419582542050e-03 
