# Matter power spectrum P(k) at redshift z=99
# for k=1.04775e-05 to 67.6233 h/Mpc,
# number of wavenumbers equal to 246
#    1:k (h/Mpc)              2:P (Mpc/h)^3        
       1.047750691046e-05       7.261927681055e-03 
       1.131335172503e-05       7.820331652639e-03 
       1.221587619537e-05       8.421675995677e-03 
       1.319039970183e-05       9.069258202090e-03 
       1.424266597921e-05       9.766638412392e-03 
       1.537887696968e-05       1.051764070829e-02 
       1.660572937635e-05       1.132639106755e-02 
       1.793045413292e-05       1.219733232747e-02 
       1.936085902198e-05       1.313524225814e-02 
       2.090537469327e-05       1.414527123437e-02 
       2.257310435294e-05       1.523296273863e-02 
       2.437387741694e-05       1.640429446332e-02 
       2.631830744443e-05       1.766569584105e-02 
       2.841785469300e-05       1.902408737056e-02 
       3.068489366414e-05       2.048692972827e-02 
       3.313278603720e-05       2.206225516001e-02 
       3.577595942169e-05       2.375870707501e-02 
       3.862999239199e-05       2.558560730270e-02 
       4.171170630578e-05       2.755297766350e-02 
       4.503926444729e-05       2.967161930552e-02 
       4.863227907969e-05       3.195316454318e-02 
       5.251192703764e-05       3.441013523039e-02 
       5.670107454120e-05       3.705601726572e-02 
       6.122441196689e-05       3.990533417902e-02 
       6.610859936996e-05       4.297372172892e-02 
       7.138242361596e-05       4.627802146737e-02 
       7.707696804727e-05       4.983636199596e-02 
       8.322579568497e-05       5.366826853086e-02 
       8.986514704559e-05       5.779476400874e-02 
       9.703415373875e-05       6.223848250675e-02 
       1.047750691046e-04       6.702379872951e-02 
       1.131335172503e-04       7.217695161254e-02 
       1.221587619537e-04       7.772619082052e-02 
       1.319039970183e-04       8.370193441507e-02 
       1.424266597921e-04       9.013692517379e-02 
       1.537887696968e-04       9.706641253158e-02 
       1.660572937635e-04       1.045283355411e-01 
       1.793045413292e-04       1.125635350296e-01 
       1.936085902198e-04       1.212159616290e-01 
       2.090537469327e-04       1.305329134138e-01 
       2.257310435294e-04       1.405652847747e-01 
       2.437387741694e-04       1.513678304190e-01 
       2.631830744443e-04       1.629994506648e-01 
       2.841785469300e-04       1.755234923138e-01 
       3.068489366414e-04       1.890080672473e-01 
       3.313278603720e-04       2.035264004653e-01 
       3.577595942169e-04       2.191571806068e-01 
       3.862999239199e-04       2.359849440163e-01 
       4.171170630578e-04       2.541004744305e-01 
       4.503926444729e-04       2.736012083255e-01 
       4.863227907969e-04       2.945916794170e-01 
       5.251192703764e-04       3.171839528632e-01 
       5.670107454121e-04       3.414980767713e-01 
       6.122441196689e-04       3.676625417094e-01 
       6.610859936996e-04       3.958147256599e-01 
       7.138242361596e-04       4.261013289453e-01 
       7.707696804727e-04       4.586787797443e-01 
       8.322579568497e-04       4.937136006391e-01 
       8.986514704559e-04       5.313826807142e-01 
       9.703415373875e-04       5.718734978325e-01 
       1.047750691046e-03       6.153841636128e-01 
       1.131335172503e-03       6.621233246577e-01 
       1.221587619537e-03       7.123098228068e-01 
       1.319039970183e-03       7.661720592961e-01 
       1.424266597921e-03       8.239546306486e-01 
       1.537887696968e-03       8.859011182838e-01 
       1.660572937635e-03       9.522588016385e-01 
       1.793045413292e-03       1.023280100887e+00 
       1.936085902198e-03       1.099216305716e+00 
       2.090537469327e-03       1.180312991662e+00 
       2.257310435294e-03       1.266804117133e+00 
       2.437387741694e-03       1.358904854760e+00 
       2.631830744443e-03       1.456802684581e+00 
       2.841785469300e-03       1.560646892015e+00 
       3.068489366414e-03       1.670536064057e+00 
       3.313278603720e-03       1.786503853799e+00 
       3.577595942169e-03       1.908502932447e+00 
       3.862999239199e-03       2.036387732398e+00 
       4.171170630578e-03       2.169896195349e+00 
       4.503926444729e-03       2.308631880671e+00 
       4.863227907969e-03       2.452047292582e+00 
       5.251192703764e-03       2.599430629608e+00 
       5.670107454120e-03       2.749896933201e+00 
       6.122441196689e-03       2.902386514498e+00 
       6.610859936996e-03       3.055668705323e+00 
       7.138242361596e-03       3.208356461869e+00 
       7.707696804727e-03       3.358923892690e+00 
       8.322579568496e-03       3.505725594231e+00 
       8.986514704559e-03       3.647009251387e+00 
       9.703415373875e-03       3.780923301085e+00 
       1.047750691046e-02       3.905491054957e+00 
       1.131335172503e-02       4.018587946195e+00 
       1.221587619537e-02       4.117901578341e+00 
       1.319039970183e-02       4.200915340325e+00 
       1.424266597920e-02       4.264942491246e+00 
       1.537887696964e-02       4.307219643224e+00 
       1.660572937560e-02       4.325062412807e+00 
       1.793045412207e-02       4.316059432474e+00 
       1.936085889642e-02       4.278228481931e+00 
       2.090537351881e-02       4.210206177786e+00 
       2.257309534705e-02       4.111422667997e+00 
       2.437382002240e-02       3.982418315830e+00 
       2.631799943729e-02       3.825170691532e+00 
       2.841644544598e-02       3.643281856226e+00 
       3.067933354524e-02       3.442195257829e+00 
       3.311368469821e-02       3.229243818021e+00 
       3.571840442514e-02       3.013512028495e+00 
       3.847720347390e-02       2.805277199700e+00 
       4.135335537314e-02       2.614411349581e+00 
       4.429361666563e-02       2.448132839573e+00 
       4.724366437916e-02       2.309240258019e+00 
       5.016480834039e-02       2.196113109924e+00 
       5.303989618930e-02       2.104364854320e+00 
       5.586870668205e-02       2.028467249078e+00 
       5.866042679206e-02       1.963152517971e+00 
       6.142798931504e-02       1.903777963585e+00 
       6.418496438662e-02       1.846474959574e+00 
       6.694418832236e-02       1.788195600418e+00 
       6.971731104453e-02       1.726719549914e+00 
       7.251476154108e-02       1.660653285838e+00 
       7.534587669814e-02       1.589469336340e+00 
       7.821907664495e-02       1.513431747651e+00 
       8.114203771084e-02       1.433565228831e+00 
       8.412184533139e-02       1.351488171122e+00 
       8.716512277352e-02       1.269273981424e+00 
       9.027813693913e-02       1.189192884685e+00 
       9.346688429613e-02       1.113500280887e+00 
       9.673716026122e-02       1.044174191454e+00 
       1.000946150608e-01       9.827070658089e-01 
       1.035447986307e-01       9.299361470481e-01 
       1.070931966524e-01       8.859600065591e-01 
       1.107452594180e-01       8.500694411852e-01 
       1.145064248899e-01       8.208044685291e-01 
       1.183821370656e-01       7.960238215255e-01 
       1.223778605591e-01       7.731461343217e-01 
       1.264990921707e-01       7.494498250633e-01 
       1.307513701078e-01       7.225571173936e-01 
       1.351402814485e-01       6.909102275335e-01 
       1.396714683894e-01       6.541822171848e-01 
       1.443506337875e-01       6.134267991129e-01 
       1.491835464900e-01       5.708686104964e-01 
       1.541760469368e-01       5.293635333499e-01 
       1.593340535209e-01       4.917091183830e-01 
       1.646635701934e-01       4.599185331402e-01 
       1.701706958081e-01       4.347276864977e-01 
       1.758616357070e-01       4.154064801689e-01 
       1.817427160581e-01       3.999352510793e-01 
       1.878204014651e-01       3.856844322147e-01 
       1.941013163855e-01       3.698128280719e-01 
       2.005922709060e-01       3.505499695682e-01 
       2.073002914514e-01       3.280450824268e-01 
       2.142326570343e-01       3.042129320917e-01 
       2.213969417044e-01       2.816097052490e-01 
       2.288010639201e-01       2.622549112765e-01 
       2.364533436625e-01       2.469608800849e-01 
       2.443625682390e-01       2.350116017386e-01 
       2.525380678946e-01       2.244178371754e-01 
       2.609898025770e-01       2.130938989938e-01 
       2.697284614969e-01       2.001002091875e-01 
       2.787655775073e-01       1.860180458856e-01 
       2.881136588192e-01       1.725149861886e-01 
       2.977863412019e-01       1.610639090357e-01 
       3.077985646248e-01       1.517586443924e-01 
       3.181667793367e-01       1.435574353661e-01 
       3.289091877084e-01       1.351792394970e-01 
       3.400460298905e-01       1.261618246259e-01 
       3.515999235695e-01       1.171990214707e-01 
       3.635962710278e-01       1.091741584244e-01 
       3.760637505499e-01       1.023068814452e-01 
       3.890349143014e-01       9.593492626488e-02 
       4.025469215929e-01       8.950489076603e-02 
       4.166424455447e-01       8.310887205542e-02 
       4.313708034899e-01       7.721248307134e-02 
       4.467893781976e-01       7.189740421482e-02 
       4.629654198623e-01       6.686582969313e-02 
       4.799783500912e-01       6.191430842562e-02 
       4.979227318246e-01       5.721895107550e-02 
       5.169121269689e-01       5.289951654301e-02 
       5.370841403262e-01       4.876639254800e-02 
       5.586070463286e-01       4.478714096080e-02 
       5.816885093582e-01       4.104802856610e-02 
       6.065870143577e-01       3.748594236154e-02 
       6.336266466978e-01       3.407223685275e-02 
       6.632156057925e-01       3.083045461951e-02 
       6.958678637575e-01       2.772394787761e-02 
       7.322247983784e-01       2.476263453858e-02 
       7.730680193171e-01       2.193495093507e-02 
       8.193049551574e-01       1.925118538070e-02 
       8.718988013754e-01       1.672407984757e-02 
       9.317218028590e-01       1.437877258066e-02 
       9.993660906273e-01       1.224492346772e-02 
       1.075037109879e+00       1.034650837751e-02 
       1.158653485387e+00       8.693286359035e-03 
       1.250099156961e+00       7.277754308722e-03 
       1.349432400897e+00       6.078221335302e-03 
       1.456947456991e+00       5.068050969209e-03 
       1.573135110893e+00       4.220170071857e-03 
       1.698621895119e+00       3.509938231141e-03 
       1.834127512423e+00       2.915853092698e-03 
       1.980444933977e+00       2.419508045384e-03 
       2.138435191130e+00       2.005283746558e-03 
       2.309029198543e+00       1.659965910511e-03 
       2.493232376993e+00       1.372382333332e-03 
       2.692130394536e+00       1.133102190507e-03 
       2.906895533764e+00       9.341749138056e-04 
       3.138793596840e+00       7.689466875953e-04 
       3.389191365541e+00       6.318131192951e-04 
       3.659564656886e+00       5.180770310585e-04 
       3.951507021438e+00       4.238147780080e-04 
       4.266739135513e+00       3.457438719718e-04 
       4.607118942658e+00       2.811287319310e-04 
       4.974652604172e+00       2.276858380668e-04 
       5.371506323193e+00       1.835196215097e-04 
       5.800019112071e+00       1.470562770621e-04 
       6.262716578240e+00       1.169925394246e-04 
       6.762325809881e+00       9.225113461413e-05 
       7.301791449077e+00       7.194226660414e-05 
       7.884293047211e+00       5.533385603386e-05 
       8.513263804891e+00       4.182658582906e-05 
       9.192410806865e+00       3.092496086068e-05 
       9.925736871166e+00       2.222415201784e-05 
       1.071756414128e+01       1.538830613044e-05 
       1.157255956041e+01       1.013702480622e-05 
       1.249576237789e+01       6.230306464350e-06 
       1.349261385000e+01       3.458040856270e-06 
       1.456898931011e+01       1.628564489000e-06 
       1.573123279727e+01       5.608659759262e-07 
       1.698619444729e+01       7.969584963582e-08 
       1.834127086665e+01       1.400032524062e-08 
       1.980444872733e+01       1.999897104318e-07 
       2.138435183937e+01       4.885161800274e-07 
       2.309029197863e+01       7.558336436330e-07 
       2.493232376942e+01       9.155865729852e-07 
       2.692130394533e+01       9.277858390174e-07 
       2.906895533764e+01       8.011370654515e-07 
       3.138793596840e+01       5.843719444719e-07 
       3.389191365541e+01       3.468867610874e-07 
       3.659564656886e+01       1.528617315532e-07 
       3.951507021438e+01       3.819637620446e-08 
       4.266739135513e+01       7.155775698355e-10 
       4.607118942658e+01       9.102253370491e-09 
       4.974652604172e+01       2.566611233480e-08 
       5.371506323193e+01       2.841001526987e-08 
       5.800019112071e+01       1.779169557463e-08 
       6.262716578240e+01       5.835092329857e-09 
       6.762325809881e+01       4.536876647212e-10 
