# Matter power spectrum P(k) at redshift z=99
# for k=1.04775e-05 to 67.6233 h/Mpc,
# number of wavenumbers equal to 246
#    1:k (h/Mpc)              2:P (Mpc/h)^3        
       1.047750691046e-05       7.261927680866e-03 
       1.131335172503e-05       7.820331652436e-03 
       1.221587619537e-05       8.421675995458e-03 
       1.319039970183e-05       9.069258201854e-03 
       1.424266597921e-05       9.766638412138e-03 
       1.537887696968e-05       1.051764070802e-02 
       1.660572937635e-05       1.132639106726e-02 
       1.793045413292e-05       1.219733232716e-02 
       1.936085902198e-05       1.313524225779e-02 
       2.090537469327e-05       1.414527123400e-02 
       2.257310435294e-05       1.523296273824e-02 
       2.437387741694e-05       1.640429446289e-02 
       2.631830744443e-05       1.766569584059e-02 
       2.841785469300e-05       1.902408737006e-02 
       3.068489366414e-05       2.048692972773e-02 
       3.313278603720e-05       2.206225515944e-02 
       3.577595942169e-05       2.375870707439e-02 
       3.862999239199e-05       2.558560730204e-02 
       4.171170630578e-05       2.755297766278e-02 
       4.503926444729e-05       2.967161930475e-02 
       4.863227907969e-05       3.195316454235e-02 
       5.251192703764e-05       3.441013522949e-02 
       5.670107454120e-05       3.705601726469e-02 
       6.122441196689e-05       3.990533417798e-02 
       6.610859936996e-05       4.297372172780e-02 
       7.138242361596e-05       4.627802146617e-02 
       7.707696804727e-05       4.983636199467e-02 
       8.322579568497e-05       5.366826852947e-02 
       8.986514704559e-05       5.779476400724e-02 
       9.703415373875e-05       6.223848250513e-02 
       1.047750691046e-04       6.702379872778e-02 
       1.131335172503e-04       7.217695161068e-02 
       1.221587619537e-04       7.772619081850e-02 
       1.319039970183e-04       8.370193441291e-02 
       1.424266597921e-04       9.013692517146e-02 
       1.537887696968e-04       9.706641252908e-02 
       1.660572937635e-04       1.045283355385e-01 
       1.793045413292e-04       1.125635350267e-01 
       1.936085902198e-04       1.212159616259e-01 
       2.090537469327e-04       1.305329134105e-01 
       2.257310435294e-04       1.405652847712e-01 
       2.437387741694e-04       1.513678304152e-01 
       2.631830744443e-04       1.629994506606e-01 
       2.841785469300e-04       1.755234923093e-01 
       3.068489366414e-04       1.890080672426e-01 
       3.313278603720e-04       2.035264004602e-01 
       3.577595942169e-04       2.191571806015e-01 
       3.862999239199e-04       2.359849440106e-01 
       4.171170630578e-04       2.541004744244e-01 
       4.503926444729e-04       2.736012083190e-01 
       4.863227907969e-04       2.945916794101e-01 
       5.251192703764e-04       3.171839528559e-01 
       5.670107454121e-04       3.414980767636e-01 
       6.122441196689e-04       3.676625417013e-01 
       6.610859936996e-04       3.958147256515e-01 
       7.138242361596e-04       4.261013289361e-01 
       7.707696804727e-04       4.586787797353e-01 
       8.322579568497e-04       4.937136006282e-01 
       8.986514704559e-04       5.313826807051e-01 
       9.703415373875e-04       5.718734978235e-01 
       1.047750691046e-03       6.153841636044e-01 
       1.131335172503e-03       6.621233246497e-01 
       1.221587619537e-03       7.123098227996e-01 
       1.319039970183e-03       7.661720592903e-01 
       1.424266597921e-03       8.239546306466e-01 
       1.537887696968e-03       8.859011182851e-01 
       1.660572937635e-03       9.522588016418e-01 
       1.793045413292e-03       1.023280100901e+00 
       1.936085902198e-03       1.099216305740e+00 
       2.090537469327e-03       1.180312991699e+00 
       2.257310435294e-03       1.266804117186e+00 
       2.437387741694e-03       1.358904854835e+00 
       2.631830744443e-03       1.456802684684e+00 
       2.841785469300e-03       1.560646892154e+00 
       3.068489366414e-03       1.670536064239e+00 
       3.313278603720e-03       1.786503854036e+00 
       3.577595942169e-03       1.908502932762e+00 
       3.862999239199e-03       2.036387732806e+00 
       4.171170630578e-03       2.169896195956e+00 
       4.503926444729e-03       2.308631881344e+00 
       4.863227907969e-03       2.452047293439e+00 
       5.251192703764e-03       2.599430630696e+00 
       5.670107454120e-03       2.749896934529e+00 
       6.122441196689e-03       2.902386516232e+00 
       6.610859936996e-03       3.055668701783e+00 
       7.138242361596e-03       3.208356464593e+00 
       7.707696804727e-03       3.358923896110e+00 
       8.322579568496e-03       3.505725598541e+00 
       8.986514704559e-03       3.647009546527e+00 
       9.703415373875e-03       3.780923307680e+00 
       1.047750691046e-02       3.905491109769e+00 
       1.131335172503e-02       4.018587644269e+00 
       1.221587619537e-02       4.117901587350e+00 
       1.319039970183e-02       4.200915347955e+00 
       1.424266597920e-02       4.264942066662e+00 
       1.537887696964e-02       4.307216912912e+00 
       1.660572937560e-02       4.325060152650e+00 
       1.793045412207e-02       4.316060212307e+00 
       1.936085889642e-02       4.278227317373e+00 
       2.090537351881e-02       4.210198991203e+00 
       2.257309534705e-02       4.111420399590e+00 
       2.437382002240e-02       3.982422722531e+00 
       2.631799943729e-02       3.825174027536e+00 
       2.841644544598e-02       3.643279592543e+00 
       3.067933354524e-02       3.442199541836e+00 
       3.311368469821e-02       3.229231359766e+00 
       3.571840442514e-02       3.013504361478e+00 
       3.847720347390e-02       2.805287699858e+00 
       4.135335537314e-02       2.614408699569e+00 
       4.429361666563e-02       2.448126534869e+00 
       4.724366437916e-02       2.309241789476e+00 
       5.016480834039e-02       2.196115913756e+00 
       5.303989618930e-02       2.104363722628e+00 
       5.586870668205e-02       2.028464679668e+00 
       5.866042679206e-02       1.963152179106e+00 
       6.142798931504e-02       1.903780996797e+00 
       6.418496438662e-02       1.846481683708e+00 
       6.694418832236e-02       1.788199135807e+00 
       6.971731104453e-02       1.726716778040e+00 
       7.251476154108e-02       1.660654286077e+00 
       7.534587669814e-02       1.589470309931e+00 
       7.821907664495e-02       1.513436612604e+00 
       8.114203771084e-02       1.433567474222e+00 
       8.412184533139e-02       1.351493347401e+00 
       8.716512277352e-02       1.269273119815e+00 
       9.027813693913e-02       1.189195234531e+00 
       9.346688429613e-02       1.113503121240e+00 
       9.673716026122e-02       1.044174216810e+00 
       1.000946150608e-01       9.827090742338e-01 
       1.035447986307e-01       9.299383019625e-01 
       1.070931966524e-01       8.859581465298e-01 
       1.107452594180e-01       8.500717991581e-01 
       1.145064248899e-01       8.208030996472e-01 
       1.183821370656e-01       7.960249087214e-01 
       1.223778605591e-01       7.731443889010e-01 
       1.264990921707e-01       7.494512985298e-01 
       1.307513701078e-01       7.225556447448e-01 
       1.351402814485e-01       6.909072374955e-01 
       1.396714683894e-01       6.541797848950e-01 
       1.443506337875e-01       6.134250142564e-01 
       1.491835464900e-01       5.708676477332e-01 
       1.541760469368e-01       5.293649676073e-01 
       1.593340535209e-01       4.917105330801e-01 
       1.646635701934e-01       4.599194260830e-01 
       1.701706958081e-01       4.347277590849e-01 
       1.758616357070e-01       4.154080691406e-01 
       1.817427160581e-01       3.999364001891e-01 
       1.878204014651e-01       3.856819668724e-01 
       1.941013163855e-01       3.698100940157e-01 
       2.005922709060e-01       3.505474194387e-01 
       2.073002914514e-01       3.280458543075e-01 
       2.142326570343e-01       3.042149910868e-01 
       2.213969417044e-01       2.816113277823e-01 
       2.288010639201e-01       2.622567673228e-01 
       2.364533436625e-01       2.469617768096e-01 
       2.443625682390e-01       2.350128207780e-01 
       2.525380678946e-01       2.244179507775e-01 
       2.609898025770e-01       2.130957861682e-01 
       2.697284614969e-01       2.001022803331e-01 
       2.787655775073e-01       1.860193582508e-01 
       2.881136588192e-01       1.725166466575e-01 
       2.977863412019e-01       1.610656953738e-01 
       3.077985646248e-01       1.517606673104e-01 
       3.181667793367e-01       1.435595594658e-01 
       3.289091877084e-01       1.351818597645e-01 
       3.400460298905e-01       1.261642194909e-01 
       3.515999235695e-01       1.172015416716e-01 
       3.635962710278e-01       1.091766012531e-01 
       3.760637505499e-01       1.023090442983e-01 
       3.890349143014e-01       9.593748730478e-02 
       4.025469215929e-01       8.950766810407e-02 
       4.166424455447e-01       8.311143463133e-02 
       4.313708034899e-01       7.721494434044e-02 
       4.467893781976e-01       7.190005083160e-02 
       4.629654198623e-01       6.686856153591e-02 
       4.799783500912e-01       6.191702312692e-02 
       4.979227318246e-01       5.722158463983e-02 
       5.169121269689e-01       5.290240295217e-02 
       5.370841403262e-01       4.876906201643e-02 
       5.586070463286e-01       4.479026809578e-02 
       5.816885093582e-01       4.105123701333e-02 
       6.065870143577e-01       3.748921812799e-02 
       6.336266466978e-01       3.407556140097e-02 
       6.632156057925e-01       3.083391052465e-02 
       6.958678637575e-01       2.772756674053e-02 
       7.322247983784e-01       2.476625859040e-02 
       7.730680193171e-01       2.193868250386e-02 
       8.193049551574e-01       1.925515158899e-02 
       8.718988013754e-01       1.672825415051e-02 
       9.317218028590e-01       1.438320175699e-02 
       9.993660906273e-01       1.224947638514e-02 
       1.075037109879e+00       1.035137810457e-02 
       1.158653485387e+00       8.698383403792e-03 
       1.250099156961e+00       7.283144252840e-03 
       1.349432400897e+00       6.083906298217e-03 
       1.456947456991e+00       5.074017997217e-03 
       1.573135110893e+00       4.226476357345e-03 
       1.698621895119e+00       3.516581959924e-03 
       1.834127512423e+00       2.922867787111e-03 
       1.980444933977e+00       2.426893441800e-03 
       2.138435191130e+00       2.013080016680e-03 
       2.309029198543e+00       1.668168794041e-03 
       2.493232376993e+00       1.381008681437e-03 
       2.692130394536e+00       1.142150240190e-03 
       2.906895533764e+00       9.436791083462e-04 
       3.138793596840e+00       7.789047171339e-04 
       3.389191365541e+00       6.422199855757e-04 
       3.659564656886e+00       5.289420793132e-04 
       3.951507021438e+00       4.351292050518e-04 
       4.266739135513e+00       3.574960664050e-04 
       4.607118942658e+00       2.932950364497e-04 
       4.974652604172e+00       2.402341480802e-04 
       5.371506323193e+00       1.964113333738e-04 
       5.800019112071e+00       1.602368723680e-04 
       6.262716578240e+00       1.303909398102e-04 
       6.762325809881e+00       1.057822017795e-04 
       7.301791449077e+00       8.550327038198e-05 
       7.884293047211e+00       6.880231798927e-05 
       8.513263804891e+00       5.506225040687e-05 
       9.192410806865e+00       4.376872955553e-05 
       9.925736871166e+00       3.450221001046e-05 
       1.071756414128e+01       2.691641815960e-05 
       1.157255956041e+01       2.072696368183e-05 
       1.249576237789e+01       1.570162271900e-05 
       1.349261385000e+01       1.164976361124e-05 
       1.456898931011e+01       8.415519440841e-06 
       1.573123279727e+01       5.870867766578e-06 
       1.698619444729e+01       3.908868254749e-06 
       1.834127086665e+01       2.439917445880e-06 
       1.980444872733e+01       1.386225374784e-06 
       2.138435183937e+01       6.784060819975e-07 
       2.309029197863e+01       2.521910649480e-07 
       2.493232376942e+01       4.625573025978e-08 
       2.692130394533e+01       1.222706684212e-09 
       2.906895533764e+01       5.992208967240e-08 
       3.138793596840e+01       1.691096697528e-07 
       3.389191365541e+01       2.825262851036e-07 
       3.659564656886e+01       3.646566287995e-07 
       3.951507021438e+01       3.943842432734e-07 
       4.266739135513e+01       3.670712423872e-07 
       4.607118942658e+01       2.939358355840e-07 
       4.974652604172e+01       1.977156588737e-07 
       5.371506323193e+01       1.050724294747e-07 
       5.800019112071e+01       3.762909513983e-08 
       6.262716578240e+01       4.735615929651e-09 
       6.762325809881e+01       1.374538677958e-09 
