# Matter power spectrum P(k) at redshift z=99
# for k=1.04775e-05 to 67.6233 h/Mpc,
# number of wavenumbers equal to 246
#    1:k (h/Mpc)              2:P (Mpc/h)^3        
       1.047750691046e-05       7.262676023868e-03 
       1.131335172503e-05       7.821139801486e-03 
       1.221587619537e-05       8.422545056200e-03 
       1.319039970183e-05       9.070195019005e-03 
       1.424266597921e-05       9.767645979653e-03 
       1.537887696968e-05       1.051872648232e-02 
       1.660572937635e-05       1.132755952660e-02 
       1.793045413292e-05       1.219858873055e-02 
       1.936085902198e-05       1.313659494799e-02 
       2.090537469327e-05       1.414672962554e-02 
       2.257310435294e-05       1.523453555404e-02 
       2.437387741694e-05       1.640598841006e-02 
       2.631830744443e-05       1.766751613343e-02 
       2.841785469300e-05       1.902604834530e-02 
       3.068489366414e-05       2.048904252972e-02 
       3.313278603720e-05       2.206452878703e-02 
       3.577595942169e-05       2.376115838699e-02 
       3.862999239199e-05       2.558824522606e-02 
       4.171170630578e-05       2.755581890125e-02 
       4.503926444729e-05       2.967467928144e-02 
       4.863227907969e-05       3.195645868882e-02 
       5.251192703764e-05       3.441368285367e-02 
       5.670107454120e-05       3.705983930738e-02 
       6.122441196689e-05       3.990944766333e-02 
       6.610859936996e-05       4.297815258501e-02 
       7.138242361596e-05       4.628279001079e-02 
       7.707696804727e-05       4.984149580491e-02 
       8.322579568497e-05       5.367379873820e-02 
       8.986514704559e-05       5.780071686199e-02 
       9.703415373875e-05       6.224489017305e-02 
       1.047750691046e-04       6.703069729215e-02 
       1.131335172503e-04       7.218437620692e-02 
       1.221587619537e-04       7.773418263155e-02 
       1.319039970183e-04       8.371053349483e-02 
       1.424266597921e-04       9.014618050543e-02 
       1.537887696968e-04       9.707637046033e-02 
       1.660572937635e-04       1.045390488636e-01 
       1.793045413292e-04       1.125750583189e-01 
       1.936085902198e-04       1.212283534229e-01 
       2.090537469327e-04       1.305462360837e-01 
       2.257310435294e-04       1.405796053974e-01 
       2.437387741694e-04       1.513832182835e-01 
       2.631830744443e-04       1.630159795407e-01 
       2.841785469300e-04       1.755412382041e-01 
       3.068489366414e-04       1.890271110149e-01 
       3.313278603720e-04       2.035468222031e-01 
       3.577595942169e-04       2.191790686215e-01 
       3.862999239199e-04       2.360083821719e-01 
       4.171170630578e-04       2.541255459198e-01 
       4.503926444729e-04       2.736279969370e-01 
       4.863227907969e-04       2.946202629091e-01 
       5.251192703764e-04       3.172144002856e-01 
       5.670107454121e-04       3.415304454028e-01 
       6.122441196689e-04       3.676968698988e-01 
       6.610859936996e-04       3.958510263973e-01 
       7.138242361596e-04       4.261395807197e-01 
       7.707696804727e-04       4.587189140359e-01 
       8.322579568497e-04       4.937554793455e-01 
       8.986514704559e-04       5.314260899620e-01 
       9.703415373875e-04       5.719181049605e-01 
       1.047750691046e-03       6.154294920861e-01 
       1.131335172503e-03       6.621687071174e-01 
       1.221587619537e-03       7.123543363550e-01 
       1.319039970183e-03       7.662144573397e-01 
       1.424266597921e-03       8.239932972839e-01 
       1.537887696968e-03       8.859336831758e-01 
       1.660572937635e-03       9.522820865550e-01 
       1.793045413292e-03       1.023289935740e+00 
       1.936085902198e-03       1.099207204425e+00 
       2.090537469327e-03       1.180277704032e+00 
       2.257310435294e-03       1.266733087608e+00 
       2.437387741694e-03       1.358785421570e+00 
       2.631830744443e-03       1.456618075640e+00 
       2.841785469300e-03       1.560374795230e+00 
       3.068489366414e-03       1.670146810298e+00 
       3.313278603720e-03       1.785957820259e+00 
       3.577595942169e-03       1.907747229110e+00 
       3.862999239199e-03       2.035351579417e+00 
       4.171170630578e-03       2.168484680274e+00 
       4.503926444729e-03       2.306717782751e+00 
       4.863227907969e-03       2.449460293805e+00 
       5.251192703764e-03       2.595942683071e+00 
       5.670107454120e-03       2.745203178112e+00 
       6.122441196689e-03       2.896080375026e+00 
       6.610859936996e-03       3.047211447250e+00 
       7.138242361596e-03       3.197035530243e+00 
       7.707696804727e-03       3.343803315337e+00 
       8.322579568496e-03       3.485583317782e+00 
       8.986514704559e-03       3.620261892171e+00 
       9.703415373875e-03       3.745528911633e+00 
       1.047750691046e-02       3.858844567441e+00 
       1.131335172503e-02       3.957388078291e+00 
       1.221587619537e-02       4.037992028294e+00 
       1.319039970183e-02       4.097112136442e+00 
       1.424266597920e-02       4.130824440313e+00 
       1.537887696964e-02       4.134924144157e+00 
       1.660572937560e-02       4.105079954991e+00 
       1.793045412207e-02       4.037043336850e+00 
       1.936085889642e-02       3.926921797266e+00 
       2.090537351881e-02       3.771440196171e+00 
       2.257309534705e-02       3.568362290684e+00 
       2.437382002240e-02       3.317031061398e+00 
       2.631799943729e-02       3.019115304534e+00 
       2.841644544598e-02       2.679305318360e+00 
       3.067933354524e-02       2.306177507393e+00 
       3.311368469821e-02       1.912783346543e+00 
       3.571840442514e-02       1.517042259045e+00 
       3.847720347390e-02       1.140714065632e+00 
       4.135335537314e-02       8.060348254992e-01 
       4.429361666563e-02       5.301068457364e-01 
       4.724366437916e-02       3.200973720856e-01 
       5.016480834039e-02       1.729630111510e-01 
       5.303989618930e-02       7.906035095019e-02 
       5.586870668205e-02       2.645263782843e-02 
       5.866042679206e-02       3.637978593558e-03 
       6.142798931504e-02       6.885554049211e-04 
       6.418496438662e-02       9.537522309018e-03 
       6.694418832236e-02       2.391360088620e-02 
       6.971731104453e-02       3.917759462240e-02 
       7.251476154108e-02       5.214021685423e-02 
       7.534587669814e-02       6.088234324362e-02 
       7.821907664495e-02       6.457074715332e-02 
       8.114203771084e-02       6.325696348912e-02 
       8.412184533139e-02       5.766306634724e-02 
       8.716512277352e-02       4.896384467525e-02 
       9.027813693913e-02       3.854841345964e-02 
       9.346688429613e-02       2.781605732389e-02 
       9.673716026122e-02       1.798893650889e-02 
       1.000946150608e-01       9.975983043147e-03 
       1.035447986307e-01       4.294540161434e-03 
       1.070931966524e-01       1.054682474418e-03 
       1.107452594180e-01       3.889214649671e-06 
       1.145064248899e-01       6.197476004028e-04 
       1.183821370656e-01       2.233055852595e-03 
       1.223778605591e-01       4.159275203753e-03 
       1.264990921707e-01       5.814095730673e-03 
       1.307513701078e-01       6.796983917888e-03 
       1.351402814485e-01       6.930651560912e-03 
       1.396714683894e-01       6.255327615514e-03 
       1.443506337875e-01       4.985330348149e-03 
       1.491835464900e-01       3.438385183621e-03 
       1.541760469368e-01       1.951911662511e-03 
       1.593340535209e-01       8.035690967645e-04 
       1.646635701934e-01       1.516659321693e-04 
       1.701706958081e-01       7.475477341109e-06 
       1.758616357070e-01       2.459451151479e-04 
       1.817427160581e-01       6.539013255113e-04 
       1.878204014651e-01       1.007418813468e-03 
       1.941013163855e-01       1.139702072978e-03 
       2.005922709060e-01       1.008686809225e-03 
       2.073002914514e-01       6.920602732231e-04 
       2.142326570343e-01       3.354716046523e-04 
       2.213969417044e-01       8.264393935850e-05 
       2.288010639201e-01       1.541749473216e-08 
       2.364533436625e-01       5.345014901752e-05 
       2.443625682390e-01       1.511857318056e-04 
       2.525380678946e-01       2.042220978206e-04 
       2.609898025770e-01       1.791535153143e-04 
       2.697284614969e-01       1.054921017439e-04 
       2.787655775073e-01       3.448528614549e-05 
       2.881136588192e-01       1.584143001619e-06 
       2.977863412019e-01       6.624081244261e-06 
       3.077985646248e-01       2.541874326371e-05 
       3.181667793367e-01       3.420309883708e-05 
       3.289091877084e-01       2.605489881794e-05 
       3.400460298905e-01       1.076191586816e-05 
       3.515999235695e-01       9.525511390798e-07 
       3.635962710278e-01       1.129848982247e-06 
       3.760637505499e-01       5.361703790162e-06 
       3.890349143014e-01       6.159278821131e-06 
       4.025469215929e-01       3.014412818199e-06 
       4.166424455447e-01       2.616388151952e-07 
       4.313708034899e-01       3.364089847198e-07 
       4.467893781976e-01       1.267779561210e-06 
       4.629654198623e-01       9.904104609848e-07 
       4.799783500912e-01       1.747951146552e-07 
       4.979227318246e-01       3.336090661707e-08 
       5.169121269689e-01       2.227760523006e-07 
       5.370841403262e-01       1.280387900302e-07 
       5.586070463286e-01       9.386217480777e-10 
       5.816885093582e-01       3.906332477871e-08 
       6.065870143577e-01       2.754896170146e-08 
       6.336266466978e-01       4.890154316046e-11 
       6.632156057925e-01       7.486142520926e-09 
       6.958678637575e-01       1.940582579836e-10 
       7.322247983784e-01       2.137001346295e-09 
       7.730680193171e-01       9.941792339137e-11 
       8.193049551574e-01       2.344962816435e-10 
       8.718988013754e-01       3.923387693892e-11 
       9.317218028590e-01       5.666658653938e-12 
       9.993660906273e-01       1.107213134157e-11 
       1.075037109879e+00       2.008147330942e-14 
       1.158653485387e+00       3.718738984131e-14 
       1.250099156961e+00       4.225946834204e-12 
       1.349432400897e+00       2.931333973371e-13 
       1.456947456991e+00       2.231136563758e-13 
       1.573135110893e+00       4.929686749290e-13 
       1.698621895119e+00       8.791336077710e-16 
       1.834127512423e+00       1.850368207112e-13 
       1.980444933977e+00       3.481022198929e-14 
       2.138435191130e+00       1.000486521260e-16 
       2.309029198543e+00       2.006974820631e-13 
       2.493232376993e+00       8.650883602481e-17 
       2.692130394536e+00       4.481189011601e-16 
       2.906895533764e+00       7.407144212852e-15 
       3.138793596840e+00       7.010357845118e-15 
       3.389191365541e+00       7.651278159517e-15 
       3.659564656886e+00       2.439365877417e-15 
       3.951507021438e+00       2.191477247857e-15 
       4.266739135513e+00       1.390797670082e-16 
       4.607118942658e+00       3.141715226689e-16 
       4.974652604172e+00       5.072913070991e-16 
       5.371506323193e+00       6.151196483964e-17 
       5.800019112071e+00       4.320535732398e-17 
       6.262716578240e+00       1.185289140522e-17 
       6.762325809881e+00       1.089504312671e-16 
       7.301791449077e+00       6.790581192448e-17 
       7.884293047211e+00       2.927412622369e-17 
       8.513263804891e+00       3.302736781852e-18 
       9.192410806865e+00       1.811784493856e-17 
       9.925736871166e+00       1.250364932163e-18 
       1.071756414128e+01       4.836347965605e-19 
       1.157255956041e+01       4.187969471634e-18 
       1.249576237789e+01       2.638163182415e-18 
       1.349261385000e+01       1.544482201599e-18 
       1.456898931011e+01       8.969698866120e-19 
       1.573123279727e+01       1.142768057744e-20 
       1.698619444729e+01       2.490041465057e-21 
       1.834127086665e+01       3.064818920312e-21 
       1.980444872733e+01       2.051995309674e-21 
       2.138435183937e+01       2.546025128995e-21 
       2.309029197863e+01       2.632818039521e-20 
       2.493232376942e+01       8.490239685660e-21 
       2.692130394533e+01       1.928453977567e-25 
       2.906895533764e+01       2.914072330262e-22 
       3.138793596840e+01       1.034293897642e-22 
       3.389191365541e+01       2.458343291454e-22 
       3.659564656886e+01       3.001169193372e-24 
       3.951507021438e+01       3.715415982893e-23 
       4.266739135513e+01       2.032642402088e-23 
       4.607118942658e+01       2.100166360881e-23 
       4.974652604172e+01       2.649605891384e-23 
       5.371506323193e+01       1.445498991531e-23 
       5.800019112071e+01       1.713026426723e-24 
       6.262716578240e+01       2.251263863982e-24 
       6.762325809881e+01       9.130845729366e-26 
