# Matter power spectrum P(k) at redshift z=99
# for k=1.04775e-05 to 67.6233 h/Mpc,
# number of wavenumbers equal to 246
#    1:k (h/Mpc)              2:P (Mpc/h)^3        
       1.047750691046e-05       7.261927681399e-03 
       1.131335172503e-05       7.820331653011e-03 
       1.221587619537e-05       8.421675996077e-03 
       1.319039970183e-05       9.069258202520e-03 
       1.424266597921e-05       9.766638412856e-03 
       1.537887696968e-05       1.051764070879e-02 
       1.660572937635e-05       1.132639106809e-02 
       1.793045413292e-05       1.219733232805e-02 
       1.936085902198e-05       1.313524225876e-02 
       2.090537469327e-05       1.414527123504e-02 
       2.257310435294e-05       1.523296273936e-02 
       2.437387741694e-05       1.640429446410e-02 
       2.631830744443e-05       1.766569584189e-02 
       2.841785469300e-05       1.902408737146e-02 
       3.068489366414e-05       2.048692972924e-02 
       3.313278603720e-05       2.206225516106e-02 
       3.577595942169e-05       2.375870707614e-02 
       3.862999239199e-05       2.558560730392e-02 
       4.171170630578e-05       2.755297766481e-02 
       4.503926444729e-05       2.967161930694e-02 
       4.863227907969e-05       3.195316454469e-02 
       5.251192703764e-05       3.441013523202e-02 
       5.670107454120e-05       3.705601726744e-02 
       6.122441196689e-05       3.990533418093e-02 
       6.610859936996e-05       4.297372173095e-02 
       7.138242361596e-05       4.627802146957e-02 
       7.707696804727e-05       4.983636199832e-02 
       8.322579568497e-05       5.366826853340e-02 
       8.986514704559e-05       5.779476401147e-02 
       9.703415373875e-05       6.223848250969e-02 
       1.047750691046e-04       6.702379873268e-02 
       1.131335172503e-04       7.217695161595e-02 
       1.221587619537e-04       7.772619082420e-02 
       1.319039970183e-04       8.370193441901e-02 
       1.424266597921e-04       9.013692517804e-02 
       1.537887696968e-04       9.706641253614e-02 
       1.660572937635e-04       1.045283355461e-01 
       1.793045413292e-04       1.125635350349e-01 
       1.936085902198e-04       1.212159616347e-01 
       2.090537469327e-04       1.305329134199e-01 
       2.257310435294e-04       1.405652847813e-01 
       2.437387741694e-04       1.513678304261e-01 
       2.631830744443e-04       1.629994506723e-01 
       2.841785469300e-04       1.755234923218e-01 
       3.068489366414e-04       1.890080672559e-01 
       3.313278603720e-04       2.035264004745e-01 
       3.577595942169e-04       2.191571806167e-01 
       3.862999239199e-04       2.359849440267e-01 
       4.171170630578e-04       2.541004744417e-01 
       4.503926444729e-04       2.736012083374e-01 
       4.863227907969e-04       2.945916794296e-01 
       5.251192703764e-04       3.171839528766e-01 
       5.670107454121e-04       3.414980767854e-01 
       6.122441196689e-04       3.676625417241e-01 
       6.610859936996e-04       3.958147256753e-01 
       7.138242361596e-04       4.261013289606e-01 
       7.707696804727e-04       4.586787797606e-01 
       8.322579568497e-04       4.937136006553e-01 
       8.986514704559e-04       5.313826807309e-01 
       9.703415373875e-04       5.718734978490e-01 
       1.047750691046e-03       6.153841636289e-01 
       1.131335172503e-03       6.621233246722e-01 
       1.221587619537e-03       7.123098228190e-01 
       1.319039970183e-03       7.661720592415e-01 
       1.424266597921e-03       8.239546306528e-01 
       1.537887696968e-03       8.859011182815e-01 
       1.660572937635e-03       9.522588016238e-01 
       1.793045413292e-03       1.023280100862e+00 
       1.936085902198e-03       1.099216305673e+00 
       2.090537469327e-03       1.180312991595e+00 
       2.257310435294e-03       1.266804117031e+00 
       2.437387741694e-03       1.358904854623e+00 
       2.631830744443e-03       1.456802684394e+00 
       2.841785469300e-03       1.560646891762e+00 
       3.068489366414e-03       1.670536063721e+00 
       3.313278603720e-03       1.786503853351e+00 
       3.577595942169e-03       1.908502931868e+00 
       3.862999239199e-03       2.036387731649e+00 
       4.171170630578e-03       2.169896190491e+00 
       4.503926444729e-03       2.308631879433e+00 
       4.863227907969e-03       2.452047291002e+00 
       5.251192703764e-03       2.599430627599e+00 
       5.670107454120e-03       2.749896930575e+00 
       6.122441196689e-03       2.902386511280e+00 
       6.610859936996e-03       3.055668693267e+00 
       7.138242361596e-03       3.208356456775e+00 
       7.707696804727e-03       3.358923886769e+00 
       8.322579568496e-03       3.505725585811e+00 
       8.986514704559e-03       3.647009912972e+00 
       9.703415373875e-03       3.780923288702e+00 
       1.047750691046e-02       3.905490091303e+00 
       1.131335172503e-02       4.018587615365e+00 
       1.221587619537e-02       4.117901557477e+00 
       1.319039970183e-02       4.200915347728e+00 
       1.424266597920e-02       4.264942478507e+00 
       1.537887696964e-02       4.307220647436e+00 
       1.660572937560e-02       4.325065248752e+00 
       1.793045412207e-02       4.316058015211e+00 
       1.936085889642e-02       4.278230087788e+00 
       2.090537351881e-02       4.210202143291e+00 
       2.257309534705e-02       4.111416339092e+00 
       2.437382002240e-02       3.982428091846e+00 
       2.631799943729e-02       3.825175274930e+00 
       2.841644544598e-02       3.643281435419e+00 
       3.067933354524e-02       3.442196727567e+00 
       3.311368469821e-02       3.229239136303e+00 
       3.571840442514e-02       3.013517493414e+00 
       3.847720347390e-02       2.805283324780e+00 
       4.135335537314e-02       2.614408873408e+00 
       4.429361666563e-02       2.448132561074e+00 
       4.724366437916e-02       2.309236365561e+00 
       5.016480834039e-02       2.196109342790e+00 
       5.303989618930e-02       2.104364059407e+00 
       5.586870668205e-02       2.028465717747e+00 
       5.866042679206e-02       1.963150801060e+00 
       6.142798931504e-02       1.903780097455e+00 
       6.418496438662e-02       1.846474215338e+00 
       6.694418832236e-02       1.788196905119e+00 
       6.971731104453e-02       1.726713254548e+00 
       7.251476154108e-02       1.660648389500e+00 
       7.534587669814e-02       1.589466468506e+00 
       7.821907664495e-02       1.513434025907e+00 
       8.114203771084e-02       1.433567271377e+00 
       8.412184533139e-02       1.351491653381e+00 
       8.716512277352e-02       1.269269602112e+00 
       9.027813693913e-02       1.189188763884e+00 
       9.346688429613e-02       1.113496373754e+00 
       9.673716026122e-02       1.044169542242e+00 
       1.000946150608e-01       9.827023931917e-01 
       1.035447986307e-01       9.299289357509e-01 
       1.070931966524e-01       8.859536544961e-01 
       1.107452594180e-01       8.500637570436e-01 
       1.145064248899e-01       8.207979831982e-01 
       1.183821370656e-01       7.960187971817e-01 
       1.223778605591e-01       7.731374386651e-01 
       1.264990921707e-01       7.494443644272e-01 
       1.307513701078e-01       7.225505247810e-01 
       1.351402814485e-01       6.909009609370e-01 
       1.396714683894e-01       6.541731491845e-01 
       1.443506337875e-01       6.134180509051e-01 
       1.491835464900e-01       5.708594107003e-01 
       1.541760469368e-01       5.293535737321e-01 
       1.593340535209e-01       4.916996934425e-01 
       1.646635701934e-01       4.599072512485e-01 
       1.701706958081e-01       4.347158278504e-01 
       1.758616357070e-01       4.153950760035e-01 
       1.817427160581e-01       3.999221052517e-01 
       1.878204014651e-01       3.856713611873e-01 
       1.941013163855e-01       3.697960093153e-01 
       2.005922709060e-01       3.505320495239e-01 
       2.073002914514e-01       3.280283609724e-01 
       2.142326570343e-01       3.041961246621e-01 
       2.213969417044e-01       2.815922395901e-01 
       2.288010639201e-01       2.622366147698e-01 
       2.364533436625e-01       2.469407522907e-01 
       2.443625682390e-01       2.349909066554e-01 
       2.525380678946e-01       2.243974203927e-01 
       2.609898025770e-01       2.130715909022e-01 
       2.697284614969e-01       2.000765361750e-01 
       2.787655775073e-01       1.859930063694e-01 
       2.881136588192e-01       1.724887091174e-01 
       2.977863412019e-01       1.610369633412e-01 
       3.077985646248e-01       1.517299137314e-01 
       3.181667793367e-01       1.435267917359e-01 
       3.289091877084e-01       1.351482526390e-01 
       3.400460298905e-01       1.261289958805e-01 
       3.515999235695e-01       1.171645718670e-01 
       3.635962710278e-01       1.091385462457e-01 
       3.760637505499e-01       1.022689536304e-01 
       3.890349143014e-01       9.589537701508e-02 
       4.025469215929e-01       8.946354415343e-02 
       4.166424455447e-01       8.306568553086e-02 
       4.313708034899e-01       7.716722045722e-02 
       4.467893781976e-01       7.185032277075e-02 
       4.629654198623e-01       6.681661227297e-02 
       4.799783500912e-01       6.186268854586e-02 
       4.979227318246e-01       5.716504356275e-02 
       5.169121269689e-01       5.284294615063e-02 
       5.370841403262e-01       4.870696513367e-02 
       5.586070463286e-01       4.472527710441e-02 
       5.816885093582e-01       4.098297853767e-02 
       6.065870143577e-01       3.741761163495e-02 
       6.336266466978e-01       3.400029474938e-02 
       6.632156057925e-01       3.075469050477e-02 
       6.958678637575e-01       2.764407177245e-02 
       7.322247983784e-01       2.467804436515e-02 
       7.730680193171e-01       2.184518076355e-02 
       8.193049551574e-01       1.915585866693e-02 
       8.718988013754e-01       1.662238090949e-02 
       9.317218028590e-01       1.426999946154e-02 
       9.993660906273e-01       1.212835658796e-02 
       1.075037109879e+00       1.022157790853e-02 
       1.158653485387e+00       8.559399807600e-03 
       1.250099156961e+00       7.134519068251e-03 
       1.349432400897e+00       5.925363662436e-03 
       1.456947456991e+00       4.905451707227e-03 
       1.573135110893e+00       4.047781590908e-03 
       1.698621895119e+00       3.327813179452e-03 
       1.834127512423e+00       2.724259598683e-03 
       1.980444933977e+00       2.218802934696e-03 
       2.138435191130e+00       1.796114116602e-03 
       2.309029198543e+00       1.443146644477e-03 
       2.493232376993e+00       1.149026531040e-03 
       2.692130394536e+00       9.046122552759e-04 
       2.906895533764e+00       7.023026200206e-04 
       3.138793596840e+00       5.357653574886e-04 
       3.389191365541e+00       3.997452318733e-04 
       3.659564656886e+00       2.898922914517e-04 
       3.951507021438e+00       2.025555095203e-04 
       4.266739135513e+00       1.346573317419e-04 
       4.607118942658e+00       8.353171452228e-05 
       4.974652604172e+00       4.680077636913e-05 
       5.371506323193e+00       2.225032797879e-05 
       5.800019112071e+00       7.730620793671e-06 
       6.262716578240e+00       1.101499888876e-06 
       6.762325809881e+00       2.059657439532e-07 
       7.301791449077e+00       2.910108970484e-06 
       7.884293047211e+00       7.201202505558e-06 
       8.513263804891e+00       1.133598877054e-05 
       9.192410806865e+00       1.401922767608e-05 
       9.925736871166e+00       1.455755909795e-05 
       1.071756414128e+01       1.293895155317e-05 
       1.157255956041e+01       9.767495059819e-06 
       1.249576237789e+01       6.040884274695e-06 
       1.349261385000e+01       2.797346639372e-06 
       1.456898931011e+01       7.430577482247e-07 
       1.573123279727e+01       1.529844232372e-08 
       1.698619444729e+01       2.061436096494e-07 
       1.834127086665e+01       6.528224286511e-07 
       1.980444872733e+01       8.370263220636e-07 
       2.138435183937e+01       6.396863991261e-07 
       2.309029197863e+01       2.844876489505e-07 
       2.493232376942e+01       4.641941750139e-08 
       2.692130394533e+01       2.823528302437e-09 
       2.906895533764e+01       4.105163428247e-08 
       3.138793596840e+01       4.712568107265e-08 
       3.389191365541e+01       1.847992224890e-08 
       3.659564656886e+01       8.761588343814e-10 
       3.951507021438e+01       1.586024276988e-09 
       4.266739135513e+01       2.530679844724e-09 
       4.607118942658e+01       5.335563466573e-10 
       4.974652604172e+01       1.746130036643e-11 
       5.371506323193e+01       1.180959859761e-10 
       5.800019112071e+01       1.243603833406e-11 
       6.262716578240e+01       3.959289428279e-12 
       6.762325809881e+01       1.022833519467e-12 
