# Matter power spectrum P(k) at redshift z=0
# for k=1.04775e-05 to 67.6233 h/Mpc,
# number of wavenumbers equal to 246
#    1:k (h/Mpc)              2:P (Mpc/h)^3        
       1.047750691046e-05       5.020964811492e+01 
       1.131335172503e-05       5.407049835176e+01 
       1.221587619537e-05       5.822819169090e+01 
       1.319039970183e-05       6.270562522002e+01 
       1.424266597921e-05       6.752732240874e+01 
       1.537887696968e-05       7.271977205818e+01 
       1.660572937635e-05       7.831148226369e+01 
       1.793045413292e-05       8.433311821920e+01 
       1.936085902198e-05       9.081778249765e+01 
       2.090537469327e-05       9.780106755525e+01 
       2.257310435294e-05       1.053213197896e+02 
       2.437387741694e-05       1.134197377579e+02 
       2.631830744443e-05       1.221408188976e+02 
       2.841785469300e-05       1.315324619082e+02 
       3.068489366414e-05       1.416461656022e+02 
       3.313278603720e-05       1.525374501920e+02 
       3.577595942169e-05       1.642660582130e+02 
       3.862999239199e-05       1.768963473049e+02 
       4.171170630578e-05       1.904975993788e+02 
       4.503926444729e-05       2.051444318651e+02 
       4.863227907969e-05       2.209171465404e+02 
       5.251192703764e-05       2.379022224116e+02 
       5.670107454120e-05       2.561927927163e+02 
       6.122441196689e-05       2.758890153496e+02 
       6.610859936996e-05       2.970989228052e+02 
       7.138242361596e-05       3.199385570985e+02 
       7.707696804727e-05       3.445329783741e+02 
       8.322579568497e-05       3.710167318928e+02 
       8.986514704559e-05       3.995346443699e+02 
       9.703415373875e-05       4.302425412378e+02 
       1.047750691046e-04       4.633080766321e+02 
       1.131335172503e-04       4.989116274167e+02 
       1.221587619537e-04       5.372471951331e+02 
       1.319039970183e-04       5.785234120089e+02 
       1.424266597921e-04       6.229645934473e+02 
       1.537887696968e-04       6.708118476153e+02 
       1.660572937635e-04       7.223242665906e+02 
       1.793045413292e-04       7.777801567800e+02 
       1.936085902198e-04       8.374783614722e+02 
       2.090537469327e-04       9.017396271433e+02 
       2.257310435294e-04       9.709080273503e+02 
       2.437387741694e-04       1.045352449455e+03 
       2.631830744443e-04       1.125468124174e+03 
       2.841785469300e-04       1.211678180363e+03 
       3.068489366414e-04       1.304435249983e+03 
       3.313278603720e-04       1.404223053571e+03 
       3.577595942169e-04       1.511558014476e+03 
       3.862999239199e-04       1.626990840386e+03 
       4.171170630578e-04       1.751108028592e+03 
       4.503926444729e-04       1.884533384911e+03 
       4.863227907969e-04       2.027929377907e+03 
       5.251192703764e-04       2.181998448028e+03 
       5.670107454121e-04       2.347484102077e+03 
       6.122441196689e-04       2.525171870366e+03 
       6.610859936996e-04       2.715889982595e+03 
       7.138242361596e-04       2.920509689074e+03 
       7.707696804727e-04       3.139945098514e+03 
       8.322579568497e-04       3.375152334609e+03 
       8.986514704559e-04       3.627127828360e+03 
       9.703415373875e-04       3.896905449070e+03 
       1.047750691046e-03       4.185552168933e+03 
       1.131335172503e-03       4.494162423218e+03 
       1.221587619537e-03       4.823850697078e+03 
       1.319039970183e-03       5.175742730890e+03 
       1.424266597921e-03       5.551019579336e+03 
       1.537887696968e-03       5.950788265074e+03 
       1.660572937635e-03       6.376123008738e+03 
       1.793045413292e-03       6.828073833810e+03 
       1.936085902198e-03       7.307625276787e+03 
       2.090537469327e-03       7.815671697560e+03 
       2.257310435294e-03       8.352990123266e+03 
       2.437387741694e-03       8.920210669461e+03 
       2.631830744443e-03       9.517782454008e+03 
       2.841785469300e-03       1.014593608782e+04 
       3.068489366414e-03       1.080464356355e+04 
       3.313278603720e-03       1.149357231390e+04 
       3.577595942169e-03       1.221203269219e+04 
       3.862999239199e-03       1.295891999744e+04 
       4.171170630578e-03       1.373265246951e+04 
       4.503926444729e-03       1.453110593802e+04 
       4.863227907969e-03       1.535152822252e+04 
       5.251192703764e-03       1.619059258444e+04 
       5.670107454120e-03       1.704427056232e+04 
       6.122441196689e-03       1.790750279945e+04 
       6.610859936996e-03       1.877451849364e+04 
       7.138242361596e-03       1.963860480948e+04 
       7.707696804727e-03       2.049198027598e+04 
       8.322579568496e-03       2.132586990909e+04 
       8.986514704559e-03       2.213022069278e+04 
       9.703415373875e-03       2.289396089713e+04 
       1.047750691046e-02       2.360484264850e+04 
       1.131335172503e-02       2.424932723387e+04 
       1.221587619537e-02       2.481304008063e+04 
       1.319039970183e-02       2.528058325205e+04 
       1.424266597920e-02       2.563599487095e+04 
       1.537887696964e-02       2.586313933562e+04 
       1.660572937560e-02       2.594638333877e+04 
       1.793045412207e-02       2.587121385268e+04 
       1.936085889642e-02       2.562540176882e+04 
       2.090537351881e-02       2.520046866986e+04 
       2.257309534705e-02       2.459290906146e+04 
       2.437382002240e-02       2.380595560670e+04 
       2.631799943729e-02       2.285127943545e+04 
       2.841644544598e-02       2.175021912008e+04 
       3.067933354524e-02       2.053513891113e+04 
       3.311368469821e-02       1.924941640303e+04 
       3.571840442514e-02       1.794748031921e+04 
       3.847720347390e-02       1.669030619696e+04 
       4.135335537314e-02       1.553696099727e+04 
       4.429361666563e-02       1.453056941762e+04 
       4.724366437916e-02       1.368778102873e+04 
       5.016480834039e-02       1.299872188204e+04 
       5.303989618930e-02       1.243671743439e+04 
       5.586870668205e-02       1.196926100361e+04 
       5.866042679206e-02       1.156458772936e+04 
       6.142798931504e-02       1.119480753922e+04 
       6.418496438662e-02       1.083679971253e+04 
       6.694418832236e-02       1.047228698813e+04 
       6.971731104453e-02       1.008797610363e+04 
       7.251476154108e-02       9.675721717647e+03 
       7.534587669814e-02       9.232313723542e+03 
       7.821907664495e-02       8.759498221066e+03 
       8.114203771084e-02       8.263391031989e+03 
       8.412184533139e-02       7.753768328119e+03 
       8.716512277352e-02       7.243131075058e+03 
       9.027813693913e-02       6.744992259478e+03 
       9.346688429613e-02       6.272744020209e+03 
       9.673716026122e-02       5.838112401828e+03 
       1.000946150608e-01       5.449679654636e+03 
       1.035447986307e-01       5.112234726448e+03 
       1.070931966524e-01       4.826110363406e+03 
       1.107452594180e-01       4.586803078507e+03 
       1.145064248899e-01       4.385678129434e+03 
       1.183821370656e-01       4.210208217293e+03 
       1.223778605591e-01       4.045382587136e+03 
       1.264990921707e-01       3.875685711079e+03 
       1.307513701078e-01       3.687689055077e+03 
       1.351402814485e-01       3.472825917727e+03 
       1.396714683894e-01       3.229769108979e+03 
       1.443506337875e-01       2.964905648208e+03 
       1.491835464900e-01       2.691234227161e+03 
       1.541760469368e-01       2.424932960726e+03 
       1.593340535209e-01       2.181371632520e+03 
       1.646635701934e-01       1.971083425161e+03 
       1.701706958081e-01       1.797556061936e+03 
       1.758616357070e-01       1.656313911965e+03 
       1.817427160581e-01       1.536673274507e+03 
       1.878204014651e-01       1.425414849231e+03 
       1.941013163855e-01       1.308799176582e+03 
       2.005922709060e-01       1.178854483754e+03 
       2.073002914514e-01       1.037198590694e+03 
       2.142326570343e-01       8.935304174709e+02 
       2.213969417044e-01       7.598136266517e+02 
       2.288010639201e-01       6.446172473190e+02 
       2.364533436625e-01       5.506157193703e+02 
       2.443625682390e-01       4.741333628125e+02 
       2.525380678946e-01       4.073400696485e+02 
       2.609898025770e-01       3.429468056246e+02 
       2.697284614969e-01       2.783572897880e+02 
       2.787655775073e-01       2.161486641616e+02 
       2.881136588192e-01       1.615765444903e+02 
       2.977863412019e-01       1.181084911412e+02 
       3.077985646248e-01       8.498219829986e+01 
       3.181667793367e-01       5.915336401681e+01 
       3.289091877084e-01       3.797469558971e+01 
       3.400460298905e-01       2.088858065765e+01 
       3.515999235695e-01       8.863487075128e+00 
       3.635962710278e-01       2.221797568052e+00 
       3.760637505499e-01       2.732308400674e-02 
       3.890349143014e-01       1.106631940961e+00 
       4.025469215929e-01       4.949525911711e+00 
       4.166424455447e-01       1.119769909536e+01 
       4.313708034899e-01       1.890987207448e+01 
       4.467893781976e-01       2.702729910590e+01 
       4.629654198623e-01       3.503676501747e+01 
       4.799783500912e-01       4.268325663685e+01 
       4.979227318246e-01       4.913782238000e+01 
       5.169121269689e-01       5.348076710782e+01 
       5.370841403262e-01       5.560373753784e+01 
       5.586070463286e-01       5.535001757325e+01 
       5.816885093582e-01       5.236306862936e+01 
       6.065870143577e-01       4.685388511821e+01 
       6.336266466978e-01       3.926974558267e+01 
       6.632156057925e-01       3.018161414771e+01 
       6.958678637575e-01       2.060884095741e+01 
       7.322247983784e-01       1.171292736046e+01 
       7.730680193171e-01       4.778620364444e+00 
       8.193049551574e-01       8.150670192072e-01 
       8.718988013754e-01       9.806965804755e-02 
       9.317218028590e-01       1.719861977937e+00 
       9.993660906273e-01       3.736819012015e+00 
       1.075037109879e+00       4.284856512368e+00 
       1.158653485387e+00       2.988615104011e+00 
       1.250099156961e+00       1.108394729423e+00 
       1.349432400897e+00       7.885526242396e-02 
       1.456947456991e+00       1.133061444869e-01 
       1.573135110893e+00       3.963157774638e-01 
       1.698621895119e+00       3.273004165281e-01 
       1.834127512423e+00       8.163505586183e-02 
       1.980444933977e+00       7.917338971134e-04 
       2.138435191130e+00       3.957485268089e-02 
       2.309029198543e+00       3.183394791590e-02 
       2.493232376993e+00       2.507919904311e-03 
       2.692130394536e+00       2.939295312194e-03 
       2.906895533764e+00       4.158134523378e-03 
       3.138793596840e+00       1.919465121770e-04 
       3.389191365541e+00       5.012237823952e-04 
       3.659564656886e+00       2.264503856610e-04 
       3.951507021438e+00       2.436226013515e-05 
       4.266739135513e+00       4.882637057906e-05 
       4.607118942658e+00       1.136424437610e-06 
       4.974652604172e+00       4.515324128226e-06 
       5.371506323193e+00       7.019673813889e-07 
       5.800019112071e+00       3.229165966415e-07 
       6.262716578240e+00       6.960902829612e-08 
       6.762325809881e+00       1.580684101401e-08 
       7.301791449077e+00       1.331568714960e-08 
       7.884293047211e+00       3.533894870073e-10 
       8.513263804891e+00       3.830650363310e-09 
       9.192410806865e+00       1.192524738728e-09 
       9.925736871166e+00       1.118242021789e-09 
       1.071756414128e+01       6.899029110667e-10 
       1.157255956041e+01       4.849547782780e-10 
       1.249576237789e+01       3.135932523704e-10 
       1.349261385000e+01       2.038648371725e-10 
       1.456898931011e+01       1.273779490640e-10 
       1.573123279727e+01       7.704761385855e-11 
       1.698619444729e+01       4.613398059034e-11 
       1.834127086665e+01       2.682424879485e-11 
       1.980444872733e+01       1.497460551966e-11 
       2.138435183937e+01       8.021273558902e-12 
       2.309029197863e+01       4.139746476396e-12 
       2.493232376942e+01       1.948852922835e-12 
       2.692130394533e+01       8.226329917983e-13 
       2.906895533764e+01       3.111132116627e-13 
       3.138793596840e+01       1.027376786529e-13 
       3.389191365541e+01       2.712874750772e-14 
       3.659564656886e+01       4.260558855644e-15 
       3.951507021438e+01       1.988798703856e-16 
       4.266739135513e+01       6.768265166285e-17 
       4.607118942658e+01       2.458490538894e-16 
       4.974652604172e+01       2.389669594279e-16 
       5.371506323193e+01       6.365787103472e-17 
       5.800019112071e+01       1.969918130917e-19 
       6.262716578240e+01       4.171576798083e-18 
       6.762325809881e+01       1.686880024344e-18 
