# Matter power spectrum P(k) at redshift z=99
# for k=1.04775e-05 to 66.1767 h/Mpc,
# number of wavenumbers equal to 130
#    1:k (h/Mpc)              2:P (Mpc/h)^3        
       1.047750691046e-05       7.261927681205e-03 
       1.319039970183e-05       9.069258202278e-03 
       1.660572937635e-05       1.132639106779e-02 
       2.090537469327e-05       1.414527123466e-02 
       2.631830744443e-05       1.766569584142e-02 
       3.313278603720e-05       2.206225516047e-02 
       4.171170630578e-05       2.755297766407e-02 
       5.251192703764e-05       3.441013523110e-02 
       6.610859936996e-05       4.297372172981e-02 
       8.322579568497e-05       5.366826853197e-02 
       1.047750691046e-04       6.702379873090e-02 
       1.319039970183e-04       8.370193441679e-02 
       1.660572937635e-04       1.045283355433e-01 
       2.090537469327e-04       1.305329134165e-01 
       2.631830744443e-04       1.629994506680e-01 
       3.313278603720e-04       2.035264004693e-01 
       4.171170630578e-04       2.541004744354e-01 
       5.251192703764e-04       3.171839528690e-01 
       6.610859936996e-04       3.958147256666e-01 
       8.322579568497e-04       4.937136006429e-01 
       1.047750691046e-03       6.153841636199e-01 
       1.319039970183e-03       7.661720592502e-01 
       1.660572937635e-03       9.522588016300e-01 
       2.090537469327e-03       1.180312991633e+00 
       2.631830744443e-03       1.456802684499e+00 
       3.313278603720e-03       1.786503853592e+00 
       4.171170630578e-03       2.169896194471e+00 
       5.251192703764e-03       2.599430628740e+00 
       6.610859936996e-03       3.055668701466e+00 
       8.322579568497e-03       3.505725591010e+00 
       1.047750691046e-02       3.905491562232e+00 
       1.319039970183e-02       4.200915276711e+00 
       1.660572937633e-02       4.325063326004e+00 
       2.090537453514e-02       4.210203961067e+00 
       2.631818545635e-02       3.825150075350e+00 
       3.311571692125e-02       3.229063509997e+00 
       4.113809243311e-02       2.627739181073e+00 
       4.792590854610e-02       2.280792751556e+00 
       5.284436902701e-02       2.110090116538e+00 
       5.689644391095e-02       2.003537362177e+00 
       6.051252627066e-02       1.923058230249e+00 
       6.388413457411e-02       1.852730173930e+00 
       6.711249296401e-02       1.784563130682e+00 
       7.025823437965e-02       1.714272499820e+00 
       7.336115587705e-02       1.639807457581e+00 
       7.644928796912e-02       1.560660113916e+00 
       7.954353299775e-02       1.477453250310e+00 
       8.266024078725e-02       1.391698419153e+00 
       8.581273398637e-02       1.305459921069e+00 
       8.901225918437e-02       1.221125539625e+00 
       9.226860540985e-02       1.141078447962e+00 
       9.559052048996e-02       1.067447264515e+00 
       9.898599946599e-02       1.001888181761e+00 
       1.024624891378e-01       9.453792482941e-01 
       1.060270359164e-01       8.981492158162e-01 
       1.096863943056e-01       8.596117810909e-01 
       1.134471073830e-01       8.284075968405e-01 
       1.173155669539e-01       8.024673057069e-01 
       1.212980586983e-01       7.792264431672e-01 
       1.254007961065e-01       7.559188734619e-01 
       1.296299459934e-01       7.299819145785e-01 
       1.339916477160e-01       6.995915464288e-01 
       1.384920277736e-01       6.640793540680e-01 
       1.431372111762e-01       6.241460596312e-01 
       1.479333307714e-01       5.817636960325e-01 
       1.528865355934e-01       5.396880818553e-01 
       1.580029992204e-01       5.008123335053e-01 
       1.632889290723e-01       4.673972602383e-01 
       1.687505775527e-01       4.405321509293e-01 
       1.743942559171e-01       4.198635225550e-01 
       1.802263517371e-01       4.036574978684e-01 
       1.862533508214e-01       3.893596561434e-01 
       1.924818644494e-01       3.741385131818e-01 
       1.989186627765e-01       3.558050969308e-01 
       2.055707152847e-01       3.340010217722e-01 
       2.124452391818e-01       3.102632027109e-01 
       2.195497567139e-01       2.871199116202e-01 
       2.268921624510e-01       2.668060848873e-01 
       2.344808017550e-01       2.504807791347e-01 
       2.423245618548e-01       2.378313068719e-01 
       2.504329772620e-01       2.271098474610e-01 
       2.588163516754e-01       2.161172022435e-01 
       2.674858990930e-01       2.035454174850e-01 
       2.764539076010e-01       1.895947593709e-01 
       2.857339303080e-01       1.757541973224e-01 
       2.953410092148e-01       1.636967003991e-01 
       3.052919395542e-01       1.539037050084e-01 
       3.156055844677e-01       1.455281994988e-01 
       3.263032530092e-01       1.372474122557e-01 
       3.374091587054e-01       1.282989099049e-01 
       3.489509817175e-01       1.191682210879e-01 
       3.609605657343e-01       1.108042607740e-01 
       3.734747921333e-01       1.036420544309e-01 
       3.865366902904e-01       9.713852297363e-02 
       4.001968667448e-01       9.061270515855e-02 
       4.145153713076e-01       8.403399499724e-02 
       4.295641718077e-01       7.788804256689e-02 
       4.454304922144e-01       7.233873761426e-02 
       4.622214006969e-01       6.709061488070e-02 
       4.800702491654e-01       6.188872665386e-02 
       4.991459272112e-01       5.692305985533e-02 
       5.196665217302e-01       5.231284234920e-02 
       5.419201087032e-01       4.782913119723e-02 
       5.662975451962e-01       4.348348212120e-02 
       5.933463737275e-01       3.932761343699e-02 
       6.238638458458e-01       3.524991074217e-02 
       6.590669257916e-01       3.125933562479e-02 
       7.009246080454e-01       2.728367828740e-02 
       7.528593308799e-01       2.327472320304e-02 
       8.213469537518e-01       1.914448172556e-02 
       9.196980813302e-01       1.481316529896e-02 
       1.075112183810e+00       1.034703251395e-02 
       1.322697471132e+00       6.375457199489e-03 
       1.662328205042e+00       3.701601305426e-03 
       2.092692408506e+00       2.120482077138e-03 
       2.634543445090e+00       1.203931985393e-03 
       3.316693691389e+00       6.777444287416e-04 
       4.175469971226e+00       3.782434592313e-04 
       5.256605252960e+00       2.091043462080e-04 
       6.617673932723e+00       1.142781868201e-04 
       8.331157880872e+00       6.148543812503e-05 
       1.048830636590e+01       3.231175276425e-05 
       1.320399541071e+01       1.634020931316e-05 
       1.662284535976e+01       7.732983983351e-06 
       2.092692243973e+01       3.247484612648e-06 
       2.634543445002e+01       1.087833334335e-06 
       3.316693691389e+01       2.273689939654e-07 
       4.175469971226e+01       1.222081065222e-08 
       5.256605252960e+01       1.691159462045e-09 
       6.617673932723e+01       4.231349635971e-10 
