# Matter power spectrum P(k) at redshift z=99
# for k=1.04775e-05 to 66.1767 h/Mpc,
# number of wavenumbers equal to 130
#    1:k (h/Mpc)              2:P (Mpc/h)^3        
       1.047750691046e-05       7.261927680862e-03 
       1.319039970183e-05       9.069258201849e-03 
       1.660572937635e-05       1.132639106725e-02 
       2.090537469327e-05       1.414527123399e-02 
       2.631830744443e-05       1.766569584058e-02 
       3.313278603720e-05       2.206225515942e-02 
       4.171170630578e-05       2.755297766277e-02 
       5.251192703764e-05       3.441013522947e-02 
       6.610859936996e-05       4.297372172778e-02 
       8.322579568497e-05       5.366826852944e-02 
       1.047750691046e-04       6.702379872774e-02 
       1.319039970183e-04       8.370193441286e-02 
       1.660572937635e-04       1.045283355384e-01 
       2.090537469327e-04       1.305329134104e-01 
       2.631830744443e-04       1.629994506605e-01 
       3.313278603720e-04       2.035264004601e-01 
       4.171170630578e-04       2.541004744243e-01 
       5.251192703764e-04       3.171839528557e-01 
       6.610859936996e-04       3.958147256513e-01 
       8.322579568497e-04       4.937136006274e-01 
       1.047750691046e-03       6.153841636041e-01 
       1.319039970183e-03       7.661720592874e-01 
       1.660572937635e-03       9.522588016482e-01 
       2.090537469327e-03       1.180312991699e+00 
       2.631830744443e-03       1.456802684686e+00 
       3.313278603720e-03       1.786503854038e+00 
       4.171170630578e-03       2.169896194992e+00 
       5.251192703764e-03       2.599430630721e+00 
       6.610859936996e-03       3.055668715756e+00 
       8.322579568497e-03       3.505725598526e+00 
       1.047750691046e-02       3.905491038807e+00 
       1.319039970183e-02       4.200915380481e+00 
       1.660572937633e-02       4.325062135620e+00 
       2.090537453514e-02       4.210202294794e+00 
       2.631818545635e-02       3.825158381050e+00 
       3.311571692125e-02       3.229067854231e+00 
       4.113809243311e-02       2.627735186771e+00 
       4.792590854610e-02       2.280793196421e+00 
       5.284436902701e-02       2.110083175695e+00 
       5.689644391095e-02       2.003539197169e+00 
       6.051252627066e-02       1.923058717115e+00 
       6.388413457411e-02       1.852731141329e+00 
       6.711249296401e-02       1.784565719845e+00 
       7.025823437965e-02       1.714279317545e+00 
       7.336115587705e-02       1.639813591676e+00 
       7.644928796912e-02       1.560660185216e+00 
       7.954353299775e-02       1.477457866304e+00 
       8.266024078725e-02       1.391697909581e+00 
       8.581273398637e-02       1.305461427542e+00 
       8.901225918437e-02       1.221128081402e+00 
       9.226860540985e-02       1.141079111398e+00 
       9.559052048996e-02       1.067454086096e+00 
       9.898599946599e-02       1.001890247598e+00 
       1.024624891378e-01       9.453821576522e-01 
       1.060270359164e-01       8.981495483981e-01 
       1.096863943056e-01       8.596131678458e-01 
       1.134471073830e-01       8.284050191877e-01 
       1.173155669539e-01       8.024661045685e-01 
       1.212980586983e-01       7.792292467331e-01 
       1.254007961065e-01       7.559179291629e-01 
       1.296299459934e-01       7.299822425370e-01 
       1.339916477160e-01       6.995927601497e-01 
       1.384920277736e-01       6.640781396440e-01 
       1.431372111762e-01       6.241464953061e-01 
       1.479333307714e-01       5.817645182715e-01 
       1.528865355934e-01       5.396930134777e-01 
       1.580029992204e-01       5.008134909312e-01 
       1.632889290723e-01       4.673988147021e-01 
       1.687505775527e-01       4.405343552701e-01 
       1.743942559171e-01       4.198662021582e-01 
       1.802263517371e-01       4.036594426019e-01 
       1.862533508214e-01       3.893592861307e-01 
       1.924818644494e-01       3.741346717807e-01 
       1.989186627765e-01       3.558019050340e-01 
       2.055707152847e-01       3.339999035452e-01 
       2.124452391818e-01       3.102660057880e-01 
       2.195497567139e-01       2.871224234304e-01 
       2.268921624510e-01       2.668083669095e-01 
       2.344808017550e-01       2.504836008362e-01 
       2.423245618548e-01       2.378336718789e-01 
       2.504329772620e-01       2.271128102550e-01 
       2.588163516754e-01       2.161169859621e-01 
       2.674858990930e-01       2.035457403391e-01 
       2.764539076010e-01       1.895972575601e-01 
       2.857339303080e-01       1.757572227115e-01 
       2.953410092148e-01       1.636995001838e-01 
       3.052919395542e-01       1.539063109768e-01 
       3.156055844677e-01       1.455315397383e-01 
       3.263032530092e-01       1.372505695872e-01 
       3.374091587054e-01       1.283022048118e-01 
       3.489509817175e-01       1.191714017113e-01 
       3.609605657343e-01       1.108071264795e-01 
       3.734747921333e-01       1.036451414184e-01 
       3.865366902904e-01       9.714117190479e-02 
       4.001968667448e-01       9.061563845629e-02 
       4.145153713076e-01       8.403707829271e-02 
       4.295641718077e-01       7.789138291916e-02 
       4.454304922144e-01       7.234168276946e-02 
       4.622214006969e-01       6.709393275385e-02 
       4.800702491654e-01       6.189198993634e-02 
       4.991459272112e-01       5.692634250574e-02 
       5.196665217302e-01       5.231623003171e-02 
       5.419201087032e-01       4.783278182157e-02 
       5.662975451962e-01       4.348691239729e-02 
       5.933463737275e-01       3.933111276723e-02 
       6.238638458458e-01       3.525348836956e-02 
       6.590669257916e-01       3.126296500108e-02 
       7.009246080454e-01       2.728733453730e-02 
       7.528593308799e-01       2.327839485488e-02 
       8.213469537518e-01       1.914826516927e-02 
       9.196980813302e-01       1.481703168423e-02 
       1.075112183810e+00       1.035091744470e-02 
       1.322697471132e+00       6.379474538715e-03 
       1.662328205042e+00       3.705665641545e-03 
       2.092692408506e+00       2.124531138730e-03 
       2.634543445090e+00       1.207959275895e-03 
       3.316693691389e+00       6.817071956615e-04 
       4.175469971226e+00       3.821197680211e-04 
       5.256605252960e+00       2.128742545083e-04 
       6.617673932723e+00       1.179208372502e-04 
       8.331157880872e+00       6.498497077159e-05 
       1.048830636590e+01       3.564317706332e-05 
       1.320399541071e+01       1.946393969445e-05 
       1.662284535976e+01       1.058571186017e-05 
       2.092692243973e+01       5.735361874918e-06 
       2.634543445002e+01       3.096268924223e-06 
       3.316693691389e+01       1.665802575539e-06 
       4.175469971226e+01       8.931785961386e-07 
       5.256605252960e+01       4.772551228558e-07 
       6.617673932723e+01       2.540621030665e-07 
