# Matter power spectrum P(k) at redshift z=99
# for k=1.04775e-05 to 67.6233 h/Mpc,
# number of wavenumbers equal to 246
#    1:k (h/Mpc)              2:P (Mpc/h)^3        
       1.047750691046e-05       7.261927680870e-03 
       1.131335172503e-05       7.820331652441e-03 
       1.221587619537e-05       8.421675995464e-03 
       1.319039970183e-05       9.069258201859e-03 
       1.424266597921e-05       9.766638412145e-03 
       1.537887696968e-05       1.051764070802e-02 
       1.660572937635e-05       1.132639106727e-02 
       1.793045413292e-05       1.219733232716e-02 
       1.936085902198e-05       1.313524225780e-02 
       2.090537469327e-05       1.414527123401e-02 
       2.257310435294e-05       1.523296273825e-02 
       2.437387741694e-05       1.640429446290e-02 
       2.631830744443e-05       1.766569584060e-02 
       2.841785469300e-05       1.902408737007e-02 
       3.068489366414e-05       2.048692972775e-02 
       3.313278603720e-05       2.206225515945e-02 
       3.577595942169e-05       2.375870707441e-02 
       3.862999239199e-05       2.558560730205e-02 
       4.171170630578e-05       2.755297766280e-02 
       4.503926444729e-05       2.967161930477e-02 
       4.863227907969e-05       3.195316454237e-02 
       5.251192703764e-05       3.441013522951e-02 
       5.670107454120e-05       3.705601726472e-02 
       6.122441196689e-05       3.990533417801e-02 
       6.610859936996e-05       4.297372172783e-02 
       7.138242361596e-05       4.627802146620e-02 
       7.707696804727e-05       4.983636199470e-02 
       8.322579568497e-05       5.366826852950e-02 
       8.986514704559e-05       5.779476400727e-02 
       9.703415373875e-05       6.223848250517e-02 
       1.047750691046e-04       6.702379872782e-02 
       1.131335172503e-04       7.217695161072e-02 
       1.221587619537e-04       7.772619081854e-02 
       1.319039970183e-04       8.370193441296e-02 
       1.424266597921e-04       9.013692517150e-02 
       1.537887696968e-04       9.706641252914e-02 
       1.660572937635e-04       1.045283355385e-01 
       1.793045413292e-04       1.125635350268e-01 
       1.936085902198e-04       1.212159616260e-01 
       2.090537469327e-04       1.305329134105e-01 
       2.257310435294e-04       1.405652847713e-01 
       2.437387741694e-04       1.513678304153e-01 
       2.631830744443e-04       1.629994506607e-01 
       2.841785469300e-04       1.755234923095e-01 
       3.068489366414e-04       1.890080672427e-01 
       3.313278603720e-04       2.035264004604e-01 
       3.577595942169e-04       2.191571806016e-01 
       3.862999239199e-04       2.359849440107e-01 
       4.171170630578e-04       2.541004744246e-01 
       4.503926444729e-04       2.736012083192e-01 
       4.863227907969e-04       2.945916794103e-01 
       5.251192703764e-04       3.171839528561e-01 
       5.670107454121e-04       3.414980767638e-01 
       6.122441196689e-04       3.676625417015e-01 
       6.610859936996e-04       3.958147256517e-01 
       7.138242361596e-04       4.261013289363e-01 
       7.707696804727e-04       4.586787797355e-01 
       8.322579568497e-04       4.937136006287e-01 
       8.986514704559e-04       5.313826807053e-01 
       9.703415373875e-04       5.718734978238e-01 
       1.047750691046e-03       6.153841636044e-01 
       1.131335172503e-03       6.621233246499e-01 
       1.221587619537e-03       7.123098228003e-01 
       1.319039970183e-03       7.661720592241e-01 
       1.424266597921e-03       8.239546306466e-01 
       1.537887696968e-03       8.859011182850e-01 
       1.660572937635e-03       9.522588016476e-01 
       1.793045413292e-03       1.023280100901e+00 
       1.936085902198e-03       1.099216305739e+00 
       2.090537469327e-03       1.180312991699e+00 
       2.257310435294e-03       1.266804117184e+00 
       2.437387741694e-03       1.358904854832e+00 
       2.631830744443e-03       1.456802684681e+00 
       2.841785469300e-03       1.560646892150e+00 
       3.068489366414e-03       1.670536064235e+00 
       3.313278603720e-03       1.786503854034e+00 
       3.577595942169e-03       1.908502932754e+00 
       3.862999239199e-03       2.036387732795e+00 
       4.171170630578e-03       2.169896195198e+00 
       4.503926444729e-03       2.308631881325e+00 
       4.863227907969e-03       2.452047293415e+00 
       5.251192703764e-03       2.599430630663e+00 
       5.670107454120e-03       2.749896934487e+00 
       6.122441196689e-03       2.902386516176e+00 
       6.610859936996e-03       3.055668703374e+00 
       7.138242361596e-03       3.208356464492e+00 
       7.707696804727e-03       3.358923896102e+00 
       8.322579568496e-03       3.505724955047e+00 
       8.986514704559e-03       3.647009364184e+00 
       9.703415373875e-03       3.780923307315e+00 
       1.047750691046e-02       3.905491320433e+00 
       1.131335172503e-02       4.018588530727e+00 
       1.221587619537e-02       4.117901584599e+00 
       1.319039970183e-02       4.200915281472e+00 
       1.424266597920e-02       4.264942440966e+00 
       1.537887696964e-02       4.307214432501e+00 
       1.660572937560e-02       4.325059184842e+00 
       1.793045412207e-02       4.316057887591e+00 
       1.936085889642e-02       4.278230099604e+00 
       2.090537351881e-02       4.210206218441e+00 
       2.257309534705e-02       4.111419096539e+00 
       2.437382002240e-02       3.982421924347e+00 
       2.631799943729e-02       3.825171378555e+00 
       2.841644544598e-02       3.643281959062e+00 
       3.067933354524e-02       3.442200421754e+00 
       3.311368469821e-02       3.229238853846e+00 
       3.571840442514e-02       3.013510246158e+00 
       3.847720347390e-02       2.805283634744e+00 
       4.135335537314e-02       2.614408604148e+00 
       4.429361666563e-02       2.448139071149e+00 
       4.724366437916e-02       2.309235127044e+00 
       5.016480834039e-02       2.196109388975e+00 
       5.303989618930e-02       2.104366167979e+00 
       5.586870668205e-02       2.028464831211e+00 
       5.866042679206e-02       1.963157894341e+00 
       6.142798931504e-02       1.903782755519e+00 
       6.418496438662e-02       1.846481985997e+00 
       6.694418832236e-02       1.788195302765e+00 
       6.971731104453e-02       1.726712161551e+00 
       7.251476154108e-02       1.660651762009e+00 
       7.534587669814e-02       1.589470087641e+00 
       7.821907664495e-02       1.513437588493e+00 
       8.114203771084e-02       1.433567971731e+00 
       8.412184533139e-02       1.351491727789e+00 
       8.716512277352e-02       1.269271062403e+00 
       9.027813693913e-02       1.189191859439e+00 
       9.346688429613e-02       1.113501860954e+00 
       9.673716026122e-02       1.044173785521e+00 
       1.000946150608e-01       9.827057081322e-01 
       1.035447986307e-01       9.299383855122e-01 
       1.070931966524e-01       8.859592717264e-01 
       1.107452594180e-01       8.500717436308e-01 
       1.145064248899e-01       8.208040279229e-01 
       1.183821370656e-01       7.960239459539e-01 
       1.223778605591e-01       7.731450302196e-01 
       1.264990921707e-01       7.494494761123e-01 
       1.307513701078e-01       7.225563628317e-01 
       1.351402814485e-01       6.909063270343e-01 
       1.396714683894e-01       6.541800464154e-01 
       1.443506337875e-01       6.134253762567e-01 
       1.491835464900e-01       5.708660983883e-01 
       1.541760469368e-01       5.293639824532e-01 
       1.593340535209e-01       4.917100666611e-01 
       1.646635701934e-01       4.599195438830e-01 
       1.701706958081e-01       4.347274975411e-01 
       1.758616357070e-01       4.154064680419e-01 
       1.817427160581e-01       3.999370099895e-01 
       1.878204014651e-01       3.856817644012e-01 
       1.941013163855e-01       3.698090197690e-01 
       2.005922709060e-01       3.505450514376e-01 
       2.073002914514e-01       3.280426617448e-01 
       2.142326570343e-01       3.042130521163e-01 
       2.213969417044e-01       2.816110081468e-01 
       2.288010639201e-01       2.622557540705e-01 
       2.364533436625e-01       2.469600615687e-01 
       2.443625682390e-01       2.350118972283e-01 
       2.525380678946e-01       2.244158415280e-01 
       2.609898025770e-01       2.130913251674e-01 
       2.697284614969e-01       2.000994268409e-01 
       2.787655775073e-01       1.860177952310e-01 
       2.881136588192e-01       1.725148357685e-01 
       2.977863412019e-01       1.610637501282e-01 
       3.077985646248e-01       1.517587483908e-01 
       3.181667793367e-01       1.435572128732e-01 
       3.289091877084e-01       1.351789382490e-01 
       3.400460298905e-01       1.261612552052e-01 
       3.515999235695e-01       1.171990296139e-01 
       3.635962710278e-01       1.091738638423e-01 
       3.760637505499e-01       1.023061920433e-01 
       3.890349143014e-01       9.593437528961e-02 
       4.025469215929e-01       8.950428204636e-02 
       4.166424455447e-01       8.310815319886e-02 
       4.313708034899e-01       7.721169023274e-02 
       4.467893781976e-01       7.189664655984e-02 
       4.629654198623e-01       6.686491689322e-02 
       4.799783500912e-01       6.191332393321e-02 
       4.979227318246e-01       5.721773579477e-02 
       5.169121269689e-01       5.289799859675e-02 
       5.370841403262e-01       4.876464197405e-02 
       5.586070463286e-01       4.478564127914e-02 
       5.816885093582e-01       4.104619248800e-02 
       6.065870143577e-01       3.748401619223e-02 
       6.336266466978e-01       3.407023098784e-02 
       6.632156057925e-01       3.082823081129e-02 
       6.958678637575e-01       2.772155044422e-02 
       7.322247983784e-01       2.475984544860e-02 
       7.730680193171e-01       2.193191861858e-02 
       8.193049551574e-01       1.924790939307e-02 
       8.718988013754e-01       1.672048252614e-02 
       9.317218028590e-01       1.437478414382e-02 
       9.993660906273e-01       1.224052293655e-02 
       1.075037109879e+00       1.034161873528e-02 
       1.158653485387e+00       8.687870015195e-03 
       1.250099156961e+00       7.271826658249e-03 
       1.349432400897e+00       6.071729593923e-03 
       1.456947456991e+00       5.060922673762e-03 
       1.573135110893e+00       4.212421294045e-03 
       1.698621895119e+00       3.501521028135e-03 
       1.834127512423e+00       2.906757498708e-03 
       1.980444933977e+00       2.409697423827e-03 
       2.138435191130e+00       1.994751174976e-03 
       2.309029198543e+00       1.648698344337e-03 
       2.493232376993e+00       1.360352913282e-03 
       2.692130394536e+00       1.120319800075e-03 
       2.906895533764e+00       9.206521160855e-04 
       3.138793596840e+00       7.546915357801e-04 
       3.389191365541e+00       6.168545247856e-04 
       3.659564656886e+00       5.024588428448e-04 
       3.951507021438e+00       4.075874078818e-04 
       4.266739135513e+00       3.289858570676e-04 
       4.607118942658e+00       2.639307257934e-04 
       4.974652604172e+00       2.101667303773e-04 
       5.371506323193e+00       1.658200535570e-04 
       5.800019112071e+00       1.293452948221e-04 
       6.262716578240e+00       9.946306916442e-05 
       6.762325809881e+00       7.512147078930e-05 
       7.301791449077e+00       5.545440036608e-05 
       7.884293047211e+00       3.974892777414e-05 
       8.513263804891e+00       2.740986223791e-05 
       9.192410806865e+00       1.794093616139e-05 
       9.925736871166e+00       1.091383418317e-05 
       1.071756414128e+01       5.952685394225e-06 
       1.157255956041e+01       2.711109389364e-06 
       1.249576237789e+01       8.613505469080e-07 
       1.349261385000e+01       8.434976226437e-08 
       1.456898931011e+01       6.721187784870e-08 
       1.573123279727e+01       5.085447709470e-07 
       1.698619444729e+01       1.131312299309e-06 
       1.834127086665e+01       1.702245114738e-06 
       1.980444872733e+01       2.053388660833e-06 
       2.138435183937e+01       2.100821929197e-06 
       2.309029197863e+01       1.851645814175e-06 
       2.493232376942e+01       1.393644936903e-06 
       2.692130394533e+01       8.642713010120e-07 
       2.906895533764e+01       4.044546543984e-07 
       3.138793596840e+01       1.104566763148e-07 
       3.389191365541e+01       2.865867601984e-09 
       3.659564656886e+01       2.843001805300e-08 
       3.951507021438e+01       9.632696903184e-08 
       4.266739135513e+01       1.305659660859e-07 
       4.607118942658e+01       1.073200972105e-07 
       4.974652604172e+01       5.367941693603e-08 
       5.371506323193e+01       1.167591774387e-08 
       5.800019112071e+01       3.154998122827e-11 
       6.262716578240e+01       6.287321108417e-09 
       6.762325809881e+01       9.994173239526e-09 
