# Matter power spectrum P(k) at redshift z=0
# for k=1.04775e-05 to 66.1767 h/Mpc,
# number of wavenumbers equal to 130
#    1:k (h/Mpc)              2:P (Mpc/h)^3        
       1.047750691046e-05       5.020964811312e+01 
       1.319039970183e-05       6.270562594779e+01 
       1.660572937635e-05       7.831147247912e+01 
       2.090537469327e-05       9.780108069296e+01 
       2.631830744443e-05       1.221408203809e+02 
       3.313278603720e-05       1.525374501932e+02 
       4.171170630578e-05       1.904975994010e+02 
       5.251192703764e-05       2.379022224249e+02 
       6.610859936996e-05       2.970989227881e+02 
       8.322579568497e-05       3.710167318946e+02 
       1.047750691046e-04       4.633080766742e+02 
       1.319039970183e-04       5.785234129339e+02 
       1.660572937635e-04       7.223242666092e+02 
       2.090537469327e-04       9.017396271824e+02 
       2.631830744443e-04       1.125468123750e+03 
       3.313278603720e-04       1.404223053681e+03 
       4.171170630578e-04       1.751108028790e+03 
       5.251192703764e-04       2.181998448133e+03 
       6.610859936996e-04       2.715889983592e+03 
       8.322579568497e-04       3.375152337134e+03 
       1.047750691046e-03       4.185552174306e+03 
       1.319039970183e-03       5.175742742686e+03 
       1.660572937635e-03       6.376123051778e+03 
       2.090537469327e-03       7.815671865962e+03 
       2.631830744443e-03       9.517783069112e+03 
       3.313278603720e-03       1.149357460346e+04 
       4.171170630578e-03       1.373266007787e+04 
       5.251192703764e-03       1.619063614560e+04 
       6.610859936996e-03       1.877460426628e+04 
       8.322579568497e-03       2.132607231804e+04 
       1.047750691046e-02       2.360548188731e+04 
       1.319039970183e-02       2.528218700565e+04 
       1.660572937633e-02       2.595026082774e+04 
       2.090537453514e-02       2.520933318724e+04 
       2.631818545635e-02       2.287035620119e+04 
       3.311571692125e-02       1.928624627627e+04 
       4.113809243311e-02       1.568428614208e+04 
       4.792590854610e-02       1.361063301441e+04 
       5.284436902701e-02       1.259130389127e+04 
       5.689644391095e-02       1.195556133179e+04 
       6.051252627066e-02       1.147546809282e+04 
       6.388413457411e-02       1.105589420752e+04 
       6.711249296401e-02       1.064900834849e+04 
       7.025823437965e-02       1.022929510009e+04 
       7.336115587705e-02       9.784539413860e+03 
       7.644928796912e-02       9.311667518198e+03 
       7.954353299775e-02       8.814538557382e+03 
       8.266024078725e-02       8.302109951722e+03 
       8.581273398637e-02       7.786963167074e+03 
       8.901225918437e-02       7.283176783037e+03 
       9.226860540985e-02       6.805166274197e+03 
       9.559052048996e-02       6.365619537337e+03 
       9.898599946599e-02       5.974397209593e+03 
       1.024624891378e-01       5.637314147629e+03 
       1.060270359164e-01       5.355766099252e+03 
       1.096863943056e-01       5.126247861553e+03 
       1.134471073830e-01       4.940476231809e+03 
       1.173155669539e-01       4.786165544083e+03 
       1.212980586983e-01       4.647929641197e+03 
       1.254007961065e-01       4.509147470726e+03 
       1.296299459934e-01       4.354546219838e+03 
       1.339916477160e-01       4.173219544754e+03 
       1.384920277736e-01       3.961163842593e+03 
       1.431372111762e-01       3.722679632005e+03 
       1.479333307714e-01       3.469551986165e+03 
       1.528865355934e-01       3.218344550596e+03 
       1.580029992204e-01       2.986295818303e+03 
       1.632889290723e-01       2.786973385296e+03 
       1.687505775527e-01       2.626831571105e+03 
       1.743942559171e-01       2.503755438391e+03 
       1.802263517371e-01       2.407344325885e+03 
       1.862533508214e-01       2.322252084437e+03 
       1.924818644494e-01       2.231551915155e+03 
       1.989186627765e-01       2.122190356599e+03 
       2.055707152847e-01       1.992026229085e+03 
       2.124452391818e-01       1.850322876958e+03 
       2.195497567139e-01       1.712184925636e+03 
       2.268921624510e-01       1.590987299026e+03 
       2.344808017550e-01       1.493669832026e+03 
       2.423245618548e-01       1.418309075927e+03 
       2.504329772620e-01       1.354462999637e+03 
       2.588163516754e-01       1.288936320666e+03 
       2.674858990930e-01       1.213938204743e+03 
       2.764539076010e-01       1.130695140881e+03 
       2.857339303080e-01       1.048098727930e+03 
       2.953410092148e-01       9.761823478851e+02 
       3.052919395542e-01       9.178081073069e+02 
       3.156055844677e-01       8.678986319549e+02 
       3.263032530092e-01       8.185260271561e+02 
       3.374091587054e-01       7.651451415253e+02 
       3.489509817175e-01       7.106707400298e+02 
       3.609605657343e-01       6.607855127118e+02 
       3.734747921333e-01       6.180864822345e+02 
       3.865366902904e-01       5.793124706734e+02 
       4.001968667448e-01       5.403919550897e+02 
       4.145153713076e-01       5.011513071846e+02 
       4.295641718077e-01       4.644985862902e+02 
       4.454304922144e-01       4.314071240875e+02 
       4.622214006969e-01       4.001146873872e+02 
       4.800702491654e-01       3.690896650182e+02 
       4.991459272112e-01       3.394772277499e+02 
       5.196665217302e-01       3.119852358423e+02 
       5.419201087032e-01       2.852467742000e+02 
       5.662975451962e-01       2.593309522187e+02 
       5.933463737275e-01       2.345484378761e+02 
       6.238638458458e-01       2.102307508906e+02 
       6.590669257916e-01       1.864337130081e+02 
       7.009246080454e-01       1.627254632103e+02 
       7.528593308799e-01       1.388187042467e+02 
       8.213469537518e-01       1.141883337397e+02 
       9.196980813302e-01       8.835907145008e+01 
       1.075112183810e+00       6.172640457974e+01 
       1.322697471132e+00       3.804301871056e+01 
       1.662328205042e+00       2.209799386090e+01 
       2.092692408506e+00       1.266922423815e+01 
       2.634543445090e+00       7.203327100662e+00 
       3.316693691389e+00       4.065153405892e+00 
       4.175469971226e+00       2.278616491150e+00 
       5.256605252960e+00       1.269355258477e+00 
       6.617673932723e+00       7.031351430265e-01 
       8.331157880872e+00       3.874769292877e-01 
       1.048830636590e+01       2.125099086771e-01 
       1.320399541071e+01       1.160357041610e-01 
       1.662284535976e+01       6.309888480214e-02 
       2.092692243973e+01       3.417956542389e-02 
       2.634543445002e+01       1.844607293578e-02 
       3.316693691389e+01       9.919163327459e-03 
       4.175469971226e+01       5.314579752211e-03 
       5.256605252960e+01       2.836671858277e-03 
       6.617673932723e+01       1.507700039528e-03 
