# Matter power spectrum P(k) at redshift z=0
# for k=1.04775e-05 to 66.1767 h/Mpc,
# number of wavenumbers equal to 130
#    1:k (h/Mpc)              2:P (Mpc/h)^3        
       1.047750691046e-05       5.020964811312e+01 
       1.319039970183e-05       6.270562594785e+01 
       1.660572937635e-05       7.831147247912e+01 
       2.090537469327e-05       9.780108069294e+01 
       2.631830744443e-05       1.221408203809e+02 
       3.313278603720e-05       1.525374501932e+02 
       4.171170630578e-05       1.904975994010e+02 
       5.251192703764e-05       2.379022224249e+02 
       6.610859936996e-05       2.970989227882e+02 
       8.322579568497e-05       3.710167318946e+02 
       1.047750691046e-04       4.633080766742e+02 
       1.319039970183e-04       5.785234129342e+02 
       1.660572937635e-04       7.223242666092e+02 
       2.090537469327e-04       9.017396271824e+02 
       2.631830744443e-04       1.125468123750e+03 
       3.313278603720e-04       1.404223053681e+03 
       4.171170630578e-04       1.751108028790e+03 
       5.251192703764e-04       2.181998448133e+03 
       6.610859936996e-04       2.715889983593e+03 
       8.322579568497e-04       3.375152337134e+03 
       1.047750691046e-03       4.185552174308e+03 
       1.319039970183e-03       5.175742740671e+03 
       1.660572937635e-03       6.376123051779e+03 
       2.090537469327e-03       7.815671853792e+03 
       2.631830744443e-03       9.517783069112e+03 
       3.313278603720e-03       1.149357460346e+04 
       4.171170630578e-03       1.373266009514e+04 
       5.251192703764e-03       1.619063614559e+04 
       6.610859936996e-03       1.877460420991e+04 
       8.322579568497e-03       2.132606833173e+04 
       1.047750691046e-02       2.360547936902e+04 
       1.319039970183e-02       2.528218713977e+04 
       1.660572937633e-02       2.595026880008e+04 
       2.090537453514e-02       2.520935689897e+04 
       2.631818545635e-02       2.287033233496e+04 
       3.311571692125e-02       1.928627623440e+04 
       4.113809243311e-02       1.568425223105e+04 
       4.792590854610e-02       1.361063724947e+04 
       5.284436902701e-02       1.259131186302e+04 
       5.689644391095e-02       1.195557299791e+04 
       6.051252627066e-02       1.147546412494e+04 
       6.388413457411e-02       1.105590477032e+04 
       6.711249296401e-02       1.064898288216e+04 
       7.025823437965e-02       1.022928997545e+04 
       7.336115587705e-02       9.784519209291e+03 
       7.644928796912e-02       9.311650947714e+03 
       7.954353299775e-02       8.814536445169e+03 
       8.266024078725e-02       8.302122833882e+03 
       8.581273398637e-02       7.786928887012e+03 
       8.901225918437e-02       7.283175883680e+03 
       9.226860540985e-02       6.805156932950e+03 
       9.559052048996e-02       6.365651399706e+03 
       9.898599946599e-02       5.974401345098e+03 
       1.024624891378e-01       5.637309145335e+03 
       1.060270359164e-01       5.355760017578e+03 
       1.096863943056e-01       5.126236082208e+03 
       1.134471073830e-01       4.940474898865e+03 
       1.173155669539e-01       4.786173512806e+03 
       1.212980586983e-01       4.647934112241e+03 
       1.254007961065e-01       4.509149117338e+03 
       1.296299459934e-01       4.354555368211e+03 
       1.339916477160e-01       4.173216344496e+03 
       1.384920277736e-01       3.961164971805e+03 
       1.431372111762e-01       3.722685390643e+03 
       1.479333307714e-01       3.469552576736e+03 
       1.528865355934e-01       3.218343869464e+03 
       1.580029992204e-01       2.986288287577e+03 
       1.632889290723e-01       2.786966399887e+03 
       1.687505775527e-01       2.626827687288e+03 
       1.743942559171e-01       2.503756977958e+03 
       1.802263517371e-01       2.407345698406e+03 
       1.862533508214e-01       2.322248956691e+03 
       1.924818644494e-01       2.231547453337e+03 
       1.989186627765e-01       2.122190737354e+03 
       2.055707152847e-01       1.992027147475e+03 
       2.124452391818e-01       1.850322432684e+03 
       2.195497567139e-01       1.712177744772e+03 
       2.268921624510e-01       1.590988725194e+03 
       2.344808017550e-01       1.493666129208e+03 
       2.423245618548e-01       1.418311060511e+03 
       2.504329772620e-01       1.354467941158e+03 
       2.588163516754e-01       1.288935171652e+03 
       2.674858990930e-01       1.213938094871e+03 
       2.764539076010e-01       1.130694706070e+03 
       2.857339303080e-01       1.048100570102e+03 
       2.953410092148e-01       9.761855318745e+02 
       3.052919395542e-01       9.178103631468e+02 
       3.156055844677e-01       8.678964723775e+02 
       3.263032530092e-01       8.185261915164e+02 
       3.374091587054e-01       7.651472702237e+02 
       3.489509817175e-01       7.106704836045e+02 
       3.609605657343e-01       6.607864348813e+02 
       3.734747921333e-01       6.180877918039e+02 
       3.865366902904e-01       5.793108879804e+02 
       4.001968667448e-01       5.403931269692e+02 
       4.145153713076e-01       5.011519966428e+02 
       4.295641718077e-01       4.645018019323e+02 
       4.454304922144e-01       4.314091007888e+02 
       4.622214006969e-01       4.001139696945e+02 
       4.800702491654e-01       3.690891940037e+02 
       4.991459272112e-01       3.394770472689e+02 
       5.196665217302e-01       3.119857187148e+02 
       5.419201087032e-01       2.852468724075e+02 
       5.662975451962e-01       2.593314495357e+02 
       5.933463737275e-01       2.345482706034e+02 
       6.238638458458e-01       2.102307824979e+02 
       6.590669257916e-01       1.864334272848e+02 
       7.009246080454e-01       1.627251980038e+02 
       7.528593308799e-01       1.388183063372e+02 
       8.213469537518e-01       1.141879296614e+02 
       9.196980813302e-01       8.835933136865e+01 
       1.075112183810e+00       6.172609369164e+01 
       1.322697471132e+00       3.804282716067e+01 
       1.662328205042e+00       2.209793706215e+01 
       2.092692408506e+00       1.266923503980e+01 
       2.634543445090e+00       7.203354601359e+00 
       3.316693691389e+00       4.065139755369e+00 
       4.175469971226e+00       2.278643167267e+00 
       5.256605252960e+00       1.269361143996e+00 
       6.617673932723e+00       7.031383660317e-01 
       8.331157880872e+00       3.874798434489e-01 
       1.048830636590e+01       2.125111499407e-01 
       1.320399541071e+01       1.160365534196e-01 
       1.662284535976e+01       6.309907655545e-02 
       2.092692243973e+01       3.417949926374e-02 
       2.634543445002e+01       1.844623040843e-02 
       3.316693691389e+01       9.919237364195e-03 
       4.175469971226e+01       5.314669529535e-03 
       5.256605252960e+01       2.836697569417e-03 
       6.617673932723e+01       1.507685251657e-03 
