# Matter power spectrum P(k) at redshift z=99
# for k=1.04775e-05 to 67.6233 h/Mpc,
# number of wavenumbers equal to 246
#    1:k (h/Mpc)              2:P (Mpc/h)^3        
       1.047750691046e-05       7.261927681430e-03 
       1.131335172503e-05       7.820331653044e-03 
       1.221587619537e-05       8.421675996113e-03 
       1.319039970183e-05       9.069258202559e-03 
       1.424266597921e-05       9.766638412898e-03 
       1.537887696968e-05       1.051764070883e-02 
       1.660572937635e-05       1.132639106814e-02 
       1.793045413292e-05       1.219733232810e-02 
       1.936085902198e-05       1.313524225882e-02 
       2.090537469327e-05       1.414527123510e-02 
       2.257310435294e-05       1.523296273942e-02 
       2.437387741694e-05       1.640429446417e-02 
       2.631830744443e-05       1.766569584196e-02 
       2.841785469300e-05       1.902408737154e-02 
       3.068489366414e-05       2.048692972933e-02 
       3.313278603720e-05       2.206225516115e-02 
       3.577595942169e-05       2.375870707624e-02 
       3.862999239199e-05       2.558560730403e-02 
       4.171170630578e-05       2.755297766492e-02 
       4.503926444729e-05       2.967161930707e-02 
       4.863227907969e-05       3.195316454483e-02 
       5.251192703764e-05       3.441013523217e-02 
       5.670107454120e-05       3.705601726760e-02 
       6.122441196689e-05       3.990533418108e-02 
       6.610859936996e-05       4.297372173113e-02 
       7.138242361596e-05       4.627802146976e-02 
       7.707696804727e-05       4.983636199853e-02 
       8.322579568497e-05       5.366826853363e-02 
       8.986514704559e-05       5.779476401172e-02 
       9.703415373875e-05       6.223848250995e-02 
       1.047750691046e-04       6.702379873297e-02 
       1.131335172503e-04       7.217695161626e-02 
       1.221587619537e-04       7.772619082450e-02 
       1.319039970183e-04       8.370193441937e-02 
       1.424266597921e-04       9.013692517844e-02 
       1.537887696968e-04       9.706641253655e-02 
       1.660572937635e-04       1.045283355465e-01 
       1.793045413292e-04       1.125635350353e-01 
       1.936085902198e-04       1.212159616352e-01 
       2.090537469327e-04       1.305329134204e-01 
       2.257310435294e-04       1.405652847819e-01 
       2.437387741694e-04       1.513678304267e-01 
       2.631830744443e-04       1.629994506729e-01 
       2.841785469300e-04       1.755234923225e-01 
       3.068489366414e-04       1.890080672567e-01 
       3.313278603720e-04       2.035264004753e-01 
       3.577595942169e-04       2.191571806176e-01 
       3.862999239199e-04       2.359849440278e-01 
       4.171170630578e-04       2.541004744427e-01 
       4.503926444729e-04       2.736012083385e-01 
       4.863227907969e-04       2.945916794307e-01 
       5.251192703764e-04       3.171839528777e-01 
       5.670107454121e-04       3.414980767866e-01 
       6.122441196689e-04       3.676625417254e-01 
       6.610859936996e-04       3.958147256766e-01 
       7.138242361596e-04       4.261013289617e-01 
       7.707696804727e-04       4.586787797621e-01 
       8.322579568497e-04       4.937136006569e-01 
       8.986514704559e-04       5.313826807324e-01 
       9.703415373875e-04       5.718734978504e-01 
       1.047750691046e-03       6.153841636304e-01 
       1.131335172503e-03       6.621233246735e-01 
       1.221587619537e-03       7.123098228207e-01 
       1.319039970183e-03       7.661720592401e-01 
       1.424266597921e-03       8.239546306535e-01 
       1.537887696968e-03       8.859011182812e-01 
       1.660572937635e-03       9.522588016186e-01 
       1.793045413292e-03       1.023280100860e+00 
       1.936085902198e-03       1.099216305669e+00 
       2.090537469327e-03       1.180312991590e+00 
       2.257310435294e-03       1.266804117022e+00 
       2.437387741694e-03       1.358904854610e+00 
       2.631830744443e-03       1.456802684377e+00 
       2.841785469300e-03       1.560646891740e+00 
       3.068489366414e-03       1.670536063690e+00 
       3.313278603720e-03       1.786503853307e+00 
       3.577595942169e-03       1.908502931818e+00 
       3.862999239199e-03       2.036387731581e+00 
       4.171170630578e-03       2.169896194772e+00 
       4.503926444729e-03       2.308631879320e+00 
       4.863227907969e-03       2.452047290858e+00 
       5.251192703764e-03       2.599430627414e+00 
       5.670107454120e-03       2.749896930407e+00 
       6.122441196689e-03       2.902386510983e+00 
       6.610859936996e-03       3.055668705707e+00 
       7.138242361596e-03       3.208356456299e+00 
       7.707696804727e-03       3.358923885267e+00 
       8.322579568496e-03       3.505725585512e+00 
       8.986514704559e-03       3.647009433916e+00 
       9.703415373875e-03       3.780923287479e+00 
       1.047750691046e-02       3.905490647448e+00 
       1.131335172503e-02       4.018587783578e+00 
       1.221587619537e-02       4.117901545385e+00 
       1.319039970183e-02       4.200915293176e+00 
       1.424266597920e-02       4.264942382286e+00 
       1.537887696964e-02       4.307218099220e+00 
       1.660572937560e-02       4.325061333036e+00 
       1.793045412207e-02       4.316059453839e+00 
       1.936085889642e-02       4.278229657300e+00 
       2.090537351881e-02       4.210203116761e+00 
       2.257309534705e-02       4.111416275835e+00 
       2.437382002240e-02       3.982420665981e+00 
       2.631799943729e-02       3.825169036593e+00 
       2.841644544598e-02       3.643283334648e+00 
       3.067933354524e-02       3.442194118970e+00 
       3.311368469821e-02       3.229234162599e+00 
       3.571840442514e-02       3.013519103165e+00 
       3.847720347390e-02       2.805283928118e+00 
       4.135335537314e-02       2.614410643871e+00 
       4.429361666563e-02       2.448126752843e+00 
       4.724366437916e-02       2.309236147607e+00 
       5.016480834039e-02       2.196111916425e+00 
       5.303989618930e-02       2.104366645490e+00 
       5.586870668205e-02       2.028461212176e+00 
       5.866042679206e-02       1.963152193562e+00 
       6.142798931504e-02       1.903779903604e+00 
       6.418496438662e-02       1.846475532023e+00 
       6.694418832236e-02       1.788193038678e+00 
       6.971731104453e-02       1.726715854858e+00 
       7.251476154108e-02       1.660648544019e+00 
       7.534587669814e-02       1.589468277239e+00 
       7.821907664495e-02       1.513433461002e+00 
       8.114203771084e-02       1.433565464745e+00 
       8.412184533139e-02       1.351490025245e+00 
       8.716512277352e-02       1.269268123545e+00 
       9.027813693913e-02       1.189192273663e+00 
       9.346688429613e-02       1.113497746142e+00 
       9.673716026122e-02       1.044170664782e+00 
       1.000946150608e-01       9.827012140146e-01 
       1.035447986307e-01       9.299315687873e-01 
       1.070931966524e-01       8.859530673513e-01 
       1.107452594180e-01       8.500633645025e-01 
       1.145064248899e-01       8.207980399727e-01 
       1.183821370656e-01       7.960187254683e-01 
       1.223778605591e-01       7.731366329129e-01 
       1.264990921707e-01       7.494426761437e-01 
       1.307513701078e-01       7.225490347067e-01 
       1.351402814485e-01       6.909001684399e-01 
       1.396714683894e-01       6.541722145374e-01 
       1.443506337875e-01       6.134172095697e-01 
       1.491835464900e-01       5.708563075995e-01 
       1.541760469368e-01       5.293512011110e-01 
       1.593340535209e-01       4.916979204229e-01 
       1.646635701934e-01       4.599063467585e-01 
       1.701706958081e-01       4.347135764648e-01 
       1.758616357070e-01       4.153923206802e-01 
       1.817427160581e-01       3.999192063038e-01 
       1.878204014651e-01       3.856676278596e-01 
       1.941013163855e-01       3.697930947719e-01 
       2.005922709060e-01       3.505296071982e-01 
       2.073002914514e-01       3.280254407372e-01 
       2.142326570343e-01       3.041919366859e-01 
       2.213969417044e-01       2.815884502349e-01 
       2.288010639201e-01       2.622328248767e-01 
       2.364533436625e-01       2.469366621997e-01 
       2.443625682390e-01       2.349867121674e-01 
       2.525380678946e-01       2.243921024132e-01 
       2.609898025770e-01       2.130669310354e-01 
       2.697284614969e-01       2.000708659046e-01 
       2.787655775073e-01       1.859876074570e-01 
       2.881136588192e-01       1.724837282579e-01 
       2.977863412019e-01       1.610308171748e-01 
       3.077985646248e-01       1.517240424725e-01 
       3.181667793367e-01       1.435210273152e-01 
       3.289091877084e-01       1.351417294893e-01 
       3.400460298905e-01       1.261224546537e-01 
       3.515999235695e-01       1.171578530787e-01 
       3.635962710278e-01       1.091310433358e-01 
       3.760637505499e-01       1.022613851445e-01 
       3.890349143014e-01       9.588766715838e-02 
       4.025469215929e-01       8.945507298941e-02 
       4.166424455447e-01       8.305669349074e-02 
       4.313708034899e-01       7.715796697996e-02 
       4.467893781976e-01       7.184061004701e-02 
       4.629654198623e-01       6.680641102523e-02 
       4.799783500912e-01       6.185179755087e-02 
       4.979227318246e-01       5.715364535079e-02 
       5.169121269689e-01       5.283134017623e-02 
       5.370841403262e-01       4.869483002640e-02 
       5.586070463286e-01       4.471226912439e-02 
       5.816885093582e-01       4.096956344765e-02 
       6.065870143577e-01       3.740348770047e-02 
       6.336266466978e-01       3.398548641544e-02 
       6.632156057925e-01       3.073909024624e-02 
       6.958678637575e-01       2.762758539673e-02 
       7.322247983784e-01       2.466069641552e-02 
       7.730680193171e-01       2.182678626431e-02 
       8.193049551574e-01       1.913627688720e-02 
       8.718988013754e-01       1.660154381071e-02 
       9.317218028590e-01       1.424783779179e-02 
       9.993660906273e-01       1.210471980685e-02 
       1.075037109879e+00       1.019635449220e-02 
       1.158653485387e+00       8.532509053090e-03 
       1.250099156961e+00       7.106010514825e-03 
       1.349432400897e+00       5.895200170738e-03 
       1.456947456991e+00       4.873663522295e-03 
       1.573135110893e+00       4.014428050094e-03 
       1.698621895119e+00       3.293018687438e-03 
       1.834127512423e+00       2.688155829960e-03 
       1.980444933977e+00       2.181637269013e-03 
       2.138435191130e+00       1.758123702125e-03 
       2.309029198543e+00       1.404671243698e-03 
       2.493232376993e+00       1.110454044897e-03 
       2.692130394536e+00       8.664124006307e-04 
       2.906895533764e+00       6.650004637525e-04 
       3.138793596840e+00       4.999556283249e-04 
       3.389191365541e+00       3.660634620827e-04 
       3.659564656886e+00       2.589840983199e-04 
       3.951507021438e+00       1.750631602473e-04 
       4.266739135513e+00       1.111590276425e-04 
       4.607118942658e+00       6.449171599737e-05 
       4.974652604172e+00       3.249544318109e-05 
       5.371506323193e+00       1.271465074265e-05 
       5.800019112071e+00       2.704180407731e-06 
       6.262716578240e+00       1.664079354354e-09 
       6.762325809881e+00       2.145937159039e-06 
       7.301791449077e+00       6.771278157072e-06 
       7.884293047211e+00       1.176429313423e-05 
       8.513263804891e+00       1.546176784098e-05 
       9.192410806865e+00       1.684719309013e-05 
       9.925736871166e+00       1.567296647910e-05 
       1.071756414128e+01       1.244267624939e-05 
       1.157255956041e+01       8.208642377815e-06 
       1.249576237789e+01       4.199462435728e-06 
       1.349261385000e+01       1.381867147242e-06 
       1.456898931011e+01       1.213719517847e-07 
       1.573123279727e+01       1.105633683622e-07 
       1.698619444729e+01       6.228883368249e-07 
       1.834127086665e+01       9.652194630325e-07 
       1.980444872733e+01       8.517992905054e-07 
       2.138435183937e+01       4.528843130493e-07 
       2.309029197863e+01       1.110987631433e-07 
       2.493232376942e+01       2.588840657717e-10 
       2.692130394533e+01       3.597869161134e-08 
       2.906895533764e+01       6.120375464490e-08 
       3.138793596840e+01       3.339287016301e-08 
       3.389191365541e+01       4.337623329511e-09 
       3.659564656886e+01       7.921767144320e-10 
       3.951507021438e+01       3.510593187574e-09 
       4.266739135513e+01       1.407984335065e-09 
       4.607118942658e+01       8.423758858206e-12 
       4.974652604172e+01       1.618508285312e-10 
       5.371506323193e+01       5.746226127912e-11 
       5.800019112071e+01       9.980688732414e-13 
       6.262716578240e+01       4.651137591637e-12 
       6.762325809881e+01       8.061290884253e-14 
