# Matter power spectrum P(k) at redshift z=0
# for k=1.04775e-05 to 66.1767 h/Mpc,
# number of wavenumbers equal to 130
#    1:k (h/Mpc)              2:P (Mpc/h)^3        
       1.047750691046e-05       5.020964811312e+01 
       1.319039970183e-05       6.270562594779e+01 
       1.660572937635e-05       7.831147247912e+01 
       2.090537469327e-05       9.780108069297e+01 
       2.631830744443e-05       1.221408203809e+02 
       3.313278603720e-05       1.525374501932e+02 
       4.171170630578e-05       1.904975994009e+02 
       5.251192703764e-05       2.379022224249e+02 
       6.610859936996e-05       2.970989227882e+02 
       8.322579568497e-05       3.710167318945e+02 
       1.047750691046e-04       4.633080766742e+02 
       1.319039970183e-04       5.785234129338e+02 
       1.660572937635e-04       7.223242666092e+02 
       2.090537469327e-04       9.017396271824e+02 
       2.631830744443e-04       1.125468123750e+03 
       3.313278603720e-04       1.404223053681e+03 
       4.171170630578e-04       1.751108028790e+03 
       5.251192703764e-04       2.181998448133e+03 
       6.610859936996e-04       2.715889983592e+03 
       8.322579568497e-04       3.375152337134e+03 
       1.047750691046e-03       4.185552174294e+03 
       1.319039970183e-03       5.175742742927e+03 
       1.660572937635e-03       6.376123051792e+03 
       2.090537469327e-03       7.815671868424e+03 
       2.631830744443e-03       9.517783069092e+03 
       3.313278603720e-03       1.149357460339e+04 
       4.171170630578e-03       1.373266014026e+04 
       5.251192703764e-03       1.619063612366e+04 
       6.610859936996e-03       1.877460426880e+04 
       8.322579568497e-03       2.132607070342e+04 
       1.047750691046e-02       2.360549051552e+04 
       1.319039970183e-02       2.528218652506e+04 
       1.660572937633e-02       2.595029083014e+04 
       2.090537453514e-02       2.520940989532e+04 
       2.631818545635e-02       2.287034574124e+04 
       3.311571692125e-02       1.928619882928e+04 
       4.113809243311e-02       1.568423513540e+04 
       4.792590854610e-02       1.361060557432e+04 
       5.284436902701e-02       1.259130224274e+04 
       5.689644391095e-02       1.195556918684e+04 
       6.051252627066e-02       1.147556224625e+04 
       6.388413457411e-02       1.105594993020e+04 
       6.711249296401e-02       1.064904644381e+04 
       7.025823437965e-02       1.022931565016e+04 
       7.336115587705e-02       9.784532343885e+03 
       7.644928796912e-02       9.311689850534e+03 
       7.954353299775e-02       8.814572629787e+03 
       8.266024078725e-02       8.302201729762e+03 
       8.581273398637e-02       7.786980733409e+03 
       8.901225918437e-02       7.283239704616e+03 
       9.226860540985e-02       6.805204960715e+03 
       9.559052048996e-02       6.365642139978e+03 
       9.898599946599e-02       5.974421713965e+03 
       1.024624891378e-01       5.637360131060e+03 
       1.060270359164e-01       5.355801697460e+03 
       1.096863943056e-01       5.126245972243e+03 
       1.134471073830e-01       4.940508587330e+03 
       1.173155669539e-01       4.786176030494e+03 
       1.212980586983e-01       4.647939252990e+03 
       1.254007961065e-01       4.509081295495e+03 
       1.296299459934e-01       4.354488816724e+03 
       1.339916477160e-01       4.173219328530e+03 
       1.384920277736e-01       3.961183463137e+03 
       1.431372111762e-01       3.722607411367e+03 
       1.479333307714e-01       3.469561111797e+03 
       1.528865355934e-01       3.218322540557e+03 
       1.580029992204e-01       2.986264805627e+03 
       1.632889290723e-01       2.786945968505e+03 
       1.687505775527e-01       2.626806655578e+03 
       1.743942559171e-01       2.503751534102e+03 
       1.802263517371e-01       2.407301089207e+03 
       1.862533508214e-01       2.322258503356e+03 
       1.924818644494e-01       2.231517364769e+03 
       1.989186627765e-01       2.122194565338e+03 
       2.055707152847e-01       1.992038151835e+03 
       2.124452391818e-01       1.850319443794e+03 
       2.195497567139e-01       1.712161375938e+03 
       2.268921624510e-01       1.590968610726e+03 
       2.344808017550e-01       1.493659884872e+03 
       2.423245618548e-01       1.418303567061e+03 
       2.504329772620e-01       1.354442590283e+03 
       2.588163516754e-01       1.288931918200e+03 
       2.674858990930e-01       1.213907022483e+03 
       2.764539076010e-01       1.130681270933e+03 
       2.857339303080e-01       1.048084043583e+03 
       2.953410092148e-01       9.761711115316e+02 
       3.052919395542e-01       9.178037278966e+02 
       3.156055844677e-01       8.678824694302e+02 
       3.263032530092e-01       8.185234569322e+02 
       3.374091587054e-01       7.651398731168e+02 
       3.489509817175e-01       7.106575023869e+02 
       3.609605657343e-01       6.607779445235e+02 
       3.734747921333e-01       6.180808396632e+02 
       3.865366902904e-01       5.793011210589e+02 
       4.001968667448e-01       5.403820261689e+02 
       4.145153713076e-01       5.011437198414e+02 
       4.295641718077e-01       4.644944927817e+02 
       4.454304922144e-01       4.314016560594e+02 
       4.622214006969e-01       4.001084545363e+02 
       4.800702491654e-01       3.690828852424e+02 
       4.991459272112e-01       3.394707697498e+02 
       5.196665217302e-01       3.119798931989e+02 
       5.419201087032e-01       2.852426759547e+02 
       5.662975451962e-01       2.593270654815e+02 
       5.933463737275e-01       2.345444602893e+02 
       6.238638458458e-01       2.102285629539e+02 
       6.590669257916e-01       1.864322954917e+02 
       7.009246080454e-01       1.627237928659e+02 
       7.528593308799e-01       1.388175968730e+02 
       8.213469537518e-01       1.141876905985e+02 
       9.196980813302e-01       8.835838443794e+01 
       1.075112183810e+00       6.172553651012e+01 
       1.322697471132e+00       3.804264510838e+01 
       1.662328205042e+00       2.209753457061e+01 
       2.092692408506e+00       1.266882679201e+01 
       2.634543445090e+00       7.202955513012e+00 
       3.316693691389e+00       4.064812168267e+00 
       4.175469971226e+00       2.278304261857e+00 
       5.256605252960e+00       1.269030001001e+00 
       6.617673932723e+00       7.028173760960e-01 
       8.331157880872e+00       3.871580494593e-01 
       1.048830636590e+01       2.121814006246e-01 
       1.320399541071e+01       1.156946577105e-01 
       1.662284535976e+01       6.274084180628e-02 
       2.092692243973e+01       3.380116095792e-02 
       2.634543445002e+01       1.804482623032e-02 
       3.316693691389e+01       9.495225695286e-03 
       4.175469971226e+01       4.871735024251e-03 
       5.256605252960e+01       2.385423969124e-03 
       6.617673932723e+01       1.068017163172e-03 
