# Matter power spectrum P(k) at redshift z=99
# for k=1.04775e-05 to 66.1767 h/Mpc,
# number of wavenumbers equal to 130
#    1:k (h/Mpc)              2:P (Mpc/h)^3        
       1.047750691046e-05       7.261927680867e-03 
       1.319039970183e-05       9.069258201856e-03 
       1.660572937635e-05       1.132639106726e-02 
       2.090537469327e-05       1.414527123400e-02 
       2.631830744443e-05       1.766569584059e-02 
       3.313278603720e-05       2.206225515944e-02 
       4.171170630578e-05       2.755297766279e-02 
       5.251192703764e-05       3.441013522950e-02 
       6.610859936996e-05       4.297372172781e-02 
       8.322579568497e-05       5.366826852948e-02 
       1.047750691046e-04       6.702379872779e-02 
       1.319039970183e-04       8.370193441292e-02 
       1.660572937635e-04       1.045283355385e-01 
       2.090537469327e-04       1.305329134105e-01 
       2.631830744443e-04       1.629994506607e-01 
       3.313278603720e-04       2.035264004603e-01 
       4.171170630578e-04       2.541004744245e-01 
       5.251192703764e-04       3.171839528559e-01 
       6.610859936996e-04       3.958147256516e-01 
       8.322579568497e-04       4.937136006274e-01 
       1.047750691046e-03       6.153841636045e-01 
       1.319039970183e-03       7.661720592392e-01 
       1.660572937635e-03       9.522588016469e-01 
       2.090537469327e-03       1.180312991698e+00 
       2.631830744443e-03       1.456802684683e+00 
       3.313278603720e-03       1.786503854032e+00 
       4.171170630578e-03       2.169896197561e+00 
       5.251192703764e-03       2.599430630657e+00 
       6.610859936996e-03       3.055668704001e+00 
       8.322579568497e-03       3.505725130999e+00 
       1.047750691046e-02       3.905492344460e+00 
       1.319039970183e-02       4.200915383978e+00 
       1.660572937633e-02       4.325060961397e+00 
       2.090537453514e-02       4.210201762603e+00 
       2.631818545635e-02       3.825157110248e+00 
       3.311571692125e-02       3.229068148568e+00 
       4.113809243311e-02       2.627730144040e+00 
       4.792590854610e-02       2.280788322938e+00 
       5.284436902701e-02       2.110085712665e+00 
       5.689644391095e-02       2.003535914767e+00 
       6.051252627066e-02       1.923055410052e+00 
       6.388413457411e-02       1.852732944190e+00 
       6.711249296401e-02       1.784565368974e+00 
       7.025823437965e-02       1.714277552659e+00 
       7.336115587705e-02       1.639814713778e+00 
       7.644928796912e-02       1.560663075869e+00 
       7.954353299775e-02       1.477456986617e+00 
       8.266024078725e-02       1.391698559531e+00 
       8.581273398637e-02       1.305462863117e+00 
       8.901225918437e-02       1.221124223076e+00 
       9.226860540985e-02       1.141078367422e+00 
       9.559052048996e-02       1.067454683760e+00 
       9.898599946599e-02       1.001888732572e+00 
       1.024624891378e-01       9.453762657030e-01 
       1.060270359164e-01       8.981484649151e-01 
       1.096863943056e-01       8.596141756636e-01 
       1.134471073830e-01       8.284048729212e-01 
       1.173155669539e-01       8.024664274714e-01 
       1.212980586983e-01       7.792285560999e-01 
       1.254007961065e-01       7.559171478177e-01 
       1.296299459934e-01       7.299816623694e-01 
       1.339916477160e-01       6.995923523004e-01 
       1.384920277736e-01       6.640779226658e-01 
       1.431372111762e-01       6.241467258251e-01 
       1.479333307714e-01       5.817627552374e-01 
       1.528865355934e-01       5.396932029676e-01 
       1.580029992204e-01       5.008132220987e-01 
       1.632889290723e-01       4.673973597834e-01 
       1.687505775527e-01       4.405329992063e-01 
       1.743942559171e-01       4.198648175777e-01 
       1.802263517371e-01       4.036590189675e-01 
       1.862533508214e-01       3.893584729505e-01 
       1.924818644494e-01       3.741330742873e-01 
       1.989186627765e-01       3.558010770617e-01 
       2.055707152847e-01       3.339976459948e-01 
       2.124452391818e-01       3.102659957793e-01 
       2.195497567139e-01       2.871220556663e-01 
       2.268921624510e-01       2.668071191481e-01 
       2.344808017550e-01       2.504821743411e-01 
       2.423245618548e-01       2.378320392179e-01 
       2.504329772620e-01       2.271102692131e-01 
       2.588163516754e-01       2.161155260099e-01 
       2.674858990930e-01       2.035435944216e-01 
       2.764539076010e-01       1.895958420466e-01 
       2.857339303080e-01       1.757553828984e-01 
       2.953410092148e-01       1.636975577514e-01 
       3.052919395542e-01       1.539046270793e-01 
       3.156055844677e-01       1.455289709638e-01 
       3.263032530092e-01       1.372478781500e-01 
       3.374091587054e-01       1.282998170342e-01 
       3.489509817175e-01       1.191693738337e-01 
       3.609605657343e-01       1.108055034948e-01 
       3.734747921333e-01       1.036430932131e-01 
       3.865366902904e-01       9.713925110724e-02 
       4.001968667448e-01       9.061332305230e-02 
       4.145153713076e-01       8.403472896504e-02 
       4.295641718077e-01       7.788897497886e-02 
       4.454304922144e-01       7.233933407409e-02 
       4.622214006969e-01       6.709142680296e-02 
       4.800702491654e-01       6.188924539836e-02 
       4.991459272112e-01       5.692369755815e-02 
       5.196665217302e-01       5.231333275404e-02 
       5.419201087032e-01       4.782987146146e-02 
       5.662975451962e-01       4.348422579122e-02 
       5.933463737275e-01       3.932825592637e-02 
       6.238638458458e-01       3.525054182159e-02 
       6.590669257916e-01       3.125978702689e-02 
       7.009246080454e-01       2.728419272792e-02 
       7.528593308799e-01       2.327519534540e-02 
       8.213469537518e-01       1.914488508933e-02 
       9.196980813302e-01       1.481349078899e-02 
       1.075112183810e+00       1.034716798933e-02 
       1.322697471132e+00       6.375464970947e-03 
       1.662328205042e+00       3.701411481156e-03 
       2.092692408506e+00       2.120044384311e-03 
       2.634543445090e+00       1.203263195752e-03 
       3.316693691389e+00       6.768399456041e-04 
       4.175469971226e+00       3.771138283289e-04 
       5.256605252960e+00       2.077806489610e-04 
       6.617673932723e+00       1.128051605295e-04 
       8.331157880872e+00       5.993179995905e-05 
       1.048830636590e+01       3.076608234228e-05 
       1.320399541071e+01       1.491188350000e-05 
       1.662284535976e+01       6.538898922420e-06 
       2.092692243973e+01       2.384110392571e-06 
       2.634543445002e+01       5.912503654023e-07 
       3.316693691389e+01       4.388459537829e-08 
       4.175469971226e+01       1.851548559856e-08 
       5.256605252960e+01       7.303723081833e-08 
       6.617673932723e+01       5.142521535314e-08 
