# Matter power spectrum P(k) at redshift z=99
# for k=1.04775e-05 to 67.6233 h/Mpc,
# number of wavenumbers equal to 246
#    1:k (h/Mpc)              2:P (Mpc/h)^3        
       1.047750691046e-05       7.261927680861e-03 
       1.131335172503e-05       7.820331652431e-03 
       1.221587619537e-05       8.421675995453e-03 
       1.319039970183e-05       9.069258201848e-03 
       1.424266597921e-05       9.766638412133e-03 
       1.537887696968e-05       1.051764070801e-02 
       1.660572937635e-05       1.132639106725e-02 
       1.793045413292e-05       1.219733232715e-02 
       1.936085902198e-05       1.313524225779e-02 
       2.090537469327e-05       1.414527123399e-02 
       2.257310435294e-05       1.523296273823e-02 
       2.437387741694e-05       1.640429446288e-02 
       2.631830744443e-05       1.766569584058e-02 
       2.841785469300e-05       1.902408737005e-02 
       3.068489366414e-05       2.048692972772e-02 
       3.313278603720e-05       2.206225515942e-02 
       3.577595942169e-05       2.375870707438e-02 
       3.862999239199e-05       2.558560730202e-02 
       4.171170630578e-05       2.755297766277e-02 
       4.503926444729e-05       2.967161930474e-02 
       4.863227907969e-05       3.195316454233e-02 
       5.251192703764e-05       3.441013522947e-02 
       5.670107454120e-05       3.705601726472e-02 
       6.122441196689e-05       3.990533417796e-02 
       6.610859936996e-05       4.297372172777e-02 
       7.138242361596e-05       4.627802146614e-02 
       7.707696804727e-05       4.983636199464e-02 
       8.322579568497e-05       5.366826852944e-02 
       8.986514704559e-05       5.779476400720e-02 
       9.703415373875e-05       6.223848250510e-02 
       1.047750691046e-04       6.702379872774e-02 
       1.131335172503e-04       7.217695161063e-02 
       1.221587619537e-04       7.772619081845e-02 
       1.319039970183e-04       8.370193441285e-02 
       1.424266597921e-04       9.013692517142e-02 
       1.537887696968e-04       9.706641252902e-02 
       1.660572937635e-04       1.045283355384e-01 
       1.793045413292e-04       1.125635350266e-01 
       1.936085902198e-04       1.212159616259e-01 
       2.090537469327e-04       1.305329134104e-01 
       2.257310435294e-04       1.405652847711e-01 
       2.437387741694e-04       1.513678304151e-01 
       2.631830744443e-04       1.629994506605e-01 
       2.841785469300e-04       1.755234923092e-01 
       3.068489366414e-04       1.890080672425e-01 
       3.313278603720e-04       2.035264004601e-01 
       3.577595942169e-04       2.191571806013e-01 
       3.862999239199e-04       2.359849440104e-01 
       4.171170630578e-04       2.541004744243e-01 
       4.503926444729e-04       2.736012083189e-01 
       4.863227907969e-04       2.945916794099e-01 
       5.251192703764e-04       3.171839528557e-01 
       5.670107454121e-04       3.414980767635e-01 
       6.122441196689e-04       3.676625417011e-01 
       6.610859936996e-04       3.958147256513e-01 
       7.138242361596e-04       4.261013289360e-01 
       7.707696804727e-04       4.586787797351e-01 
       8.322579568497e-04       4.937136006284e-01 
       8.986514704559e-04       5.313826807049e-01 
       9.703415373875e-04       5.718734978233e-01 
       1.047750691046e-03       6.153841636041e-01 
       1.131335172503e-03       6.621233246496e-01 
       1.221587619537e-03       7.123098227995e-01 
       1.319039970183e-03       7.661720592469e-01 
       1.424266597921e-03       8.239546306463e-01 
       1.537887696968e-03       8.859011182851e-01 
       1.660572937635e-03       9.522588016479e-01 
       1.793045413292e-03       1.023280100902e+00 
       1.936085902198e-03       1.099216305740e+00 
       2.090537469327e-03       1.180312991699e+00 
       2.257310435294e-03       1.266804117186e+00 
       2.437387741694e-03       1.358904854833e+00 
       2.631830744443e-03       1.456802684686e+00 
       2.841785469300e-03       1.560646892157e+00 
       3.068489366414e-03       1.670536064245e+00 
       3.313278603720e-03       1.786503854040e+00 
       3.577595942169e-03       1.908502932769e+00 
       3.862999239199e-03       2.036387732816e+00 
       4.171170630578e-03       2.169896195443e+00 
       4.503926444729e-03       2.308631881359e+00 
       4.863227907969e-03       2.452047293460e+00 
       5.251192703764e-03       2.599430630722e+00 
       5.670107454120e-03       2.749896934577e+00 
       6.122441196689e-03       2.902386516274e+00 
       6.610859936996e-03       3.055668709125e+00 
       7.138242361596e-03       3.208356464659e+00 
       7.707696804727e-03       3.358923895615e+00 
       8.322579568496e-03       3.505725598495e+00 
       8.986514704559e-03       3.647009247485e+00 
       9.703415373875e-03       3.780923307789e+00 
       1.047750691046e-02       3.905490355311e+00 
       1.131335172503e-02       4.018588029790e+00 
       1.221587619537e-02       4.117901585515e+00 
       1.319039970183e-02       4.200915320308e+00 
       1.424266597920e-02       4.264941533863e+00 
       1.537887696964e-02       4.307219186667e+00 
       1.660572937560e-02       4.325063113488e+00 
       1.793045412207e-02       4.316058662523e+00 
       1.936085889642e-02       4.278229511976e+00 
       2.090537351881e-02       4.210199220189e+00 
       2.257309534705e-02       4.111417122079e+00 
       2.437382002240e-02       3.982415704899e+00 
       2.631799943729e-02       3.825177615319e+00 
       2.841644544598e-02       3.643287547668e+00 
       3.067933354524e-02       3.442190134497e+00 
       3.311368469821e-02       3.229239926673e+00 
       3.571840442514e-02       3.013524547531e+00 
       3.847720347390e-02       2.805281990189e+00 
       4.135335537314e-02       2.614405202044e+00 
       4.429361666563e-02       2.448133314991e+00 
       4.724366437916e-02       2.309238715672e+00 
       5.016480834039e-02       2.196110947288e+00 
       5.303989618930e-02       2.104365905531e+00 
       5.586870668205e-02       2.028465647506e+00 
       5.866042679206e-02       1.963154405406e+00 
       6.142798931504e-02       1.903786154254e+00 
       6.418496438662e-02       1.846478098211e+00 
       6.694418832236e-02       1.788200574344e+00 
       6.971731104453e-02       1.726715024782e+00 
       7.251476154108e-02       1.660653491294e+00 
       7.534587669814e-02       1.589471875734e+00 
       7.821907664495e-02       1.513439413088e+00 
       8.114203771084e-02       1.433567904470e+00 
       8.412184533139e-02       1.351495088970e+00 
       8.716512277352e-02       1.269274175555e+00 
       9.027813693913e-02       1.189195016821e+00 
       9.346688429613e-02       1.113503618347e+00 
       9.673716026122e-02       1.044173317247e+00 
       1.000946150608e-01       9.827083878479e-01 
       1.035447986307e-01       9.299409286068e-01 
       1.070931966524e-01       8.859578006499e-01 
       1.107452594180e-01       8.500707468316e-01 
       1.145064248899e-01       8.208042835498e-01 
       1.183821370656e-01       7.960258891441e-01 
       1.223778605591e-01       7.731454177925e-01 
       1.264990921707e-01       7.494516048068e-01 
       1.307513701078e-01       7.225583411065e-01 
       1.351402814485e-01       6.909091844323e-01 
       1.396714683894e-01       6.541818015769e-01 
       1.443506337875e-01       6.134269163698e-01 
       1.491835464900e-01       5.708684672864e-01 
       1.541760469368e-01       5.293627132679e-01 
       1.593340535209e-01       4.917105855970e-01 
       1.646635701934e-01       4.599208699962e-01 
       1.701706958081e-01       4.347284889839e-01 
       1.758616357070e-01       4.154083733717e-01 
       1.817427160581e-01       3.999375038450e-01 
       1.878204014651e-01       3.856826963374e-01 
       1.941013163855e-01       3.698091979638e-01 
       2.005922709060e-01       3.505461066968e-01 
       2.073002914514e-01       3.280434464490e-01 
       2.142326570343e-01       3.042137072501e-01 
       2.213969417044e-01       2.816120416193e-01 
       2.288010639201e-01       2.622568541580e-01 
       2.364533436625e-01       2.469621358830e-01 
       2.443625682390e-01       2.350129555076e-01 
       2.525380678946e-01       2.244175876524e-01 
       2.609898025770e-01       2.130938622624e-01 
       2.697284614969e-01       2.001019930537e-01 
       2.787655775073e-01       1.860197585219e-01 
       2.881136588192e-01       1.725169219877e-01 
       2.977863412019e-01       1.610660202318e-01 
       3.077985646248e-01       1.517608556087e-01 
       3.181667793367e-01       1.435593902522e-01 
       3.289091877084e-01       1.351814325381e-01 
       3.400460298905e-01       1.261646064213e-01 
       3.515999235695e-01       1.172020826066e-01 
       3.635962710278e-01       1.091769660657e-01 
       3.760637505499e-01       1.023095667185e-01 
       3.890349143014e-01       9.593787161838e-02 
       4.025469215929e-01       8.950803069619e-02 
       4.166424455447e-01       8.311190718050e-02 
       4.313708034899e-01       7.721571341631e-02 
       4.467893781976e-01       7.190083906894e-02 
       4.629654198623e-01       6.686884106973e-02 
       4.799783500912e-01       6.191764661304e-02 
       4.979227318246e-01       5.722221793595e-02 
       5.169121269689e-01       5.290284739120e-02 
       5.370841403262e-01       4.876986909908e-02 
       5.586070463286e-01       4.479083305899e-02 
       5.816885093582e-01       4.105183062264e-02 
       6.065870143577e-01       3.748987814240e-02 
       6.336266466978e-01       3.407635368403e-02 
       6.632156057925e-01       3.083469813128e-02 
       6.958678637575e-01       2.772840432381e-02 
       7.322247983784e-01       2.476709701314e-02 
       7.730680193171e-01       2.193960422160e-02 
       8.193049551574e-01       1.925620081943e-02 
       8.718988013754e-01       1.672934582892e-02 
       9.317218028590e-01       1.438420595334e-02 
       9.993660906273e-01       1.225066806735e-02 
       1.075037109879e+00       1.035261086227e-02 
       1.158653485387e+00       8.699749396857e-03 
       1.250099156961e+00       7.284590853972e-03 
       1.349432400897e+00       6.085481414871e-03 
       1.456947456991e+00       5.075709205493e-03 
       1.573135110893e+00       4.228319831944e-03 
       1.698621895119e+00       3.518552717730e-03 
       1.834127512423e+00       2.924987983044e-03 
       1.980444933977e+00       2.429165983718e-03 
       2.138435191130e+00       2.015506219736e-03 
       2.309029198543e+00       1.670772285865e-03 
       2.493232376993e+00       1.383789314076e-03 
       2.692130394536e+00       1.145132137456e-03 
       2.906895533764e+00       9.468585736770e-04 
       3.138793596840e+00       7.822866736417e-04 
       3.389191365541e+00       6.458206351972e-04 
       3.659564656886e+00       5.327686647054e-04 
       3.951507021438e+00       4.391849697631e-04 
       4.266739135513e+00       3.617874026215e-04 
       4.607118942658e+00       2.978260212194e-04 
       4.974652604172e+00       2.450123467633e-04 
       5.371506323193e+00       2.014341821432e-04 
       5.800019112071e+00       1.655041147275e-04 
       6.262716578240e+00       1.359011470412e-04 
       6.762325809881e+00       1.115279481747e-04 
       7.301791449077e+00       9.147396926637e-05 
       7.884293047211e+00       7.498433795381e-05 
       8.513263804891e+00       6.143449428749e-05 
       9.192410806865e+00       5.030617793379e-05 
       9.925736871166e+00       4.117310341765e-05 
       1.071756414128e+01       3.368151953143e-05 
       1.157255956041e+01       2.753973472880e-05 
       1.249576237789e+01       2.250694324727e-05 
       1.349261385000e+01       1.838563572987e-05 
       1.456898931011e+01       1.501235982446e-05 
       1.573123279727e+01       1.225251559623e-05 
       1.698619444729e+01       9.995865667995e-06 
       1.834127086665e+01       8.151291727628e-06 
       1.980444872733e+01       6.644450304217e-06 
       2.138435183937e+01       5.413923158562e-06 
       2.309029197863e+01       4.409580358049e-06 
       2.493232376942e+01       3.590138933444e-06 
       2.692130394533e+01       2.921842949619e-06 
       2.906895533764e+01       2.377048705928e-06 
       3.138793596840e+01       1.933104326616e-06 
       3.389191365541e+01       1.571457290124e-06 
       3.659564656886e+01       1.276996434104e-06 
       3.951507021438e+01       1.037308755207e-06 
       4.266739135513e+01       8.422915961915e-07 
       4.607118942658e+01       6.836587329574e-07 
       4.974652604172e+01       5.546812585746e-07 
       5.371506323193e+01       4.498387678275e-07 
       5.800019112071e+01       3.646561357716e-07 
       6.262716578240e+01       2.954635135064e-07 
       6.762325809881e+01       2.392834202520e-07 
