# Matter power spectrum P(k) at redshift z=99
# for k=1.04775e-05 to 66.1767 h/Mpc,
# number of wavenumbers equal to 130
#    1:k (h/Mpc)              2:P (Mpc/h)^3        
       1.047750691046e-05       7.261927680956e-03 
       1.319039970183e-05       9.069258201966e-03 
       1.660572937635e-05       1.132639106740e-02 
       2.090537469327e-05       1.414527123417e-02 
       2.631830744443e-05       1.766569584081e-02 
       3.313278603720e-05       2.206225515971e-02 
       4.171170630578e-05       2.755297766313e-02 
       5.251192703764e-05       3.441013522992e-02 
       6.610859936996e-05       4.297372172833e-02 
       8.322579568497e-05       5.366826853014e-02 
       1.047750691046e-04       6.702379872861e-02 
       1.319039970183e-04       8.370193441394e-02 
       1.660572937635e-04       1.045283355397e-01 
       2.090537469327e-04       1.305329134120e-01 
       2.631830744443e-04       1.629994506626e-01 
       3.313278603720e-04       2.035264004627e-01 
       4.171170630578e-04       2.541004744273e-01 
       5.251192703764e-04       3.171839528594e-01 
       6.610859936996e-04       3.958147256555e-01 
       8.322579568497e-04       4.937136006311e-01 
       1.047750691046e-03       6.153841636086e-01 
       1.319039970183e-03       7.661720592739e-01 
       1.660572937635e-03       9.522588016397e-01 
       2.090537469327e-03       1.180312991681e+00 
       2.631830744443e-03       1.456802684634e+00 
       3.313278603720e-03       1.786503853919e+00 
       4.171170630578e-03       2.169896192793e+00 
       5.251192703764e-03       2.599430630150e+00 
       6.610859936996e-03       3.055668715517e+00 
       8.322579568497e-03       3.505725596237e+00 
       1.047750691046e-02       3.905491047791e+00 
       1.319039970183e-02       4.200915276902e+00 
       1.660572937633e-02       4.325062389763e+00 
       2.090537453514e-02       4.210200782562e+00 
       2.631818545635e-02       3.825155424635e+00 
       3.311571692125e-02       3.229067693945e+00 
       4.113809243311e-02       2.627735554293e+00 
       4.792590854610e-02       2.280793464873e+00 
       5.284436902701e-02       2.110085134050e+00 
       5.689644391095e-02       2.003537436079e+00 
       6.051252627066e-02       1.923055397805e+00 
       6.388413457411e-02       1.852735092630e+00 
       6.711249296401e-02       1.784565981608e+00 
       7.025823437965e-02       1.714272660033e+00 
       7.336115587705e-02       1.639812563019e+00 
       7.644928796912e-02       1.560660187317e+00 
       7.954353299775e-02       1.477456695583e+00 
       8.266024078725e-02       1.391692463427e+00 
       8.581273398637e-02       1.305455470356e+00 
       8.901225918437e-02       1.221123949809e+00 
       9.226860540985e-02       1.141077830257e+00 
       9.559052048996e-02       1.067449494294e+00 
       9.898599946599e-02       1.001886621930e+00 
       1.024624891378e-01       9.453777366295e-01 
       1.060270359164e-01       8.981464913597e-01 
       1.096863943056e-01       8.596082199664e-01 
       1.134471073830e-01       8.284021011269e-01 
       1.173155669539e-01       8.024631370642e-01 
       1.212980586983e-01       7.792232217872e-01 
       1.254007961065e-01       7.559116154917e-01 
       1.296299459934e-01       7.299771759860e-01 
       1.339916477160e-01       6.995857670739e-01 
       1.384920277736e-01       6.640708954530e-01 
       1.431372111762e-01       6.241386503411e-01 
       1.479333307714e-01       5.817546554006e-01 
       1.528865355934e-01       5.396808629459e-01 
       1.580029992204e-01       5.008044305931e-01 
       1.632889290723e-01       4.673899348126e-01 
       1.687505775527e-01       4.405237482663e-01 
       1.743942559171e-01       4.198550917412e-01 
       1.802263517371e-01       4.036485289481e-01 
       1.862533508214e-01       3.893480042255e-01 
       1.924818644494e-01       3.741227500403e-01 
       1.989186627765e-01       3.557890902099e-01 
       2.055707152847e-01       3.339853168244e-01 
       2.124452391818e-01       3.102512384622e-01 
       2.195497567139e-01       2.871077353315e-01 
       2.268921624510e-01       2.667920061815e-01 
       2.344808017550e-01       2.504665124157e-01 
       2.423245618548e-01       2.378151195874e-01 
       2.504329772620e-01       2.270931645657e-01 
       2.588163516754e-01       2.160968729360e-01 
       2.674858990930e-01       2.035244432241e-01 
       2.764539076010e-01       1.895756912666e-01 
       2.857339303080e-01       1.757336355995e-01 
       2.953410092148e-01       1.636752140783e-01 
       3.052919395542e-01       1.538805431498e-01 
       3.156055844677e-01       1.455042739619e-01 
       3.263032530092e-01       1.372215152632e-01 
       3.374091587054e-01       1.282720647311e-01 
       3.489509817175e-01       1.191399347167e-01 
       3.609605657343e-01       1.107745813976e-01 
       3.734747921333e-01       1.036108832900e-01 
       3.865366902904e-01       9.710520142090e-02 
       4.001968667448e-01       9.057771824849e-02 
       4.145153713076e-01       8.399749692141e-02 
       4.295641718077e-01       7.784984560669e-02 
       4.454304922144e-01       7.229822859692e-02 
       4.622214006969e-01       6.704802070430e-02 
       4.800702491654e-01       6.184388526641e-02 
       4.991459272112e-01       5.687600856766e-02 
       5.196665217302e-01       5.226302497835e-02 
       5.419201087032e-01       4.777661134511e-02 
       5.662975451962e-01       4.342784358675e-02 
       5.933463737275e-01       3.926864726271e-02 
       6.238638458458e-01       3.518707194716e-02 
       6.590669257916e-01       3.119225053042e-02 
       7.009246080454e-01       2.721143411876e-02 
       7.528593308799e-01       2.319623857570e-02 
       8.213469537518e-01       1.905778309171e-02 
       9.196980813302e-01       1.471515815329e-02 
       1.075112183810e+00       1.023191373842e-02 
       1.322697471132e+00       6.235623683595e-03 
       1.662328205042e+00       3.532994731694e-03 
       2.092692408506e+00       1.923973623050e-03 
       2.634543445090e+00       9.853685541885e-04 
       3.316693691389e+00       4.501280140012e-04 
       4.175469971226e+00       1.630324990856e-04 
       5.256605252960e+00       3.345751466044e-05 
       6.617673932723e+00       1.473538340455e-07 
       8.331157880872e+00       8.750511390058e-06 
       1.048830636590e+01       1.400577161140e-05 
       1.320399541071e+01       4.780432524550e-06 
       1.662284535976e+01       1.291754473351e-08 
       2.092692243973e+01       9.326575226224e-07 
       2.634543445002e+01       2.004732240606e-08 
       3.316693691389e+01       6.658709805920e-08 
       4.175469971226e+01       4.860680531004e-09 
       5.256605252960e+01       1.057378200499e-10 
       6.617673932723e+01       1.670059817828e-11 
