# Matter power spectrum P(k) at redshift z=99
# for k=1.04775e-05 to 67.6233 h/Mpc,
# number of wavenumbers equal to 246
#    1:k (h/Mpc)              2:P (Mpc/h)^3        
       1.047750691046e-05       7.261927680866e-03 
       1.131335172503e-05       7.820331652436e-03 
       1.221587619537e-05       8.421675995458e-03 
       1.319039970183e-05       9.069258201854e-03 
       1.424266597921e-05       9.766638412138e-03 
       1.537887696968e-05       1.051764070802e-02 
       1.660572937635e-05       1.132639106726e-02 
       1.793045413292e-05       1.219733232716e-02 
       1.936085902198e-05       1.313524225779e-02 
       2.090537469327e-05       1.414527123400e-02 
       2.257310435294e-05       1.523296273824e-02 
       2.437387741694e-05       1.640429446289e-02 
       2.631830744443e-05       1.766569584059e-02 
       2.841785469300e-05       1.902408737006e-02 
       3.068489366414e-05       2.048692972773e-02 
       3.313278603720e-05       2.206225515944e-02 
       3.577595942169e-05       2.375870707439e-02 
       3.862999239199e-05       2.558560730204e-02 
       4.171170630578e-05       2.755297766278e-02 
       4.503926444729e-05       2.967161930476e-02 
       4.863227907969e-05       3.195316454235e-02 
       5.251192703764e-05       3.441013522949e-02 
       5.670107454120e-05       3.705601726474e-02 
       6.122441196689e-05       3.990533417798e-02 
       6.610859936996e-05       4.297372172780e-02 
       7.138242361596e-05       4.627802146617e-02 
       7.707696804727e-05       4.983636199467e-02 
       8.322579568497e-05       5.366826852947e-02 
       8.986514704559e-05       5.779476400724e-02 
       9.703415373875e-05       6.223848250513e-02 
       1.047750691046e-04       6.702379872778e-02 
       1.131335172503e-04       7.217695161068e-02 
       1.221587619537e-04       7.772619081848e-02 
       1.319039970183e-04       8.370193441290e-02 
       1.424266597921e-04       9.013692517148e-02 
       1.537887696968e-04       9.706641252908e-02 
       1.660572937635e-04       1.045283355385e-01 
       1.793045413292e-04       1.125635350267e-01 
       1.936085902198e-04       1.212159616259e-01 
       2.090537469327e-04       1.305329134105e-01 
       2.257310435294e-04       1.405652847712e-01 
       2.437387741694e-04       1.513678304152e-01 
       2.631830744443e-04       1.629994506606e-01 
       2.841785469300e-04       1.755234923093e-01 
       3.068489366414e-04       1.890080672426e-01 
       3.313278603720e-04       2.035264004602e-01 
       3.577595942169e-04       2.191571806015e-01 
       3.862999239199e-04       2.359849440104e-01 
       4.171170630578e-04       2.541004744244e-01 
       4.503926444729e-04       2.736012083191e-01 
       4.863227907969e-04       2.945916794101e-01 
       5.251192703764e-04       3.171839528559e-01 
       5.670107454121e-04       3.414980767636e-01 
       6.122441196689e-04       3.676625417013e-01 
       6.610859936996e-04       3.958147256515e-01 
       7.138242361596e-04       4.261013289363e-01 
       7.707696804727e-04       4.586787797354e-01 
       8.322579568497e-04       4.937136006302e-01 
       8.986514704559e-04       5.313826807051e-01 
       9.703415373875e-04       5.718734978236e-01 
       1.047750691046e-03       6.153841636043e-01 
       1.131335172503e-03       6.621233246498e-01 
       1.221587619537e-03       7.123098227994e-01 
       1.319039970183e-03       7.661720592544e-01 
       1.424266597921e-03       8.239546306466e-01 
       1.537887696968e-03       8.859011182852e-01 
       1.660572937635e-03       9.522588016431e-01 
       1.793045413292e-03       1.023280100902e+00 
       1.936085902198e-03       1.099216305740e+00 
       2.090537469327e-03       1.180312991698e+00 
       2.257310435294e-03       1.266804117181e+00 
       2.437387741694e-03       1.358904854835e+00 
       2.631830744443e-03       1.456802684684e+00 
       2.841785469300e-03       1.560646892154e+00 
       3.068489366414e-03       1.670536064240e+00 
       3.313278603720e-03       1.786503854033e+00 
       3.577595942169e-03       1.908502932761e+00 
       3.862999239199e-03       2.036387732804e+00 
       4.171170630578e-03       2.169896195036e+00 
       4.503926444729e-03       2.308631881337e+00 
       4.863227907969e-03       2.452047293429e+00 
       5.251192703764e-03       2.599430630679e+00 
       5.670107454120e-03       2.749896934516e+00 
       6.122441196689e-03       2.902386516193e+00 
       6.610859936996e-03       3.055668703342e+00 
       7.138242361596e-03       3.208356464508e+00 
       7.707696804727e-03       3.358923895706e+00 
       8.322579568496e-03       3.505725598427e+00 
       8.986514704559e-03       3.647009992308e+00 
       9.703415373875e-03       3.780923307245e+00 
       1.047750691046e-02       3.905491005741e+00 
       1.131335172503e-02       4.018588045206e+00 
       1.221587619537e-02       4.117901583116e+00 
       1.319039970183e-02       4.200915304690e+00 
       1.424266597920e-02       4.264942518703e+00 
       1.537887696964e-02       4.307218120080e+00 
       1.660572937560e-02       4.325060789457e+00 
       1.793045412207e-02       4.316053100585e+00 
       1.936085889642e-02       4.278229262986e+00 
       2.090537351881e-02       4.210198886008e+00 
       2.257309534705e-02       4.111420388170e+00 
       2.437382002240e-02       3.982419462285e+00 
       2.631799943729e-02       3.825166059086e+00 
       2.841644544598e-02       3.643283850560e+00 
       3.067933354524e-02       3.442193884224e+00 
       3.311368469821e-02       3.229236497882e+00 
       3.571840442514e-02       3.013507790918e+00 
       3.847720347390e-02       2.805278378927e+00 
       4.135335537314e-02       2.614410482022e+00 
       4.429361666563e-02       2.448133741448e+00 
       4.724366437916e-02       2.309243206396e+00 
       5.016480834039e-02       2.196112199931e+00 
       5.303989618930e-02       2.104366963780e+00 
       5.586870668205e-02       2.028464091322e+00 
       5.866042679206e-02       1.963153510337e+00 
       6.142798931504e-02       1.903784034875e+00 
       6.418496438662e-02       1.846483016563e+00 
       6.694418832236e-02       1.788199205349e+00 
       6.971731104453e-02       1.726714319108e+00 
       7.251476154108e-02       1.660656314262e+00 
       7.534587669814e-02       1.589470089933e+00 
       7.821907664495e-02       1.513434753779e+00 
       8.114203771084e-02       1.433568944152e+00 
       8.412184533139e-02       1.351493797488e+00 
       8.716512277352e-02       1.269272939051e+00 
       9.027813693913e-02       1.189192437715e+00 
       9.346688429613e-02       1.113500423119e+00 
       9.673716026122e-02       1.044173662430e+00 
       1.000946150608e-01       9.827059209282e-01 
       1.035447986307e-01       9.299386130840e-01 
       1.070931966524e-01       8.859584099314e-01 
       1.107452594180e-01       8.500702465302e-01 
       1.145064248899e-01       8.208049183410e-01 
       1.183821370656e-01       7.960250950768e-01 
       1.223778605591e-01       7.731444695302e-01 
       1.264990921707e-01       7.494526100168e-01 
       1.307513701078e-01       7.225580353352e-01 
       1.351402814485e-01       6.909077206900e-01 
       1.396714683894e-01       6.541806664082e-01 
       1.443506337875e-01       6.134259437131e-01 
       1.491835464900e-01       5.708668320336e-01 
       1.541760469368e-01       5.293636909831e-01 
       1.593340535209e-01       4.917098263238e-01 
       1.646635701934e-01       4.599190704265e-01 
       1.701706958081e-01       4.347283421130e-01 
       1.758616357070e-01       4.154085249850e-01 
       1.817427160581e-01       3.999369210021e-01 
       1.878204014651e-01       3.856816416514e-01 
       1.941013163855e-01       3.698084673593e-01 
       2.005922709060e-01       3.505458462671e-01 
       2.073002914514e-01       3.280422281353e-01 
       2.142326570343e-01       3.042128327255e-01 
       2.213969417044e-01       2.816112705838e-01 
       2.288010639201e-01       2.622564462940e-01 
       2.364533436625e-01       2.469604970216e-01 
       2.443625682390e-01       2.350120782851e-01 
       2.525380678946e-01       2.244159592847e-01 
       2.609898025770e-01       2.130924415585e-01 
       2.697284614969e-01       2.001000054361e-01 
       2.787655775073e-01       1.860181997901e-01 
       2.881136588192e-01       1.725163108391e-01 
       2.977863412019e-01       1.610649951657e-01 
       3.077985646248e-01       1.517595313211e-01 
       3.181667793367e-01       1.435579873767e-01 
       3.289091877084e-01       1.351796907782e-01 
       3.400460298905e-01       1.261629429278e-01 
       3.515999235695e-01       1.172003204772e-01 
       3.635962710278e-01       1.091751520032e-01 
       3.760637505499e-01       1.023076204320e-01 
       3.890349143014e-01       9.593575954417e-02 
       4.025469215929e-01       8.950530052458e-02 
       4.166424455447e-01       8.310978292155e-02 
       4.313708034899e-01       7.721341479533e-02 
       4.467893781976e-01       7.189828113022e-02 
       4.629654198623e-01       6.686672241957e-02 
       4.799783500912e-01       6.191541276423e-02 
       4.979227318246e-01       5.721982469337e-02 
       5.169121269689e-01       5.290050245122e-02 
       5.370841403262e-01       4.876712321277e-02 
       5.586070463286e-01       4.478810999250e-02 
       5.816885093582e-01       4.104904282641e-02 
       6.065870143577e-01       3.748691003543e-02 
       6.336266466978e-01       3.407321115925e-02 
       6.632156057925e-01       3.083147428467e-02 
       6.958678637575e-01       2.772512508751e-02 
       7.322247983784e-01       2.476375485413e-02 
       7.730680193171e-01       2.193612320987e-02 
       8.193049551574e-01       1.925250467642e-02 
       8.718988013754e-01       1.672546742338e-02 
       9.317218028590e-01       1.438018970392e-02 
       9.993660906273e-01       1.224645535108e-02 
       1.075037109879e+00       1.034817575279e-02 
       1.158653485387e+00       8.695021102143e-03 
       1.250099156961e+00       7.279624577485e-03 
       1.349432400897e+00       6.080223316258e-03 
       1.456947456991e+00       5.070244108305e-03 
       1.573135110893e+00       4.222524507581e-03 
       1.698621895119e+00       3.512471131150e-03 
       1.834127512423e+00       2.918599566201e-03 
       1.980444933977e+00       2.422451852522e-03 
       2.138435191130e+00       2.008477533318e-03 
       2.309029198543e+00       1.663405430752e-03 
       2.493232376993e+00       1.376078249152e-03 
       2.692130394536e+00       1.137073063165e-03 
       2.906895533764e+00       9.384416606133e-04 
       3.138793596840e+00       7.735056768474e-04 
       3.389191365541e+00       6.366789913222e-04 
       3.659564656886e+00       5.232555914457e-04 
       3.951507021438e+00       4.293088850381e-04 
       4.266739135513e+00       3.515521797763e-04 
       4.607118942658e+00       2.872417749633e-04 
       4.974652604172e+00       2.340907015608e-04 
       5.371506323193e+00       1.901935018803e-04 
       5.800019112071e+00       1.539713516970e-04 
       6.262716578240e+00       1.241062155394e-04 
       6.762325809881e+00       9.950945149287e-05 
       7.301791449077e+00       7.927958077483e-05 
       7.884293047211e+00       6.267146981442e-05 
       8.513263804891e+00       4.907013525564e-05 
       9.192410806865e+00       3.796876277956e-05 
       9.925736871166e+00       2.894967981049e-05 
       1.071756414128e+01       2.167077435152e-05 
       1.157255956041e+01       1.584920362525e-05 
       1.249576237789e+01       1.125140000313e-05 
       1.349261385000e+01       7.682654461711e-06 
       1.456898931011e+01       4.979370903932e-06 
       1.573123279727e+01       3.000902263819e-06 
       1.698619444729e+01       1.623749623418e-06 
       1.834127086665e+01       7.364361566280e-07 
       1.980444872733e+01       2.358234069836e-07 
       2.138435183937e+01       2.527987980339e-08 
       2.309029197863e+01       1.415772250551e-08 
       2.493232376942e+01       1.193605930309e-07 
       2.692130394533e+01       2.683793251698e-07 
       2.906895533764e+01       4.033028308876e-07 
       3.138793596840e+01       4.848985906854e-07 
       3.389191365541e+01       4.953806743309e-07 
       3.659564656886e+01       4.381404492262e-07 
       3.951507021438e+01       3.340657262592e-07 
       4.266739135513e+01       2.137379224307e-07 
       4.607118942658e+01       1.074478671723e-07 
       4.974652604172e+01       3.570792403931e-08 
       5.371506323193e+01       3.682543722534e-09 
       5.800019112071e+01       1.913395908827e-09 
       6.262716578240e+01       1.312267060631e-08 
       6.762325809881e+01       2.170910190485e-08 
