# Matter power spectrum P(k) at redshift z=0
# for k=1.04775e-05 to 67.6233 h/Mpc,
# number of wavenumbers equal to 246
#    1:k (h/Mpc)              2:P (Mpc/h)^3        
       1.047750691046e-05       5.020963918012e+01 
       1.131335172503e-05       5.407048210779e+01 
       1.221587619537e-05       5.822818816866e+01 
       1.319039970183e-05       6.270560918139e+01 
       1.424266597921e-05       6.752732239143e+01 
       1.537887696968e-05       7.271977205115e+01 
       1.660572937635e-05       7.831146791219e+01 
       1.793045413292e-05       8.433313271420e+01 
       1.936085902198e-05       9.081778249672e+01 
       2.090537469327e-05       9.780106872044e+01 
       2.257310435294e-05       1.053212749772e+02 
       2.437387741694e-05       1.134197356009e+02 
       2.631830744443e-05       1.221408205685e+02 
       2.841785469300e-05       1.315324604077e+02 
       3.068489366414e-05       1.416461722362e+02 
       3.313278603720e-05       1.525374501869e+02 
       3.577595942169e-05       1.642660589170e+02 
       3.862999239199e-05       1.768963636810e+02 
       4.171170630578e-05       1.904975985825e+02 
       4.503926444729e-05       2.051444278059e+02 
       4.863227907969e-05       2.209171465001e+02 
       5.251192703764e-05       2.379022223110e+02 
       5.670107454120e-05       2.561927838458e+02 
       6.122441196689e-05       2.758890340607e+02 
       6.610859936996e-05       2.970989292522e+02 
       7.138242361596e-05       3.199385573753e+02 
       7.707696804727e-05       3.445329780633e+02 
       8.322579568497e-05       3.710167324078e+02 
       8.986514704559e-05       3.995346445626e+02 
       9.703415373875e-05       4.302425392930e+02 
       1.047750691046e-04       4.633080764904e+02 
       1.131335172503e-04       4.989116272702e+02 
       1.221587619537e-04       5.372471936825e+02 
       1.319039970183e-04       5.785234108799e+02 
       1.424266597921e-04       6.229645938489e+02 
       1.537887696968e-04       6.708118471912e+02 
       1.660572937635e-04       7.223242662784e+02 
       1.793045413292e-04       7.777801548833e+02 
       1.936085902198e-04       8.374783606745e+02 
       2.090537469327e-04       9.017396266050e+02 
       2.257310435294e-04       9.709080264048e+02 
       2.437387741694e-04       1.045352447737e+03 
       2.631830744443e-04       1.125468121283e+03 
       2.841785469300e-04       1.211678177526e+03 
       3.068489366414e-04       1.304435246364e+03 
       3.313278603720e-04       1.404223048513e+03 
       3.577595942169e-04       1.511558009044e+03 
       3.862999239199e-04       1.626990830787e+03 
       4.171170630578e-04       1.751108021298e+03 
       4.503926444729e-04       1.884533371600e+03 
       4.863227907969e-04       2.027929365106e+03 
       5.251192703764e-04       2.181998429848e+03 
       5.670107454121e-04       2.347484080497e+03 
       6.122441196689e-04       2.525171842749e+03 
       6.610859936996e-04       2.715889948665e+03 
       7.138242361596e-04       2.920509644455e+03 
       7.707696804727e-04       3.139945039321e+03 
       8.322579568497e-04       3.375152267093e+03 
       8.986514704559e-04       3.627127743360e+03 
       9.703415373875e-04       3.896905340941e+03 
       1.047750691046e-03       4.185552032694e+03 
       1.131335172503e-03       4.494162251179e+03 
       1.221587619537e-03       4.823850480136e+03 
       1.319039970183e-03       5.175742456287e+03 
       1.424266597921e-03       5.551019219875e+03 
       1.537887696968e-03       5.950787824534e+03 
       1.660572937635e-03       6.376122373426e+03 
       1.793045413292e-03       6.828072994155e+03 
       1.936085902198e-03       7.307624165195e+03 
       2.090537469327e-03       7.815670157581e+03 
       2.257310435294e-03       8.352988107119e+03 
       2.437387741694e-03       8.920207938420e+03 
       2.631830744443e-03       9.517778722115e+03 
       2.841785469300e-03       1.014593094741e+04 
       3.068489366414e-03       1.080463657806e+04 
       3.313278603720e-03       1.149356243588e+04 
       3.577595942169e-03       1.221201888355e+04 
       3.862999239199e-03       1.295890072952e+04 
       4.171170630578e-03       1.373262467468e+04 
       4.503926444729e-03       1.453106846238e+04 
       4.863227907969e-03       1.535146566236e+04 
       5.251192703764e-03       1.619047147688e+04 
       5.670107454120e-03       1.704416428294e+04 
       6.122441196689e-03       1.790740565173e+04 
       6.610859936996e-03       1.877422824387e+04 
       7.138242361596e-03       1.963799215043e+04 
       7.707696804727e-03       2.049150854074e+04 
       8.322579568496e-03       2.132538100715e+04 
       8.986514704559e-03       2.212966492919e+04 
       9.703415373875e-03       2.289315193934e+04 
       1.047750691046e-02       2.360383701800e+04 
       1.131335172503e-02       2.424790010304e+04 
       1.221587619537e-02       2.481102174732e+04 
       1.319039970183e-02       2.527802444339e+04 
       1.424266597920e-02       2.563250993706e+04 
       1.537887696964e-02       2.585864550831e+04 
       1.660572937560e-02       2.594050973771e+04 
       1.793045412207e-02       2.586346154180e+04 
       1.936085889642e-02       2.561533140777e+04 
       2.090537351881e-02       2.518742915651e+04 
       2.257309534705e-02       2.457611910063e+04 
       2.437382002240e-02       2.378448956292e+04 
       2.631799943729e-02       2.282398889687e+04 
       2.841644544598e-02       2.171584949887e+04 
       3.067933354524e-02       2.049206308733e+04 
       3.311368469821e-02       1.919626869192e+04 
       3.571840442514e-02       1.788249454149e+04 
       3.847720347390e-02       1.661168697973e+04 
       4.135335537314e-02       1.544321468883e+04 
       4.429361666563e-02       1.442050798619e+04 
       4.724366437916e-02       1.356054997099e+04 
       5.016480834039e-02       1.285359676111e+04 
       5.303989618930e-02       1.227337128748e+04 
       5.586870668205e-02       1.178731868186e+04 
       5.866042679206e-02       1.136377735286e+04 
       6.142798931504e-02       1.097488685586e+04 
       6.418496438662e-02       1.059750094334e+04 
       6.694418832236e-02       1.021348542805e+04 
       6.971731104453e-02       9.809505120892e+03 
       7.251476154108e-02       9.377593885099e+03 
       7.534587669814e-02       8.914489744979e+03 
       7.821907664495e-02       8.422097124316e+03 
       8.114203771084e-02       7.906473702750e+03 
       8.412184533139e-02       7.377580418469e+03 
       8.716512277352e-02       6.847719438843e+03 
       9.027813693913e-02       6.330473354648e+03 
       9.346688429613e-02       5.839156047828e+03 
       9.673716026122e-02       5.385112951620e+03 
       1.000946150608e-01       4.976858211559e+03 
       1.035447986307e-01       4.618874019099e+03 
       1.070931966524e-01       4.311322690827e+03 
       1.107452594180e-01       4.049795438764e+03 
       1.145064248899e-01       3.825803606091e+03 
       1.183821370656e-01       3.627511576350e+03 
       1.223778605591e-01       3.440727314799e+03 
       1.264990921707e-01       3.251126663695e+03 
       1.307513701078e-01       3.046433635923e+03 
       1.351402814485e-01       2.819091293598e+03 
       1.396714683894e-01       2.568315974108e+03 
       1.443506337875e-01       2.300568402804e+03 
       1.491835464900e-01       2.028135027089e+03 
       1.541760469368e-01       1.765996415906e+03 
       1.593340535209e-01       1.527825290045e+03 
       1.646635701934e-01       1.322604019229e+03 
       1.701706958081e-01       1.152648095911e+03 
       1.758616357070e-01       1.013841119353e+03 
       1.817427160581e-01       8.970560284605e+02 
       1.878204014651e-01       7.917364881986e+02 
       1.941013163855e-01       6.874764202443e+02 
       2.005922709060e-01       5.788308864208e+02 
       2.073002914514e-01       4.677097367519e+02 
       2.142326570343e-01       3.616354804625e+02 
       2.213969417044e-01       2.689047645856e+02 
       2.288010639201e-01       1.943955895995e+02 
       2.364533436625e-01       1.383616129257e+02 
       2.443625682390e-01       9.721116536762e+01 
       2.525380678946e-01       6.584091959941e+01 
       2.609898025770e-01       4.051588429468e+01 
       2.697284614969e-01       2.035176503009e+01 
       2.787655775073e-01       6.590690130124e+00 
       2.881136588192e-01       4.424785004508e-01 
       2.977863412019e-01       1.072230652347e+00 
       3.077985646248e-01       6.118167362782e+00 
       3.181667793367e-01       1.372544446805e+01 
       3.289091877084e-01       2.345428495135e+01 
       3.400460298905e-01       3.543519258162e+01 
       3.515999235695e-01       4.873914476835e+01 
       3.635962710278e-01       6.124395051365e+01 
       3.760637505499e-01       7.101124889481e+01 
       3.890349143014e-01       7.797892207726e+01 
       4.025469215929e-01       8.284182014150e+01 
       4.166424455447e-01       8.546526711495e+01 
       4.313708034899e-01       8.470627280838e+01 
       4.467893781976e-01       8.016609295153e+01 
       4.629654198623e-01       7.266896946440e+01 
       4.799783500912e-01       6.329715624225e+01 
       4.979227318246e-01       5.241528157252e+01 
       5.169121269689e-01       4.049288534213e+01 
       5.370841403262e-01       2.878782394403e+01 
       5.586070463286e-01       1.831042973486e+01 
       5.816885093582e-01       9.725383274159e+00 
       6.065870143577e-01       3.711077847520e+00 
       6.336266466978e-01       5.703357893880e-01 
       6.632156057925e-01       1.186449646378e-01 
       6.958678637575e-01       1.688780534718e+00 
       7.322247983784e-01       4.138750174558e+00 
       7.730680193171e-01       6.078176961260e+00 
       8.193049551574e-01       6.366275378516e+00 
       8.718988013754e-01       4.743044371292e+00 
       9.317218028590e-01       2.199393837475e+00 
       9.993660906273e-01       3.670528576860e-01 
       1.075037109879e+00       3.881878228441e-02 
       1.158653485387e+00       4.622488811064e-01 
       1.250099156961e+00       5.402999537974e-01 
       1.349432400897e+00       2.053724866862e-01 
       1.456947456991e+00       4.369193503934e-03 
       1.573135110893e+00       3.698443353289e-02 
       1.698621895119e+00       4.891683340280e-02 
       1.834127512423e+00       8.409565822181e-03 
       1.980444933977e+00       1.561007679124e-03 
       2.138435191130e+00       5.004097978579e-03 
       2.309029198543e+00       5.518624330384e-04 
       2.493232376993e+00       3.412788656392e-04 
       2.692130394536e+00       2.476520535463e-04 
       2.906895533764e+00       8.211119270784e-06 
       3.138793596840e+00       3.150011053812e-05 
       3.389191365541e+00       5.183876699525e-07 
       3.659564656886e+00       1.791384452827e-06 
       3.951507021438e+00       2.744851444445e-07 
       4.266739135513e+00       2.217785914389e-08 
       4.607118942658e+00       1.228214307545e-08 
       4.974652604172e+00       4.803072738096e-09 
       5.371506323193e+00       2.157405832977e-13 
       5.800019112071e+00       1.189241940941e-10 
       6.262716578240e+00       2.825466094138e-11 
       6.762325809881e+00       1.384223675302e-11 
       7.301791449077e+00       3.570126910258e-12 
       7.884293047211e+00       6.091066850690e-13 
       8.513263804891e+00       3.210109536400e-14 
       9.192410806865e+00       4.945169729171e-14 
       9.925736871166e+00       1.664272026558e-13 
       1.071756414128e+01       7.228717805731e-14 
       1.157255956041e+01       6.959575618260e-17 
       1.249576237789e+01       9.508289336208e-15 
       1.349261385000e+01       8.551641593822e-15 
       1.456898931011e+01       1.787600533266e-15 
       1.573123279727e+01       2.984981309417e-16 
       1.698619444729e+01       4.083797933049e-16 
       1.834127086665e+01       7.621114658493e-18 
       1.980444872733e+01       8.787783565318e-18 
       2.138435183937e+01       7.778435017564e-22 
       2.309029197863e+01       3.243939437241e-19 
       2.493232376942e+01       3.943219649355e-18 
       2.692130394533e+01       1.551018253046e-19 
       2.906895533764e+01       1.746676897894e-19 
       3.138793596840e+01       1.496741583182e-19 
       3.389191365541e+01       1.606002767433e-19 
       3.659564656886e+01       1.022072141916e-21 
       3.951507021438e+01       1.232826745157e-20 
       4.266739135513e+01       3.672069032303e-20 
       4.607118942658e+01       2.071576812138e-20 
       4.974652604172e+01       2.079008555913e-21 
       5.371506323193e+01       1.130945190838e-22 
       5.800019112071e+01       1.470657612509e-21 
       6.262716578240e+01       6.868925698089e-22 
       6.762325809881e+01       5.491115577250e-22 
