# Matter power spectrum P(k) at redshift z=0
# for k=1.04775e-05 to 67.6233 h/Mpc,
# number of wavenumbers equal to 246
#    1:k (h/Mpc)              2:P (Mpc/h)^3        
       1.047750691046e-05       5.020964811308e+01 
       1.131335172503e-05       5.407050701928e+01 
       1.221587619537e-05       5.822819068528e+01 
       1.319039970183e-05       6.270562594779e+01 
       1.424266597921e-05       6.752732240880e+01 
       1.537887696968e-05       7.271977206173e+01 
       1.660572937635e-05       7.831147247912e+01 
       1.793045413292e-05       8.433311821988e+01 
       1.936085902198e-05       9.081778249833e+01 
       2.090537469327e-05       9.780108069295e+01 
       2.257310435294e-05       1.053213197893e+02 
       2.437387741694e-05       1.134197377890e+02 
       2.631830744443e-05       1.221408203809e+02 
       2.841785469300e-05       1.315324642462e+02 
       3.068489366414e-05       1.416462094882e+02 
       3.313278603720e-05       1.525374501932e+02 
       3.577595942169e-05       1.642660688414e+02 
       3.862999239199e-05       1.768963506307e+02 
       4.171170630578e-05       1.904975994010e+02 
       4.503926444729e-05       2.051444491973e+02 
       4.863227907969e-05       2.209171465549e+02 
       5.251192703764e-05       2.379022224249e+02 
       5.670107454120e-05       2.561927927655e+02 
       6.122441196689e-05       2.758890444040e+02 
       6.610859936996e-05       2.970989227880e+02 
       7.138242361596e-05       3.199385560802e+02 
       7.707696804727e-05       3.445329783680e+02 
       8.322579568497e-05       3.710167318945e+02 
       8.986514704559e-05       3.995346444203e+02 
       9.703415373875e-05       4.302425407383e+02 
       1.047750691046e-04       4.633080766742e+02 
       1.131335172503e-04       4.989116271564e+02 
       1.221587619537e-04       5.372471950929e+02 
       1.319039970183e-04       5.785234129341e+02 
       1.424266597921e-04       6.229645936045e+02 
       1.537887696968e-04       6.708118490405e+02 
       1.660572937635e-04       7.223242666092e+02 
       1.793045413292e-04       7.777801560616e+02 
       1.936085902198e-04       8.374783614140e+02 
       2.090537469327e-04       9.017396271824e+02 
       2.257310435294e-04       9.709080268041e+02 
       2.437387741694e-04       1.045352449493e+03 
       2.631830744443e-04       1.125468123750e+03 
       2.841785469300e-04       1.211678180495e+03 
       3.068489366414e-04       1.304435250150e+03 
       3.313278603720e-04       1.404223053681e+03 
       3.577595942169e-04       1.511558014616e+03 
       3.862999239199e-04       1.626990837846e+03 
       4.171170630578e-04       1.751108028790e+03 
       4.503926444729e-04       1.884533382872e+03 
       4.863227907969e-04       2.027929378112e+03 
       5.251192703764e-04       2.181998448133e+03 
       5.670107454121e-04       2.347484102755e+03 
       6.122441196689e-04       2.525171871365e+03 
       6.610859936996e-04       2.715889983592e+03 
       7.138242361596e-04       2.920509688385e+03 
       7.707696804727e-04       3.139945100279e+03 
       8.322579568497e-04       3.375152337587e+03 
       8.986514704559e-04       3.627127831141e+03 
       9.703415373875e-04       3.896905453136e+03 
       1.047750691046e-03       4.185552174300e+03 
       1.131335172503e-03       4.494162430373e+03 
       1.221587619537e-03       4.823850706497e+03 
       1.319039970183e-03       5.175742743857e+03 
       1.424266597921e-03       5.551019596907e+03 
       1.537887696968e-03       5.950788340556e+03 
       1.660572937635e-03       6.376123051794e+03 
       1.793045413292e-03       6.828073901446e+03 
       1.936085902198e-03       7.307625381066e+03 
       2.090537469327e-03       7.815671903968e+03 
       2.257310435294e-03       8.352990375819e+03 
       2.437387741694e-03       8.920211064355e+03 
       2.631830744443e-03       9.517783069112e+03 
       2.841785469300e-03       1.014593704435e+04 
       3.068489366414e-03       1.080464502784e+04 
       3.313278603720e-03       1.149357460346e+04 
       3.577595942169e-03       1.221203621722e+04 
       3.862999239199e-03       1.295892539446e+04 
       4.171170630578e-03       1.373266013615e+04 
       4.503926444729e-03       1.453111835625e+04 
       4.863227907969e-03       1.535154985300e+04 
       5.251192703764e-03       1.619063614558e+04 
       5.670107454120e-03       1.704431257766e+04 
       6.122441196689e-03       1.790755939646e+04 
       6.610859936996e-03       1.877460418864e+04 
       7.138242361596e-03       1.963872430355e+04 
       7.707696804727e-03       2.049215714572e+04 
       8.322579568496e-03       2.132607231773e+04 
       8.986514704559e-03       2.213055075948e+04 
       9.703415373875e-03       2.289445472126e+04 
       1.047750691046e-02       2.360548963361e+04 
       1.131335172503e-02       2.425023454633e+04 
       1.221587619537e-02       2.481423922404e+04 
       1.319039970183e-02       2.528218800803e+04 
       1.424266597920e-02       2.563814219384e+04 
       1.537887696964e-02       2.586608042291e+04 
       1.660572937560e-02       2.595026505962e+04 
       1.793045412207e-02       2.587634738877e+04 
       1.936085889642e-02       2.563221768728e+04 
       2.090537351881e-02       2.520935455387e+04 
       2.257309534705e-02       2.460446386570e+04 
       2.437382002240e-02       2.382088659148e+04 
       2.631799943729e-02       2.287049938837e+04 
       2.841644544598e-02       2.177451846470e+04 
       3.067933354524e-02       2.056552976182e+04 
       3.311368469821e-02       1.928731921187e+04 
       3.571840442514e-02       1.799400339586e+04 
       3.847720347390e-02       1.674696206022e+04 
       4.135335537314e-02       1.560459410850e+04 
       4.429361666563e-02       1.461032495962e+04 
       4.724366437916e-02       1.378055975626e+04 
       5.016480834039e-02       1.310508277818e+04 
       5.303989618930e-02       1.255715766753e+04 
       5.586870668205e-02       1.210425876971e+04 
       5.866042679206e-02       1.171464388153e+04 
       6.142798931504e-02       1.136046123342e+04 
       6.418496438662e-02       1.101858291910e+04 
       6.694418832236e-02       1.067069772133e+04 
       6.971731104453e-02       1.030358775002e+04 
       7.251476154108e-02       9.908990146135e+03 
       7.534587669814e-02       9.483773105133e+03 
       7.821907664495e-02       9.029478640608e+03 
       8.114203771084e-02       8.552324754765e+03 
       8.412184533139e-02       8.061946348552e+03 
       8.716512277352e-02       7.570766768181e+03 
       9.027813693913e-02       7.092507975058e+03 
       9.346688429613e-02       6.640527460221e+03 
       9.673716026122e-02       6.226690320123e+03 
       1.000946150608e-01       5.859939994020e+03 
       1.035447986307e-01       5.545240238725e+03 
       1.070931966524e-01       5.283132201960e+03 
       1.107452594180e-01       5.069423826978e+03 
       1.145064248899e-01       4.895243326675e+03 
       1.183821370656e-01       4.747858576032e+03 
       1.223778605591e-01       4.611739705585e+03 
       1.264990921707e-01       4.470628962001e+03 
       1.307513701078e-01       4.310274098031e+03 
       1.351402814485e-01       4.121385483328e+03 
       1.396714683894e-01       3.902060787959e+03 
       1.443506337875e-01       3.658640107302e+03 
       1.491835464900e-01       3.404487071448e+03 
       1.541760469368e-01       3.156682613111e+03 
       1.593340535209e-01       2.931970174036e+03 
       1.646635701934e-01       2.742375900298e+03 
       1.701706958081e-01       2.592259169400e+03 
       1.758616357070e-01       2.477239607302e+03 
       1.817427160581e-01       2.385192548987e+03 
       1.878204014651e-01       2.300355728624e+03 
       1.941013163855e-01       2.205757382704e+03 
       2.005922709060e-01       2.090814386620e+03 
       2.073002914514e-01       1.956466955194e+03 
       2.142326570343e-01       1.814192445434e+03 
       2.213969417044e-01       1.679296275687e+03 
       2.288010639201e-01       1.563849294999e+03 
       2.364533436625e-01       1.472686528083e+03 
       2.443625682390e-01       1.401513165485e+03 
       2.525380678946e-01       1.338418199618e+03 
       2.609898025770e-01       1.270903382842e+03 
       2.697284614969e-01       1.193383649707e+03 
       2.787655775073e-01       1.109340610186e+03 
       2.881136588192e-01       1.028770786001e+03 
       2.977863412019e-01       9.604782858311e+02 
       3.077985646248e-01       9.050251406406e+02 
       3.181667793367e-01       8.561456047005e+02 
       3.289091877084e-01       8.061884508411e+02 
       3.400460298905e-01       7.523916690161e+02 
       3.515999235695e-01       6.989261247177e+02 
       3.635962710278e-01       6.510639591590e+02 
       3.760637505499e-01       6.101262387475e+02 
       3.890349143014e-01       5.721331612721e+02 
       4.025469215929e-01       5.337831715263e+02 
       4.166424455447e-01       4.956317528219e+02 
       4.313708034899e-01       4.604707428377e+02 
       4.467893781976e-01       4.287785300508e+02 
       4.629654198623e-01       3.987728185333e+02 
       4.799783500912e-01       3.692424089566e+02 
       4.979227318246e-01       3.412408303153e+02 
       5.169121269689e-01       3.154844031737e+02 
       5.370841403262e-01       2.908361534669e+02 
       5.586070463286e-01       2.671070614335e+02 
       5.816885093582e-01       2.448106524921e+02 
       6.065870143577e-01       2.235681866799e+02 
       6.336266466978e-01       2.032112558280e+02 
       6.632156057925e-01       1.838791675199e+02 
       6.958678637575e-01       1.653547879797e+02 
       7.322247983784e-01       1.476956967635e+02 
       7.730680193171e-01       1.308340801046e+02 
       8.193049551574e-01       1.148312277002e+02 
       8.718988013754e-01       9.976289374805e+01 
       9.317218028590e-01       8.577830309698e+01 
       9.993660906273e-01       7.305507101684e+01 
       1.075037109879e+00       6.173631394866e+01 
       1.158653485387e+00       5.187926634269e+01 
       1.250099156961e+00       4.344040116363e+01 
       1.349432400897e+00       3.628941633773e+01 
       1.456947456991e+00       3.026803188022e+01 
       1.573135110893e+00       2.521455126831e+01 
       1.698621895119e+00       2.098204010247e+01 
       1.834127512423e+00       1.744237971407e+01 
       1.980444933977e+00       1.448567940404e+01 
       2.138435191130e+00       1.201889670041e+01 
       2.309029198543e+00       9.963110279301e+00 
       2.493232376993e+00       8.251840559252e+00 
       2.692130394536e+00       6.828604210669e+00 
       2.906895533764e+00       5.646210381294e+00 
       3.138793596840e+00       4.664833328360e+00 
       3.389191365541e+00       3.851080917395e+00 
       3.659564656886e+00       3.176903626173e+00 
       3.951507021438e+00       2.618825834956e+00 
       4.266739135513e+00       2.157289925189e+00 
       4.607118942658e+00       1.775873960064e+00 
       4.974652604172e+00       1.460932526462e+00 
       5.371506323193e+00       1.201074795860e+00 
       5.800019112071e+00       9.868186613939e-01 
       6.262716578240e+00       8.102905615053e-01 
       6.762325809881e+00       6.649428450365e-01 
       7.301791449077e+00       5.453571753776e-01 
       7.884293047211e+00       4.470343047732e-01 
       8.513263804891e+00       3.662327132314e-01 
       9.192410806865e+00       2.998743900448e-01 
       9.925736871166e+00       2.454149974695e-01 
       1.071756414128e+01       2.007407351810e-01 
       1.157255956041e+01       1.641195832138e-01 
       1.249576237789e+01       1.341121395098e-01 
       1.349261385000e+01       1.095380585895e-01 
       1.456898931011e+01       8.942451903522e-02 
       1.573123279727e+01       7.297007950698e-02 
       1.698619444729e+01       5.951493344064e-02 
       1.834127086665e+01       4.851820124333e-02 
       1.980444872733e+01       3.953468359267e-02 
       2.138435183937e+01       3.219979478519e-02 
       2.309029197863e+01       2.621273607561e-02 
       2.493232376942e+01       2.132830237912e-02 
       2.692130394533e+01       1.734535385345e-02 
       2.906895533764e+01       1.409878883772e-02 
       3.138793596840e+01       1.145357679539e-02 
       3.389191365541e+01       9.299066739429e-03 
       3.659564656886e+01       7.545192674818e-03 
       3.951507021438e+01       6.117888973208e-03 
       4.266739135513e+01       4.956890758373e-03 
       4.607118942658e+01       4.012828875187e-03 
       4.974652604172e+01       3.245753387215e-03 
       5.371506323193e+01       2.622466390723e-03 
       5.800019112071e+01       2.116404183589e-03 
       6.262716578240e+01       1.705647765680e-03 
       6.762325809881e+01       1.372580880799e-03 
