# Matter power spectrum P(k) at redshift z=0
# for k=1.04775e-05 to 66.1767 h/Mpc,
# number of wavenumbers equal to 130
#    1:k (h/Mpc)              2:P (Mpc/h)^3        
       1.047750691046e-05       5.020964811308e+01 
       1.319039970183e-05       6.270562594780e+01 
       1.660572937635e-05       7.831147247912e+01 
       2.090537469327e-05       9.780108069296e+01 
       2.631830744443e-05       1.221408203809e+02 
       3.313278603720e-05       1.525374501932e+02 
       4.171170630578e-05       1.904975994009e+02 
       5.251192703764e-05       2.379022224249e+02 
       6.610859936996e-05       2.970989227882e+02 
       8.322579568497e-05       3.710167318946e+02 
       1.047750691046e-04       4.633080766742e+02 
       1.319039970183e-04       5.785234129335e+02 
       1.660572937635e-04       7.223242666092e+02 
       2.090537469327e-04       9.017396271824e+02 
       2.631830744443e-04       1.125468123750e+03 
       3.313278603720e-04       1.404223053681e+03 
       4.171170630578e-04       1.751108028790e+03 
       5.251192703764e-04       2.181998448133e+03 
       6.610859936996e-04       2.715889983592e+03 
       8.322579568497e-04       3.375152337134e+03 
       1.047750691046e-03       4.185552174306e+03 
       1.319039970183e-03       5.175742740965e+03 
       1.660572937635e-03       6.376123051775e+03 
       2.090537469327e-03       7.815671865991e+03 
       2.631830744443e-03       9.517783069112e+03 
       3.313278603720e-03       1.149357460342e+04 
       4.171170630578e-03       1.373266010326e+04 
       5.251192703764e-03       1.619063614560e+04 
       6.610859936996e-03       1.877460443695e+04 
       8.322579568497e-03       2.132607231850e+04 
       1.047750691046e-02       2.360547660845e+04 
       1.319039970183e-02       2.528218673290e+04 
       1.660572937633e-02       2.595026991114e+04 
       2.090537453514e-02       2.520935380328e+04 
       2.631818545635e-02       2.287032808661e+04 
       3.311571692125e-02       1.928625013516e+04 
       4.113809243311e-02       1.568424392076e+04 
       4.792590854610e-02       1.361065778128e+04 
       5.284436902701e-02       1.259129426010e+04 
       5.689644391095e-02       1.195552150244e+04 
       6.051252627066e-02       1.147548289554e+04 
       6.388413457411e-02       1.105590695780e+04 
       6.711249296401e-02       1.064898690784e+04 
       7.025823437965e-02       1.022928342806e+04 
       7.336115587705e-02       9.784540381643e+03 
       7.644928796912e-02       9.311662615381e+03 
       7.954353299775e-02       8.814532361196e+03 
       8.266024078725e-02       8.302114761972e+03 
       8.581273398637e-02       7.786943468075e+03 
       8.901225918437e-02       7.283169162031e+03 
       9.226860540985e-02       6.805164863152e+03 
       9.559052048996e-02       6.365674567934e+03 
       9.898599946599e-02       5.974402459077e+03 
       1.024624891378e-01       5.637314144567e+03 
       1.060270359164e-01       5.355761269774e+03 
       1.096863943056e-01       5.126228790298e+03 
       1.134471073830e-01       4.940476019253e+03 
       1.173155669539e-01       4.786173949824e+03 
       1.212980586983e-01       4.647916435456e+03 
       1.254007961065e-01       4.509159793599e+03 
       1.296299459934e-01       4.354565385170e+03 
       1.339916477160e-01       4.173204208887e+03 
       1.384920277736e-01       3.961166682920e+03 
       1.431372111762e-01       3.722681413311e+03 
       1.479333307714e-01       3.469553983576e+03 
       1.528865355934e-01       3.218336380109e+03 
       1.580029992204e-01       2.986294461275e+03 
       1.632889290723e-01       2.786960714019e+03 
       1.687505775527e-01       2.626832269859e+03 
       1.743942559171e-01       2.503756647703e+03 
       1.802263517371e-01       2.407339088849e+03 
       1.862533508214e-01       2.322250831231e+03 
       1.924818644494e-01       2.231550910530e+03 
       1.989186627765e-01       2.122188477046e+03 
       2.055707152847e-01       1.992032414029e+03 
       2.124452391818e-01       1.850325314891e+03 
       2.195497567139e-01       1.712185900555e+03 
       2.268921624510e-01       1.590992280628e+03 
       2.344808017550e-01       1.493670873044e+03 
       2.423245618548e-01       1.418310642931e+03 
       2.504329772620e-01       1.354466613612e+03 
       2.588163516754e-01       1.288932522705e+03 
       2.674858990930e-01       1.213937919140e+03 
       2.764539076010e-01       1.130693891507e+03 
       2.857339303080e-01       1.048100916856e+03 
       2.953410092148e-01       9.761820537955e+02 
       3.052919395542e-01       9.178123939155e+02 
       3.156055844677e-01       8.678976443004e+02 
       3.263032530092e-01       8.185270718553e+02 
       3.374091587054e-01       7.651478308726e+02 
       3.489509817175e-01       7.106733838855e+02 
       3.609605657343e-01       6.607846530211e+02 
       3.734747921333e-01       6.180873355906e+02 
       3.865366902904e-01       5.793103089902e+02 
       4.001968667448e-01       5.403915779127e+02 
       4.145153713076e-01       5.011529130807e+02 
       4.295641718077e-01       4.644990138033e+02 
       4.454304922144e-01       4.314088678296e+02 
       4.622214006969e-01       4.001142649974e+02 
       4.800702491654e-01       3.690894916515e+02 
       4.991459272112e-01       3.394777683749e+02 
       5.196665217302e-01       3.119860479068e+02 
       5.419201087032e-01       2.852475590594e+02 
       5.662975451962e-01       2.593303534475e+02 
       5.933463737275e-01       2.345483214577e+02 
       6.238638458458e-01       2.102313209693e+02 
       6.590669257916e-01       1.864337111332e+02 
       7.009246080454e-01       1.627254494475e+02 
       7.528593308799e-01       1.388185615351e+02 
       8.213469537518e-01       1.141880265043e+02 
       9.196980813302e-01       8.835917127896e+01 
       1.075112183810e+00       6.172608329186e+01 
       1.322697471132e+00       3.804292443461e+01 
       1.662328205042e+00       2.209813771148e+01 
       2.092692408506e+00       1.266928336510e+01 
       2.634543445090e+00       7.203363207709e+00 
       3.316693691389e+00       4.065152080361e+00 
       4.175469971226e+00       2.278631943796e+00 
       5.256605252960e+00       1.269358727822e+00 
       6.617673932723e+00       7.031415751973e-01 
       8.331157880872e+00       3.874790323238e-01 
       1.048830636590e+01       2.125106349468e-01 
       1.320399541071e+01       1.160360152132e-01 
       1.662284535976e+01       6.309920273568e-02 
       2.092692243973e+01       3.417952651442e-02 
       2.634543445002e+01       1.844620158045e-02 
       3.316693691389e+01       9.919204648064e-03 
       4.175469971226e+01       5.314599310998e-03 
       5.256605252960e+01       2.836654161741e-03 
       6.617673932723e+01       1.507705357225e-03 
