# Matter power spectrum P(k) at redshift z=0
# for k=1.04775e-05 to 66.1767 h/Mpc,
# number of wavenumbers equal to 130
#    1:k (h/Mpc)              2:P (Mpc/h)^3        
       1.047750691046e-05       5.020964811308e+01 
       1.319039970183e-05       6.270562594783e+01 
       1.660572937635e-05       7.831147247912e+01 
       2.090537469327e-05       9.780108069296e+01 
       2.631830744443e-05       1.221408203809e+02 
       3.313278603720e-05       1.525374501932e+02 
       4.171170630578e-05       1.904975994009e+02 
       5.251192703764e-05       2.379022224249e+02 
       6.610859936996e-05       2.970989227881e+02 
       8.322579568497e-05       3.710167318945e+02 
       1.047750691046e-04       4.633080766742e+02 
       1.319039970183e-04       5.785234129339e+02 
       1.660572937635e-04       7.223242666092e+02 
       2.090537469327e-04       9.017396271824e+02 
       2.631830744443e-04       1.125468123750e+03 
       3.313278603720e-04       1.404223053681e+03 
       4.171170630578e-04       1.751108028790e+03 
       5.251192703764e-04       2.181998448133e+03 
       6.610859936996e-04       2.715889983591e+03 
       8.322579568497e-04       3.375152337133e+03 
       1.047750691046e-03       4.185552174297e+03 
       1.319039970183e-03       5.175742743228e+03 
       1.660572937635e-03       6.376123051770e+03 
       2.090537469327e-03       7.815671866147e+03 
       2.631830744443e-03       9.517783069085e+03 
       3.313278603720e-03       1.149357460339e+04 
       4.171170630578e-03       1.373266010029e+04 
       5.251192703764e-03       1.619063611588e+04 
       6.610859936996e-03       1.877460424419e+04 
       8.322579568497e-03       2.132607255453e+04 
       1.047750691046e-02       2.360548880180e+04 
       1.319039970183e-02       2.528218762819e+04 
       1.660572937633e-02       2.595027496849e+04 
       2.090537453514e-02       2.520934631747e+04 
       2.631818545635e-02       2.287029336944e+04 
       3.311571692125e-02       1.928622599827e+04 
       4.113809243311e-02       1.568426719782e+04 
       4.792590854610e-02       1.361062237562e+04 
       5.284436902701e-02       1.259127520098e+04 
       5.689644391095e-02       1.195560108873e+04 
       6.051252627066e-02       1.147550263981e+04 
       6.388413457411e-02       1.105592833579e+04 
       6.711249296401e-02       1.064901643374e+04 
       7.025823437965e-02       1.022933258489e+04 
       7.336115587705e-02       9.784523912656e+03 
       7.644928796912e-02       9.311689331653e+03 
       7.954353299775e-02       8.814593518761e+03 
       8.266024078725e-02       8.302175019718e+03 
       8.581273398637e-02       7.786972974320e+03 
       8.901225918437e-02       7.283236782512e+03 
       9.226860540985e-02       6.805195550508e+03 
       9.559052048996e-02       6.365648661157e+03 
       9.898599946599e-02       5.974419546728e+03 
       1.024624891378e-01       5.637370165733e+03 
       1.060270359164e-01       5.355794197324e+03 
       1.096863943056e-01       5.126241869164e+03 
       1.134471073830e-01       4.940516653525e+03 
       1.173155669539e-01       4.786168993092e+03 
       1.212980586983e-01       4.647941187699e+03 
       1.254007961065e-01       4.509079733512e+03 
       1.296299459934e-01       4.354550174701e+03 
       1.339916477160e-01       4.173234173928e+03 
       1.384920277736e-01       3.961153111636e+03 
       1.431372111762e-01       3.722630718855e+03 
       1.479333307714e-01       3.469547389872e+03 
       1.528865355934e-01       3.218325028711e+03 
       1.580029992204e-01       2.986261993664e+03 
       1.632889290723e-01       2.786944665878e+03 
       1.687505775527e-01       2.626808998752e+03 
       1.743942559171e-01       2.503756740108e+03 
       1.802263517371e-01       2.407303013769e+03 
       1.862533508214e-01       2.322256640427e+03 
       1.924818644494e-01       2.231569645392e+03 
       1.989186627765e-01       2.122194086444e+03 
       2.055707152847e-01       1.991994043857e+03 
       2.124452391818e-01       1.850293986967e+03 
       2.195497567139e-01       1.712157113344e+03 
       2.268921624510e-01       1.590974076156e+03 
       2.344808017550e-01       1.493657680677e+03 
       2.423245618548e-01       1.418301574166e+03 
       2.504329772620e-01       1.354443286117e+03 
       2.588163516754e-01       1.288932871451e+03 
       2.674858990930e-01       1.213906436959e+03 
       2.764539076010e-01       1.130680591618e+03 
       2.857339303080e-01       1.048086769916e+03 
       2.953410092148e-01       9.761743322817e+02 
       3.052919395542e-01       9.178033441808e+02 
       3.156055844677e-01       8.678842043823e+02 
       3.263032530092e-01       8.185247032232e+02 
       3.374091587054e-01       7.651424252862e+02 
       3.489509817175e-01       7.106559111524e+02 
       3.609605657343e-01       6.607769417810e+02 
       3.734747921333e-01       6.180789044382e+02 
       3.865366902904e-01       5.792994225232e+02 
       4.001968667448e-01       5.403820918039e+02 
       4.145153713076e-01       5.011439337779e+02 
       4.295641718077e-01       4.644947288239e+02 
       4.454304922144e-01       4.314019761403e+02 
       4.622214006969e-01       4.001098054128e+02 
       4.800702491654e-01       3.690832190122e+02 
       4.991459272112e-01       3.394708071628e+02 
       5.196665217302e-01       3.119796971618e+02 
       5.419201087032e-01       2.852420001371e+02 
       5.662975451962e-01       2.593263353118e+02 
       5.933463737275e-01       2.345439858526e+02 
       6.238638458458e-01       2.102282407468e+02 
       6.590669257916e-01       1.864317437333e+02 
       7.009246080454e-01       1.627237570229e+02 
       7.528593308799e-01       1.388167874689e+02 
       8.213469537518e-01       1.141875021908e+02 
       9.196980813302e-01       8.835832293836e+01 
       1.075112183810e+00       6.172531350558e+01 
       1.322697471132e+00       3.804232675043e+01 
       1.662328205042e+00       2.209734398652e+01 
       2.092692408506e+00       1.266870471362e+01 
       2.634543445090e+00       7.202786030992e+00 
       3.316693691389e+00       4.064649844007e+00 
       4.175469971226e+00       2.278109894405e+00 
       5.256605252960e+00       1.268823484249e+00 
       6.617673932723e+00       7.025776371857e-01 
       8.331157880872e+00       3.868829196200e-01 
       1.048830636590e+01       2.118714318519e-01 
       1.320399541071e+01       1.153431780943e-01 
       1.662284535976e+01       6.234348539334e-02 
       2.092692243973e+01       3.335741125355e-02 
       2.634543445002e+01       1.755825994166e-02 
       3.316693691389e+01       8.977504672071e-03 
       4.175469971226e+01       4.347014154936e-03 
       5.256605252960e+01       1.893877548258e-03 
       6.617673932723e+01       6.644847490935e-04 
