# Matter power spectrum P(k) at redshift z=99
# for k=1.04775e-05 to 66.1767 h/Mpc,
# number of wavenumbers equal to 130
#    1:k (h/Mpc)              2:P (Mpc/h)^3        
       1.047750691046e-05       7.261927680862e-03 
       1.319039970183e-05       9.069258201849e-03 
       1.660572937635e-05       1.132639106725e-02 
       2.090537469327e-05       1.414527123399e-02 
       2.631830744443e-05       1.766569584058e-02 
       3.313278603720e-05       2.206225515942e-02 
       4.171170630578e-05       2.755297766277e-02 
       5.251192703764e-05       3.441013522947e-02 
       6.610859936996e-05       4.297372172778e-02 
       8.322579568497e-05       5.366826852944e-02 
       1.047750691046e-04       6.702379872775e-02 
       1.319039970183e-04       8.370193441287e-02 
       1.660572937635e-04       1.045283355384e-01 
       2.090537469327e-04       1.305329134104e-01 
       2.631830744443e-04       1.629994506605e-01 
       3.313278603720e-04       2.035264004601e-01 
       4.171170630578e-04       2.541004744243e-01 
       5.251192703764e-04       3.171839528557e-01 
       6.610859936996e-04       3.958147256513e-01 
       8.322579568497e-04       4.937136006271e-01 
       1.047750691046e-03       6.153841636042e-01 
       1.319039970183e-03       7.661720592910e-01 
       1.660572937635e-03       9.522588016476e-01 
       2.090537469327e-03       1.180312991698e+00 
       2.631830744443e-03       1.456802684686e+00 
       3.313278603720e-03       1.786503854039e+00 
       4.171170630578e-03       2.169896194495e+00 
       5.251192703764e-03       2.599430630720e+00 
       6.610859936996e-03       3.055668704947e+00 
       8.322579568497e-03       3.505725598379e+00 
       1.047750691046e-02       3.905491509777e+00 
       1.319039970183e-02       4.200915391924e+00 
       1.660572937633e-02       4.325061192152e+00 
       2.090537453514e-02       4.210203821422e+00 
       2.631818545635e-02       3.825153243489e+00 
       3.311571692125e-02       3.229067890848e+00 
       4.113809243311e-02       2.627733121803e+00 
       4.792590854610e-02       2.280795524098e+00 
       5.284436902701e-02       2.110088623829e+00 
       5.689644391095e-02       2.003539030258e+00 
       6.051252627066e-02       1.923052317009e+00 
       6.388413457411e-02       1.852730911608e+00 
       6.711249296401e-02       1.784564108582e+00 
       7.025823437965e-02       1.714276436142e+00 
       7.336115587705e-02       1.639815350665e+00 
       7.644928796912e-02       1.560661682819e+00 
       7.954353299775e-02       1.477458350117e+00 
       8.266024078725e-02       1.391698046791e+00 
       8.581273398637e-02       1.305463617868e+00 
       8.901225918437e-02       1.221127453730e+00 
       9.226860540985e-02       1.141081328120e+00 
       9.559052048996e-02       1.067447690136e+00 
       9.898599946599e-02       1.001891936479e+00 
       1.024624891378e-01       9.453827958484e-01 
       1.060270359164e-01       8.981491870809e-01 
       1.096863943056e-01       8.596128153033e-01 
       1.134471073830e-01       8.284046804341e-01 
       1.173155669539e-01       8.024677753290e-01 
       1.212980586983e-01       7.792288000837e-01 
       1.254007961065e-01       7.559195960733e-01 
       1.296299459934e-01       7.299838417011e-01 
       1.339916477160e-01       6.995937619747e-01 
       1.384920277736e-01       6.640778575699e-01 
       1.431372111762e-01       6.241450859586e-01 
       1.479333307714e-01       5.817634030253e-01 
       1.528865355934e-01       5.396942629276e-01 
       1.580029992204e-01       5.008127231135e-01 
       1.632889290723e-01       4.673991541026e-01 
       1.687505775527e-01       4.405344123744e-01 
       1.743942559171e-01       4.198653017383e-01 
       1.802263517371e-01       4.036608366736e-01 
       1.862533508214e-01       3.893595424772e-01 
       1.924818644494e-01       3.741357729250e-01 
       1.989186627765e-01       3.558025110041e-01 
       2.055707152847e-01       3.340002564443e-01 
       2.124452391818e-01       3.102657759437e-01 
       2.195497567139e-01       2.871228573147e-01 
       2.268921624510e-01       2.668079615024e-01 
       2.344808017550e-01       2.504835848316e-01 
       2.423245618548e-01       2.378333722150e-01 
       2.504329772620e-01       2.271115110868e-01 
       2.588163516754e-01       2.161175204945e-01 
       2.674858990930e-01       2.035448572868e-01 
       2.764539076010e-01       1.895989273311e-01 
       2.857339303080e-01       1.757570635807e-01 
       2.953410092148e-01       1.636992261197e-01 
       3.052919395542e-01       1.539066855385e-01 
       3.156055844677e-01       1.455309361213e-01 
       3.263032530092e-01       1.372506417126e-01 
       3.374091587054e-01       1.283025581928e-01 
       3.489509817175e-01       1.191710670674e-01 
       3.609605657343e-01       1.108072317057e-01 
       3.734747921333e-01       1.036450163564e-01 
       3.865366902904e-01       9.714147096916e-02 
       4.001968667448e-01       9.061553139470e-02 
       4.145153713076e-01       8.403722116473e-02 
       4.295641718077e-01       7.789111223622e-02 
       4.454304922144e-01       7.234178994099e-02 
       4.622214006969e-01       6.709372124024e-02 
       4.800702491654e-01       6.189187048102e-02 
       4.991459272112e-01       5.692631670491e-02 
       5.196665217302e-01       5.231607976539e-02 
       5.419201087032e-01       4.783260452538e-02 
       5.662975451962e-01       4.348685814031e-02 
       5.933463737275e-01       3.933100596925e-02 
       6.238638458458e-01       3.525339385815e-02 
       6.590669257916e-01       3.126298445752e-02 
       7.009246080454e-01       2.728737924138e-02 
       7.528593308799e-01       2.327843683265e-02 
       8.213469537518e-01       1.914825177631e-02 
       9.196980813302e-01       1.481705568616e-02 
       1.075112183810e+00       1.035095570311e-02 
       1.322697471132e+00       6.379454758230e-03 
       1.662328205042e+00       3.705656959757e-03 
       2.092692408506e+00       2.124529913910e-03 
       2.634543445090e+00       1.207956502554e-03 
       3.316693691389e+00       6.817062005216e-04 
       4.175469971226e+00       3.821153821434e-04 
       5.256605252960e+00       2.128705588184e-04 
       6.617673932723e+00       1.179181216156e-04 
       8.331157880872e+00       6.498318230382e-05 
       1.048830636590e+01       3.564172468197e-05 
       1.320399541071e+01       1.946272878413e-05 
       1.662284535976e+01       1.058453344894e-05 
       2.092692243973e+01       5.734308825196e-06 
       2.634543445002e+01       3.095317426345e-06 
       3.316693691389e+01       1.664940272405e-06 
       4.175469971226e+01       8.923896687638e-07 
       5.256605252960e+01       4.765346421423e-07 
       6.617673932723e+01       2.534062245192e-07 
