# Matter power spectrum P(k) at redshift z=99
# for k=1.04775e-05 to 66.1767 h/Mpc,
# number of wavenumbers equal to 130
#    1:k (h/Mpc)              2:P (Mpc/h)^3        
       1.047750691046e-05       7.261927680900e-03 
       1.319039970183e-05       9.069258201896e-03 
       1.660572937635e-05       1.132639106731e-02 
       2.090537469327e-05       1.414527123407e-02 
       2.631830744443e-05       1.766569584067e-02 
       3.313278603720e-05       2.206225515954e-02 
       4.171170630578e-05       2.755297766291e-02 
       5.251192703764e-05       3.441013522965e-02 
       6.610859936996e-05       4.297372172800e-02 
       8.322579568497e-05       5.366826852972e-02 
       1.047750691046e-04       6.702379872809e-02 
       1.319039970183e-04       8.370193441329e-02 
       1.660572937635e-04       1.045283355389e-01 
       2.090537469327e-04       1.305329134111e-01 
       2.631830744443e-04       1.629994506614e-01 
       3.313278603720e-04       2.035264004612e-01 
       4.171170630578e-04       2.541004744255e-01 
       5.251192703764e-04       3.171839528572e-01 
       6.610859936996e-04       3.958147256530e-01 
       8.322579568497e-04       4.937136006299e-01 
       1.047750691046e-03       6.153841636062e-01 
       1.319039970183e-03       7.661720592258e-01 
       1.660572937635e-03       9.522588016436e-01 
       2.090537469327e-03       1.180312991692e+00 
       2.631830744443e-03       1.456802684665e+00 
       3.313278603720e-03       1.786503853991e+00 
       4.171170630578e-03       2.169896192307e+00 
       5.251192703764e-03       2.599430630501e+00 
       6.610859936996e-03       3.055668704521e+00 
       8.322579568497e-03       3.505724945612e+00 
       1.047750691046e-02       3.905490777377e+00 
       1.319039970183e-02       4.200915465750e+00 
       1.660572937633e-02       4.325061576919e+00 
       2.090537453514e-02       4.210203483888e+00 
       2.631818545635e-02       3.825151439473e+00 
       3.311571692125e-02       3.229058832138e+00 
       4.113809243311e-02       2.627724052556e+00 
       4.792590854610e-02       2.280794238203e+00 
       5.284436902701e-02       2.110085319363e+00 
       5.689644391095e-02       2.003535629331e+00 
       6.051252627066e-02       1.923057318961e+00 
       6.388413457411e-02       1.852735318250e+00 
       6.711249296401e-02       1.784565241517e+00 
       7.025823437965e-02       1.714275461165e+00 
       7.336115587705e-02       1.639814329632e+00 
       7.644928796912e-02       1.560665283246e+00 
       7.954353299775e-02       1.477457616097e+00 
       8.266024078725e-02       1.391697516183e+00 
       8.581273398637e-02       1.305462499153e+00 
       8.901225918437e-02       1.221125594785e+00 
       9.226860540985e-02       1.141078448480e+00 
       9.559052048996e-02       1.067452795213e+00 
       9.898599946599e-02       1.001888659754e+00 
       1.024624891378e-01       9.453822291295e-01 
       1.060270359164e-01       8.981493555716e-01 
       1.096863943056e-01       8.596141283738e-01 
       1.134471073830e-01       8.284065373155e-01 
       1.173155669539e-01       8.024684477746e-01 
       1.212980586983e-01       7.792275868330e-01 
       1.254007961065e-01       7.559185636667e-01 
       1.296299459934e-01       7.299821734362e-01 
       1.339916477160e-01       6.995933619588e-01 
       1.384920277736e-01       6.640787035362e-01 
       1.431372111762e-01       6.241476567919e-01 
       1.479333307714e-01       5.817663971448e-01 
       1.528865355934e-01       5.396905677418e-01 
       1.580029992204e-01       5.008135441232e-01 
       1.632889290723e-01       4.673980061984e-01 
       1.687505775527e-01       4.405337895270e-01 
       1.743942559171e-01       4.198652615935e-01 
       1.802263517371e-01       4.036594555764e-01 
       1.862533508214e-01       3.893616013481e-01 
       1.924818644494e-01       3.741400351911e-01 
       1.989186627765e-01       3.558063059884e-01 
       2.055707152847e-01       3.340018618669e-01 
       2.124452391818e-01       3.102652491255e-01 
       2.195497567139e-01       2.871217056313e-01 
       2.268921624510e-01       2.668071659908e-01 
       2.344808017550e-01       2.504839881501e-01 
       2.423245618548e-01       2.378332008463e-01 
       2.504329772620e-01       2.271116433857e-01 
       2.588163516754e-01       2.161194060967e-01 
       2.674858990930e-01       2.035471818251e-01 
       2.764539076010e-01       1.895974960181e-01 
       2.857339303080e-01       1.757563213715e-01 
       2.953410092148e-01       1.636986261846e-01 
       3.052919395542e-01       1.539063566749e-01 
       3.156055844677e-01       1.455305102646e-01 
       3.263032530092e-01       1.372495452649e-01 
       3.374091587054e-01       1.283012880315e-01 
       3.489509817175e-01       1.191711026028e-01 
       3.609605657343e-01       1.108069361864e-01 
       3.734747921333e-01       1.036445339424e-01 
       3.865366902904e-01       9.714100673906e-02 
       4.001968667448e-01       9.061503591357e-02 
       4.145153713076e-01       8.403632727818e-02 
       4.295641718077e-01       7.789085071962e-02 
       4.454304922144e-01       7.234131821986e-02 
       4.622214006969e-01       6.709341630809e-02 
       4.800702491654e-01       6.189146650022e-02 
       4.991459272112e-01       5.692602001002e-02 
       5.196665217302e-01       5.231568500124e-02 
       5.419201087032e-01       4.783222190143e-02 
       5.662975451962e-01       4.348654424074e-02 
       5.933463737275e-01       3.933068327655e-02 
       6.238638458458e-01       3.525293918438e-02 
       6.590669257916e-01       3.126259356777e-02 
       7.009246080454e-01       2.728694969116e-02 
       7.528593308799e-01       2.327799459685e-02 
       8.213469537518e-01       1.914781314128e-02 
       9.196980813302e-01       1.481666503597e-02 
       1.075112183810e+00       1.035047852625e-02 
       1.322697471132e+00       6.379016250311e-03 
       1.662328205042e+00       3.705218825323e-03 
       2.092692408506e+00       2.124101965297e-03 
       2.634543445090e+00       1.207537294509e-03 
       3.316693691389e+00       6.812888753529e-04 
       4.175469971226e+00       3.817109305860e-04 
       5.256605252960e+00       2.124812892480e-04 
       6.617673932723e+00       1.175463470112e-04 
       8.331157880872e+00       6.462952666217e-05 
       1.048830636590e+01       3.530667032071e-05 
       1.320399541071e+01       1.914689201052e-05 
       1.662284535976e+01       1.028762039346e-05 
       2.092692243973e+01       5.456308642398e-06 
       2.634543445002e+01       2.836638840268e-06 
       3.316693691389e+01       1.426945423918e-06 
       4.175469971226e+01       6.780279890293e-07 
       5.256605252960e+01       2.908405055939e-07 
       6.617673932723e+01       1.030139982394e-07 
