# Matter power spectrum P(k) at redshift z=0
# for k=1.04775e-05 to 67.6233 h/Mpc,
# number of wavenumbers equal to 246
#    1:k (h/Mpc)              2:P (Mpc/h)^3        
       1.047750691046e-05       5.020964811311e+01 
       1.131335172503e-05       5.407050701925e+01 
       1.221587619537e-05       5.822819068819e+01 
       1.319039970183e-05       6.270562594782e+01 
       1.424266597921e-05       6.752732240880e+01 
       1.537887696968e-05       7.271977206173e+01 
       1.660572937635e-05       7.831147247912e+01 
       1.793045413292e-05       8.433311821988e+01 
       1.936085902198e-05       9.081778249833e+01 
       2.090537469327e-05       9.780108069296e+01 
       2.257310435294e-05       1.053213197893e+02 
       2.437387741694e-05       1.134197377890e+02 
       2.631830744443e-05       1.221408203809e+02 
       2.841785469300e-05       1.315324642465e+02 
       3.068489366414e-05       1.416462094880e+02 
       3.313278603720e-05       1.525374501932e+02 
       3.577595942169e-05       1.642660688414e+02 
       3.862999239199e-05       1.768963506307e+02 
       4.171170630578e-05       1.904975994010e+02 
       4.503926444729e-05       2.051444491973e+02 
       4.863227907969e-05       2.209171465549e+02 
       5.251192703764e-05       2.379022224249e+02 
       5.670107454120e-05       2.561927927510e+02 
       6.122441196689e-05       2.758890444041e+02 
       6.610859936996e-05       2.970989227881e+02 
       7.138242361596e-05       3.199385560802e+02 
       7.707696804727e-05       3.445329783680e+02 
       8.322579568497e-05       3.710167318946e+02 
       8.986514704559e-05       3.995346444203e+02 
       9.703415373875e-05       4.302425407383e+02 
       1.047750691046e-04       4.633080766742e+02 
       1.131335172503e-04       4.989116271565e+02 
       1.221587619537e-04       5.372471950929e+02 
       1.319039970183e-04       5.785234129340e+02 
       1.424266597921e-04       6.229645936045e+02 
       1.537887696968e-04       6.708118490405e+02 
       1.660572937635e-04       7.223242666092e+02 
       1.793045413292e-04       7.777801563398e+02 
       1.936085902198e-04       8.374783614140e+02 
       2.090537469327e-04       9.017396271824e+02 
       2.257310435294e-04       9.709080268041e+02 
       2.437387741694e-04       1.045352449493e+03 
       2.631830744443e-04       1.125468123750e+03 
       2.841785469300e-04       1.211678180494e+03 
       3.068489366414e-04       1.304435250150e+03 
       3.313278603720e-04       1.404223053681e+03 
       3.577595942169e-04       1.511558014616e+03 
       3.862999239199e-04       1.626990837769e+03 
       4.171170630578e-04       1.751108028789e+03 
       4.503926444729e-04       1.884533382872e+03 
       4.863227907969e-04       2.027929378113e+03 
       5.251192703764e-04       2.181998448132e+03 
       5.670107454121e-04       2.347484102754e+03 
       6.122441196689e-04       2.525171871366e+03 
       6.610859936996e-04       2.715889983591e+03 
       7.138242361596e-04       2.920509688383e+03 
       7.707696804727e-04       3.139945100278e+03 
       8.322579568497e-04       3.375152337585e+03 
       8.986514704559e-04       3.627127831138e+03 
       9.703415373875e-04       3.896905453133e+03 
       1.047750691046e-03       4.185552174305e+03 
       1.131335172503e-03       4.494162430369e+03 
       1.221587619537e-03       4.823850706488e+03 
       1.319039970183e-03       5.175742744648e+03 
       1.424266597921e-03       5.551019596919e+03 
       1.537887696968e-03       5.950788340551e+03 
       1.660572937635e-03       6.376123051781e+03 
       1.793045413292e-03       6.828073901432e+03 
       1.936085902198e-03       7.307625381044e+03 
       2.090537469327e-03       7.815671914566e+03 
       2.257310435294e-03       8.352990375789e+03 
       2.437387741694e-03       8.920211064295e+03 
       2.631830744443e-03       9.517783069053e+03 
       2.841785469300e-03       1.014593704428e+04 
       3.068489366414e-03       1.080464502777e+04 
       3.313278603720e-03       1.149357460330e+04 
       3.577595942169e-03       1.221203621707e+04 
       3.862999239199e-03       1.295892539427e+04 
       4.171170630578e-03       1.373266010603e+04 
       4.503926444729e-03       1.453111835594e+04 
       4.863227907969e-03       1.535154984212e+04 
       5.251192703764e-03       1.619063608118e+04 
       5.670107454120e-03       1.704431257434e+04 
       6.122441196689e-03       1.790755943386e+04 
       6.610859936996e-03       1.877460415577e+04 
       7.138242361596e-03       1.963872442581e+04 
       7.707696804727e-03       2.049215713985e+04 
       8.322579568496e-03       2.132611397523e+04 
       8.986514704559e-03       2.213054551308e+04 
       9.703415373875e-03       2.289445519138e+04 
       1.047750691046e-02       2.360548860134e+04 
       1.131335172503e-02       2.425022998776e+04 
       1.221587619537e-02       2.481423937751e+04 
       1.319039970183e-02       2.528218946762e+04 
       1.424266597920e-02       2.563813788370e+04 
       1.537887696964e-02       2.586607063182e+04 
       1.660572937560e-02       2.595027098231e+04 
       1.793045412207e-02       2.587634568267e+04 
       1.936085889642e-02       2.563221498674e+04 
       2.090537351881e-02       2.520934162851e+04 
       2.257309534705e-02       2.460442804798e+04 
       2.437382002240e-02       2.382091385899e+04 
       2.631799943729e-02       2.287046215310e+04 
       2.841644544598e-02       2.177459477048e+04 
       3.067933354524e-02       2.056552330076e+04 
       3.311368469821e-02       1.928728721837e+04 
       3.571840442514e-02       1.799399227991e+04 
       3.847720347390e-02       1.674680256359e+04 
       4.135335537314e-02       1.560457135343e+04 
       4.429361666563e-02       1.461036537838e+04 
       4.724366437916e-02       1.378053695317e+04 
       5.016480834039e-02       1.310502470537e+04 
       5.303989618930e-02       1.255715042759e+04 
       5.586870668205e-02       1.210425985391e+04 
       5.866042679206e-02       1.171469954212e+04 
       6.142798931504e-02       1.136048788041e+04 
       6.418496438662e-02       1.101862804074e+04 
       6.694418832236e-02       1.067071850645e+04 
       6.971731104453e-02       1.030364188617e+04 
       7.251476154108e-02       9.909039856203e+03 
       7.534587669814e-02       9.483705586107e+03 
       7.821907664495e-02       9.029434594336e+03 
       8.114203771084e-02       8.552329398413e+03 
       8.412184533139e-02       8.061973134787e+03 
       8.716512277352e-02       7.570827647631e+03 
       9.027813693913e-02       7.092503125907e+03 
       9.346688429613e-02       6.640539445193e+03 
       9.673716026122e-02       6.226733103904e+03 
       1.000946150608e-01       5.859967591593e+03 
       1.035447986307e-01       5.545270888375e+03 
       1.070931966524e-01       5.283154198218e+03 
       1.107452594180e-01       5.069437468734e+03 
       1.145064248899e-01       4.895261849414e+03 
       1.183821370656e-01       4.747845784816e+03 
       1.223778605591e-01       4.611721584208e+03 
       1.264990921707e-01       4.470611673124e+03 
       1.307513701078e-01       4.310255359112e+03 
       1.351402814485e-01       4.121387566327e+03 
       1.396714683894e-01       3.902060076423e+03 
       1.443506337875e-01       3.658657239918e+03 
       1.491835464900e-01       3.404468474527e+03 
       1.541760469368e-01       3.156647615419e+03 
       1.593340535209e-01       2.931942315555e+03 
       1.646635701934e-01       2.742364109446e+03 
       1.701706958081e-01       2.592235248567e+03 
       1.758616357070e-01       2.477218532256e+03 
       1.817427160581e-01       2.385163033863e+03 
       1.878204014651e-01       2.300352474026e+03 
       1.941013163855e-01       2.205778380505e+03 
       2.005922709060e-01       2.090843591201e+03 
       2.073002914514e-01       1.956464806848e+03 
       2.142326570343e-01       1.814175229862e+03 
       2.213969417044e-01       1.679271677622e+03 
       2.288010639201e-01       1.563838577569e+03 
       2.364533436625e-01       1.472672109147e+03 
       2.443625682390e-01       1.401513458027e+03 
       2.525380678946e-01       1.338418512131e+03 
       2.609898025770e-01       1.270899383800e+03 
       2.697284614969e-01       1.193356848473e+03 
       2.787655775073e-01       1.109331668902e+03 
       2.881136588192e-01       1.028763051764e+03 
       2.977863412019e-01       9.604748857725e+02 
       3.077985646248e-01       9.050175920373e+02 
       3.181667793367e-01       8.561377073252e+02 
       3.289091877084e-01       8.061817292313e+02 
       3.400460298905e-01       7.523829567008e+02 
       3.515999235695e-01       6.989119701439e+02 
       3.635962710278e-01       6.510599931458e+02 
       3.760637505499e-01       6.101188350819e+02 
       3.890349143014e-01       5.721280119342e+02 
       4.025469215929e-01       5.337770295213e+02 
       4.166424455447e-01       4.956223587082e+02 
       4.313708034899e-01       4.604642109793e+02 
       4.467893781976e-01       4.287697806699e+02 
       4.629654198623e-01       3.987688060950e+02 
       4.799783500912e-01       3.692357177709e+02 
       4.979227318246e-01       3.412367858482e+02 
       5.169121269689e-01       3.154782654248e+02 
       5.370841403262e-01       2.908298605688e+02 
       5.586070463286e-01       2.671019744369e+02 
       5.816885093582e-01       2.448056833509e+02 
       6.065870143577e-01       2.235661303169e+02 
       6.336266466978e-01       2.032087976661e+02 
       6.632156057925e-01       1.838776741882e+02 
       6.958678637575e-01       1.653536962451e+02 
       7.322247983784e-01       1.476942786086e+02 
       7.730680193171e-01       1.308326391577e+02 
       8.193049551574e-01       1.148304703821e+02 
       8.718988013754e-01       9.976160190923e+01 
       9.317218028590e-01       8.577675033021e+01 
       9.993660906273e-01       7.305365231361e+01 
       1.075037109879e+00       6.173479900397e+01 
       1.158653485387e+00       5.187811551235e+01 
       1.250099156961e+00       4.343916214055e+01 
       1.349432400897e+00       3.628809273881e+01 
       1.456947456991e+00       3.026708588441e+01 
       1.573135110893e+00       2.521356970372e+01 
       1.698621895119e+00       2.098115629200e+01 
       1.834127512423e+00       1.744155170845e+01 
       1.980444933977e+00       1.448479065025e+01 
       2.138435191130e+00       1.201806285913e+01 
       2.309029198543e+00       9.962347818951e+00 
       2.493232376993e+00       8.250983270958e+00 
       2.692130394536e+00       6.827728127916e+00 
       2.906895533764e+00       5.645445327523e+00 
       3.138793596840e+00       4.664062333770e+00 
       3.389191365541e+00       3.850329991532e+00 
       3.659564656886e+00       3.176188388129e+00 
       3.951507021438e+00       2.618116193654e+00 
       4.266739135513e+00       2.156597800726e+00 
       4.607118942658e+00       1.775189166639e+00 
       4.974652604172e+00       1.460259403655e+00 
       5.371506323193e+00       1.200413163644e+00 
       5.800019112071e+00       9.861808611813e-01 
       6.262716578240e+00       8.096630807119e-01 
       6.762325809881e+00       6.643317909331e-01 
       7.301791449077e+00       5.447611973895e-01 
       7.884293047211e+00       4.464449955712e-01 
       8.513263804891e+00       3.656590332499e-01 
       9.192410806865e+00       2.993147821495e-01 
       9.925736871166e+00       2.448695009721e-01 
       1.071756414128e+01       2.002089753961e-01 
       1.157255956041e+01       1.635996487206e-01 
       1.249576237789e+01       1.336056722205e-01 
       1.349261385000e+01       1.090447806458e-01 
       1.456898931011e+01       8.894317646673e-02 
       1.573123279727e+01       7.250174982120e-02 
       1.698619444729e+01       5.905977476455e-02 
       1.834127086665e+01       4.807588544815e-02 
       1.980444872733e+01       3.910441633211e-02 
       2.138435183937e+01       3.178157090494e-02 
       2.309029197863e+01       2.580675952935e-02 
       2.493232376942e+01       2.093457498157e-02 
       2.692130394533e+01       1.696322941142e-02 
       2.906895533764e+01       1.372821490284e-02 
       3.138793596840e+01       1.109440334051e-02 
       3.389191365541e+01       8.951216723939e-03 
       3.659564656886e+01       7.208458264759e-03 
       3.951507021438e+01       5.792302559432e-03 
       4.266739135513e+01       4.642349547757e-03 
       4.607118942658e+01       3.709374523557e-03 
       4.974652604172e+01       2.953211604977e-03 
       5.371506323193e+01       2.341100583174e-03 
       5.800019112071e+01       1.846375706204e-03 
       6.262716578240e+01       1.447224075383e-03 
       6.762325809881e+01       1.125967250653e-03 
