# Matter power spectrum P(k) at redshift z=99
# for k=1.04775e-05 to 67.6233 h/Mpc,
# number of wavenumbers equal to 246
#    1:k (h/Mpc)              2:P (Mpc/h)^3        
       1.047750691046e-05       7.261927680861e-03 
       1.131335172503e-05       7.820331652431e-03 
       1.221587619537e-05       8.421675995454e-03 
       1.319039970183e-05       9.069258201848e-03 
       1.424266597921e-05       9.766638412133e-03 
       1.537887696968e-05       1.051764070801e-02 
       1.660572937635e-05       1.132639106725e-02 
       1.793045413292e-05       1.219733232715e-02 
       1.936085902198e-05       1.313524225779e-02 
       2.090537469327e-05       1.414527123399e-02 
       2.257310435294e-05       1.523296273823e-02 
       2.437387741694e-05       1.640429446288e-02 
       2.631830744443e-05       1.766569584058e-02 
       2.841785469300e-05       1.902408737005e-02 
       3.068489366414e-05       2.048692972772e-02 
       3.313278603720e-05       2.206225515942e-02 
       3.577595942169e-05       2.375870707438e-02 
       3.862999239199e-05       2.558560730202e-02 
       4.171170630578e-05       2.755297766277e-02 
       4.503926444729e-05       2.967161930474e-02 
       4.863227907969e-05       3.195316454233e-02 
       5.251192703764e-05       3.441013522947e-02 
       5.670107454120e-05       3.705601726474e-02 
       6.122441196689e-05       3.990533417796e-02 
       6.610859936996e-05       4.297372172777e-02 
       7.138242361596e-05       4.627802146614e-02 
       7.707696804727e-05       4.983636199464e-02 
       8.322579568497e-05       5.366826852944e-02 
       8.986514704559e-05       5.779476400721e-02 
       9.703415373875e-05       6.223848250510e-02 
       1.047750691046e-04       6.702379872774e-02 
       1.131335172503e-04       7.217695161063e-02 
       1.221587619537e-04       7.772619081845e-02 
       1.319039970183e-04       8.370193441286e-02 
       1.424266597921e-04       9.013692517141e-02 
       1.537887696968e-04       9.706641252902e-02 
       1.660572937635e-04       1.045283355384e-01 
       1.793045413292e-04       1.125635350266e-01 
       1.936085902198e-04       1.212159616259e-01 
       2.090537469327e-04       1.305329134104e-01 
       2.257310435294e-04       1.405652847711e-01 
       2.437387741694e-04       1.513678304151e-01 
       2.631830744443e-04       1.629994506606e-01 
       2.841785469300e-04       1.755234923092e-01 
       3.068489366414e-04       1.890080672425e-01 
       3.313278603720e-04       2.035264004601e-01 
       3.577595942169e-04       2.191571806013e-01 
       3.862999239199e-04       2.359849440103e-01 
       4.171170630578e-04       2.541004744243e-01 
       4.503926444729e-04       2.736012083189e-01 
       4.863227907969e-04       2.945916794099e-01 
       5.251192703764e-04       3.171839528558e-01 
       5.670107454121e-04       3.414980767635e-01 
       6.122441196689e-04       3.676625417011e-01 
       6.610859936996e-04       3.958147256513e-01 
       7.138242361596e-04       4.261013289359e-01 
       7.707696804727e-04       4.586787797353e-01 
       8.322579568497e-04       4.937136006300e-01 
       8.986514704559e-04       5.313826807049e-01 
       9.703415373875e-04       5.718734978233e-01 
       1.047750691046e-03       6.153841636041e-01 
       1.131335172503e-03       6.621233246495e-01 
       1.221587619537e-03       7.123098227997e-01 
       1.319039970183e-03       7.661720592349e-01 
       1.424266597921e-03       8.239546306467e-01 
       1.537887696968e-03       8.859011182851e-01 
       1.660572937635e-03       9.522588016482e-01 
       1.793045413292e-03       1.023280100902e+00 
       1.936085902198e-03       1.099216305741e+00 
       2.090537469327e-03       1.180312991699e+00 
       2.257310435294e-03       1.266804117185e+00 
       2.437387741694e-03       1.358904854833e+00 
       2.631830744443e-03       1.456802684686e+00 
       2.841785469300e-03       1.560646892157e+00 
       3.068489366414e-03       1.670536064245e+00 
       3.313278603720e-03       1.786503854039e+00 
       3.577595942169e-03       1.908502932771e+00 
       3.862999239199e-03       2.036387732816e+00 
       4.171170630578e-03       2.169896196260e+00 
       4.503926444729e-03       2.308631881359e+00 
       4.863227907969e-03       2.452047293460e+00 
       5.251192703764e-03       2.599430630722e+00 
       5.670107454120e-03       2.749896934589e+00 
       6.122441196689e-03       2.902386516272e+00 
       6.610859936996e-03       3.055668714272e+00 
       7.138242361596e-03       3.208356464657e+00 
       7.707696804727e-03       3.358923896047e+00 
       8.322579568496e-03       3.505725598091e+00 
       8.986514704559e-03       3.647009927030e+00 
       9.703415373875e-03       3.780923307781e+00 
       1.047750691046e-02       3.905491060706e+00 
       1.131335172503e-02       4.018587644933e+00 
       1.221587619537e-02       4.117901591564e+00 
       1.319039970183e-02       4.200915324374e+00 
       1.424266597920e-02       4.264942290541e+00 
       1.537887696964e-02       4.307219062419e+00 
       1.660572937560e-02       4.325063880725e+00 
       1.793045412207e-02       4.316058848216e+00 
       1.936085889642e-02       4.278224164641e+00 
       2.090537351881e-02       4.210198222713e+00 
       2.257309534705e-02       4.111420397235e+00 
       2.437382002240e-02       3.982421035368e+00 
       2.631799943729e-02       3.825167788410e+00 
       2.841644544598e-02       3.643282918490e+00 
       3.067933354524e-02       3.442200179201e+00 
       3.311368469821e-02       3.229245979668e+00 
       3.571840442514e-02       3.013512099080e+00 
       3.847720347390e-02       2.805285857099e+00 
       4.135335537314e-02       2.614409215710e+00 
       4.429361666563e-02       2.448131435907e+00 
       4.724366437916e-02       2.309234823166e+00 
       5.016480834039e-02       2.196112659322e+00 
       5.303989618930e-02       2.104367770336e+00 
       5.586870668205e-02       2.028465736052e+00 
       5.866042679206e-02       1.963146314980e+00 
       6.142798931504e-02       1.903782344259e+00 
       6.418496438662e-02       1.846478493978e+00 
       6.694418832236e-02       1.788197702462e+00 
       6.971731104453e-02       1.726714157160e+00 
       7.251476154108e-02       1.660654482469e+00 
       7.534587669814e-02       1.589467787520e+00 
       7.821907664495e-02       1.513439637055e+00 
       8.114203771084e-02       1.433569037201e+00 
       8.412184533139e-02       1.351495615265e+00 
       8.716512277352e-02       1.269274202137e+00 
       9.027813693913e-02       1.189193272695e+00 
       9.346688429613e-02       1.113501359606e+00 
       9.673716026122e-02       1.044175330730e+00 
       1.000946150608e-01       9.827059958747e-01 
       1.035447986307e-01       9.299375249766e-01 
       1.070931966524e-01       8.859577017869e-01 
       1.107452594180e-01       8.500695612157e-01 
       1.145064248899e-01       8.208039340035e-01 
       1.183821370656e-01       7.960270965239e-01 
       1.223778605591e-01       7.731466164749e-01 
       1.264990921707e-01       7.494526951379e-01 
       1.307513701078e-01       7.225578453761e-01 
       1.351402814485e-01       6.909086838102e-01 
       1.396714683894e-01       6.541800908566e-01 
       1.443506337875e-01       6.134273581243e-01 
       1.491835464900e-01       5.708683912398e-01 
       1.541760469368e-01       5.293630760169e-01 
       1.593340535209e-01       4.917107348616e-01 
       1.646635701934e-01       4.599206750721e-01 
       1.701706958081e-01       4.347292826983e-01 
       1.758616357070e-01       4.154086123971e-01 
       1.817427160581e-01       3.999370600498e-01 
       1.878204014651e-01       3.856828482514e-01 
       1.941013163855e-01       3.698105479875e-01 
       2.005922709060e-01       3.505465172002e-01 
       2.073002914514e-01       3.280429385656e-01 
       2.142326570343e-01       3.042132174751e-01 
       2.213969417044e-01       2.816124218266e-01 
       2.288010639201e-01       2.622568586342e-01 
       2.364533436625e-01       2.469622317154e-01 
       2.443625682390e-01       2.350135501464e-01 
       2.525380678946e-01       2.244170603090e-01 
       2.609898025770e-01       2.130936279992e-01 
       2.697284614969e-01       2.001023114172e-01 
       2.787655775073e-01       1.860197126845e-01 
       2.881136588192e-01       1.725172744915e-01 
       2.977863412019e-01       1.610664160913e-01 
       3.077985646248e-01       1.517611332182e-01 
       3.181667793367e-01       1.435597326059e-01 
       3.289091877084e-01       1.351814936400e-01 
       3.400460298905e-01       1.261642100366e-01 
       3.515999235695e-01       1.172020671676e-01 
       3.635962710278e-01       1.091770254399e-01 
       3.760637505499e-01       1.023097264281e-01 
       3.890349143014e-01       9.593747334524e-02 
       4.025469215929e-01       8.950804294088e-02 
       4.166424455447e-01       8.311163072235e-02 
       4.313708034899e-01       7.721566049577e-02 
       4.467893781976e-01       7.190046252599e-02 
       4.629654198623e-01       6.686898383101e-02 
       4.799783500912e-01       6.191760459425e-02 
       4.979227318246e-01       5.722227743306e-02 
       5.169121269689e-01       5.290292262494e-02 
       5.370841403262e-01       4.876977887587e-02 
       5.586070463286e-01       4.479094976303e-02 
       5.816885093582e-01       4.105189616505e-02 
       6.065870143577e-01       3.748993507772e-02 
       6.336266466978e-01       3.407636778885e-02 
       6.632156057925e-01       3.083459289948e-02 
       6.958678637575e-01       2.772827784064e-02 
       7.322247983784e-01       2.476714161832e-02 
       7.730680193171e-01       2.193962325140e-02 
       8.193049551574e-01       1.925610611953e-02 
       8.718988013754e-01       1.672924413666e-02 
       9.317218028590e-01       1.438424727255e-02 
       9.993660906273e-01       1.225067331518e-02 
       1.075037109879e+00       1.035259814543e-02 
       1.158653485387e+00       8.699708521907e-03 
       1.250099156961e+00       7.284587760887e-03 
       1.349432400897e+00       6.085451292491e-03 
       1.456947456991e+00       5.075726348116e-03 
       1.573135110893e+00       4.228285201388e-03 
       1.698621895119e+00       3.518553063379e-03 
       1.834127512423e+00       2.924978669375e-03 
       1.980444933977e+00       2.429169378919e-03 
       2.138435191130e+00       2.015506424034e-03 
       2.309029198543e+00       1.670774677387e-03 
       2.493232376993e+00       1.383799093733e-03 
       2.692130394536e+00       1.145132432364e-03 
       2.906895533764e+00       9.468583600870e-04 
       3.138793596840e+00       7.822881660870e-04 
       3.389191365541e+00       6.458226174931e-04 
       3.659564656886e+00       5.327681302230e-04 
       3.951507021438e+00       4.391861332802e-04 
       4.266739135513e+00       3.617900609030e-04 
       4.607118942658e+00       2.978288853900e-04 
       4.974652604172e+00       2.450146536851e-04 
       5.371506323193e+00       2.014362014359e-04 
       5.800019112071e+00       1.655067542233e-04 
       6.262716578240e+00       1.359041565426e-04 
       6.762325809881e+00       1.115298713152e-04 
       7.301791449077e+00       9.147578799560e-05 
       7.884293047211e+00       7.498666182344e-05 
       8.513263804891e+00       6.143590707809e-05 
       9.192410806865e+00       5.030829006619e-05 
       9.925736871166e+00       4.117500745106e-05 
       1.071756414128e+01       3.368323510589e-05 
       1.157255956041e+01       2.754139790355e-05 
       1.249576237789e+01       2.250903236184e-05 
       1.349261385000e+01       1.838747698847e-05 
       1.456898931011e+01       1.501417761416e-05 
       1.573123279727e+01       1.225435337896e-05 
       1.698619444729e+01       9.997576164661e-06 
       1.834127086665e+01       8.153068954353e-06 
       1.980444872733e+01       6.646194819868e-06 
       2.138435183937e+01       5.415680756091e-06 
       2.309029197863e+01       4.411345644743e-06 
       2.493232376942e+01       3.591863806318e-06 
       2.692130394533e+01       2.923553764631e-06 
       2.906895533764e+01       2.378740721983e-06 
       3.138793596840e+01       1.934760722620e-06 
       3.389191365541e+01       1.573094538480e-06 
       3.659564656886e+01       1.278598040349e-06 
       3.951507021438e+01       1.038909683924e-06 
       4.266739135513e+01       8.438506294784e-07 
       4.607118942658e+01       6.851998215316e-07 
       4.974652604172e+01       5.561988626529e-07 
       5.371506323193e+01       4.513293491998e-07 
       5.800019112071e+01       3.661202492537e-07 
       6.262716578240e+01       2.969056516839e-07 
       6.762325809881e+01       2.406954986014e-07 
