# Matter power spectrum P(k) at redshift z=0
# for k=1.04775e-05 to 66.1767 h/Mpc,
# number of wavenumbers equal to 130
#    1:k (h/Mpc)              2:P (Mpc/h)^3        
       1.047750691046e-05       5.020964811312e+01 
       1.319039970183e-05       6.270562594779e+01 
       1.660572937635e-05       7.831147247912e+01 
       2.090537469327e-05       9.780108069295e+01 
       2.631830744443e-05       1.221408203809e+02 
       3.313278603720e-05       1.525374501932e+02 
       4.171170630578e-05       1.904975994009e+02 
       5.251192703764e-05       2.379022224249e+02 
       6.610859936996e-05       2.970989227883e+02 
       8.322579568497e-05       3.710167318945e+02 
       1.047750691046e-04       4.633080766742e+02 
       1.319039970183e-04       5.785234129331e+02 
       1.660572937635e-04       7.223242666092e+02 
       2.090537469327e-04       9.017396271824e+02 
       2.631830744443e-04       1.125468123750e+03 
       3.313278603720e-04       1.404223053681e+03 
       4.171170630578e-04       1.751108028790e+03 
       5.251192703764e-04       2.181998448133e+03 
       6.610859936996e-04       2.715889983592e+03 
       8.322579568497e-04       3.375152337134e+03 
       1.047750691046e-03       4.185552174306e+03 
       1.319039970183e-03       5.175742742660e+03 
       1.660572937635e-03       6.376123051777e+03 
       2.090537469327e-03       7.815671866082e+03 
       2.631830744443e-03       9.517783069112e+03 
       3.313278603720e-03       1.149357460343e+04 
       4.171170630578e-03       1.373266012001e+04 
       5.251192703764e-03       1.619063614560e+04 
       6.610859936996e-03       1.877460417306e+04 
       8.322579568497e-03       2.132606917833e+04 
       1.047750691046e-02       2.360548904581e+04 
       1.319039970183e-02       2.528218875247e+04 
       1.660572937633e-02       2.595027924607e+04 
       2.090537453514e-02       2.520934259591e+04 
       2.631818545635e-02       2.287030636386e+04 
       3.311571692125e-02       1.928623596652e+04 
       4.113809243311e-02       1.568424941617e+04 
       4.792590854610e-02       1.361065920132e+04 
       5.284436902701e-02       1.259131696252e+04 
       5.689644391095e-02       1.195553697942e+04 
       6.051252627066e-02       1.147549035413e+04 
       6.388413457411e-02       1.105588448578e+04 
       6.711249296401e-02       1.064899136718e+04 
       7.025823437965e-02       1.022930202107e+04 
       7.336115587705e-02       9.784542878420e+03 
       7.644928796912e-02       9.311660196398e+03 
       7.954353299775e-02       8.814534005622e+03 
       8.266024078725e-02       8.302132913021e+03 
       8.581273398637e-02       7.786960721020e+03 
       8.901225918437e-02       7.283175141627e+03 
       9.226860540985e-02       6.805163845234e+03 
       9.559052048996e-02       6.365627367045e+03 
       9.898599946599e-02       5.974399293660e+03 
       1.024624891378e-01       5.637315130413e+03 
       1.060270359164e-01       5.355781754495e+03 
       1.096863943056e-01       5.126236319653e+03 
       1.134471073830e-01       4.940478507213e+03 
       1.173155669539e-01       4.786174451470e+03 
       1.212980586983e-01       4.647936792659e+03 
       1.254007961065e-01       4.509145934150e+03 
       1.296299459934e-01       4.354559132693e+03 
       1.339916477160e-01       4.173215079981e+03 
       1.384920277736e-01       3.961165449596e+03 
       1.431372111762e-01       3.722687564059e+03 
       1.479333307714e-01       3.469557766804e+03 
       1.528865355934e-01       3.218336225199e+03 
       1.580029992204e-01       2.986293624171e+03 
       1.632889290723e-01       2.786968165122e+03 
       1.687505775527e-01       2.626827127328e+03 
       1.743942559171e-01       2.503757034845e+03 
       1.802263517371e-01       2.407338669805e+03 
       1.862533508214e-01       2.322256052501e+03 
       1.924818644494e-01       2.231551892157e+03 
       1.989186627765e-01       2.122193722892e+03 
       2.055707152847e-01       1.992025563232e+03 
       2.124452391818e-01       1.850323651249e+03 
       2.195497567139e-01       1.712183916709e+03 
       2.268921624510e-01       1.590992970619e+03 
       2.344808017550e-01       1.493670655229e+03 
       2.423245618548e-01       1.418313819386e+03 
       2.504329772620e-01       1.354467789119e+03 
       2.588163516754e-01       1.288934059863e+03 
       2.674858990930e-01       1.213938976707e+03 
       2.764539076010e-01       1.130696873378e+03 
       2.857339303080e-01       1.048100483095e+03 
       2.953410092148e-01       9.761810650804e+02 
       3.052919395542e-01       9.178097270149e+02 
       3.156055844677e-01       8.678973884790e+02 
       3.263032530092e-01       8.185265193018e+02 
       3.374091587054e-01       7.651465546307e+02 
       3.489509817175e-01       7.106707310445e+02 
       3.609605657343e-01       6.607866837184e+02 
       3.734747921333e-01       6.180873276895e+02 
       3.865366902904e-01       5.793114540687e+02 
       4.001968667448e-01       5.403915360606e+02 
       4.145153713076e-01       5.011516080312e+02 
       4.295641718077e-01       4.645002411272e+02 
       4.454304922144e-01       4.314093998253e+02 
       4.622214006969e-01       4.001139826136e+02 
       4.800702491654e-01       3.690889933774e+02 
       4.991459272112e-01       3.394770579050e+02 
       5.196665217302e-01       3.119864366451e+02 
       5.419201087032e-01       2.852467964859e+02 
       5.662975451962e-01       2.593310792873e+02 
       5.933463737275e-01       2.345493032069e+02 
       6.238638458458e-01       2.102305996787e+02 
       6.590669257916e-01       1.864335253254e+02 
       7.009246080454e-01       1.627253654976e+02 
       7.528593308799e-01       1.388182351170e+02 
       8.213469537518e-01       1.141882699212e+02 
       9.196980813302e-01       8.835964260725e+01 
       1.075112183810e+00       6.172609816603e+01 
       1.322697471132e+00       3.804271511257e+01 
       1.662328205042e+00       2.209799071754e+01 
       2.092692408506e+00       1.266921960748e+01 
       2.634543445090e+00       7.203386583367e+00 
       3.316693691389e+00       4.065168584837e+00 
       4.175469971226e+00       2.278623955078e+00 
       5.256605252960e+00       1.269351432381e+00 
       6.617673932723e+00       7.031344725246e-01 
       8.331157880872e+00       3.874759255866e-01 
       1.048830636590e+01       2.125116920298e-01 
       1.320399541071e+01       1.160371897464e-01 
       1.662284535976e+01       6.309916839393e-02 
       2.092692243973e+01       3.417962703365e-02 
       2.634543445002e+01       1.844612473748e-02 
       3.316693691389e+01       9.919384888377e-03 
       4.175469971226e+01       5.314695107072e-03 
       5.256605252960e+01       2.836735354005e-03 
       6.617673932723e+01       1.507670276540e-03 
