# Matter power spectrum P(k) at redshift z=0
# for k=1.04775e-05 to 67.6233 h/Mpc,
# number of wavenumbers equal to 246
#    1:k (h/Mpc)              2:P (Mpc/h)^3        
       1.047750691046e-05       5.020964811313e+01 
       1.131335172503e-05       5.407050701930e+01 
       1.221587619537e-05       5.822819068860e+01 
       1.319039970183e-05       6.270562594781e+01 
       1.424266597921e-05       6.752732240880e+01 
       1.537887696968e-05       7.271977206173e+01 
       1.660572937635e-05       7.831147247912e+01 
       1.793045413292e-05       8.433311821988e+01 
       1.936085902198e-05       9.081778249833e+01 
       2.090537469327e-05       9.780108069296e+01 
       2.257310435294e-05       1.053213197893e+02 
       2.437387741694e-05       1.134197377890e+02 
       2.631830744443e-05       1.221408203809e+02 
       2.841785469300e-05       1.315324642479e+02 
       3.068489366414e-05       1.416462094880e+02 
       3.313278603720e-05       1.525374501932e+02 
       3.577595942169e-05       1.642660688414e+02 
       3.862999239199e-05       1.768963506307e+02 
       4.171170630578e-05       1.904975994009e+02 
       4.503926444729e-05       2.051444491973e+02 
       4.863227907969e-05       2.209171465548e+02 
       5.251192703764e-05       2.379022224247e+02 
       5.670107454120e-05       2.561927927743e+02 
       6.122441196689e-05       2.758890444040e+02 
       6.610859936996e-05       2.970989227882e+02 
       7.138242361596e-05       3.199385560801e+02 
       7.707696804727e-05       3.445329783677e+02 
       8.322579568497e-05       3.710167318945e+02 
       8.986514704559e-05       3.995346444202e+02 
       9.703415373875e-05       4.302425407381e+02 
       1.047750691046e-04       4.633080766740e+02 
       1.131335172503e-04       4.989116271562e+02 
       1.221587619537e-04       5.372471950926e+02 
       1.319039970183e-04       5.785234129333e+02 
       1.424266597921e-04       6.229645936040e+02 
       1.537887696968e-04       6.708118490398e+02 
       1.660572937635e-04       7.223242666083e+02 
       1.793045413292e-04       7.777801560222e+02 
       1.936085902198e-04       8.374783614125e+02 
       2.090537469327e-04       9.017396271806e+02 
       2.257310435294e-04       9.709080268018e+02 
       2.437387741694e-04       1.045352449490e+03 
       2.631830744443e-04       1.125468123746e+03 
       2.841785469300e-04       1.211678180490e+03 
       3.068489366414e-04       1.304435250144e+03 
       3.313278603720e-04       1.404223053674e+03 
       3.577595942169e-04       1.511558014607e+03 
       3.862999239199e-04       1.626990837732e+03 
       4.171170630578e-04       1.751108028777e+03 
       4.503926444729e-04       1.884533382854e+03 
       4.863227907969e-04       2.027929378088e+03 
       5.251192703764e-04       2.181998448104e+03 
       5.670107454121e-04       2.347484102719e+03 
       6.122441196689e-04       2.525171871321e+03 
       6.610859936996e-04       2.715889983535e+03 
       7.138242361596e-04       2.920509688309e+03 
       7.707696804727e-04       3.139945100190e+03 
       8.322579568497e-04       3.375152337468e+03 
       8.986514704559e-04       3.627127831001e+03 
       9.703415373875e-04       3.896905452960e+03 
       1.047750691046e-03       4.185552174071e+03 
       1.131335172503e-03       4.494162430096e+03 
       1.221587619537e-03       4.823850706149e+03 
       1.319039970183e-03       5.175742743305e+03 
       1.424266597921e-03       5.551019596366e+03 
       1.537887696968e-03       5.950788339833e+03 
       1.660572937635e-03       6.376123050806e+03 
       1.793045413292e-03       6.828073900256e+03 
       1.936085902198e-03       7.307625379516e+03 
       2.090537469327e-03       7.815671862845e+03 
       2.257310435294e-03       8.352990373277e+03 
       2.437387741694e-03       8.920211061129e+03 
       2.631830744443e-03       9.517783064988e+03 
       2.841785469300e-03       1.014593703911e+04 
       3.068489366414e-03       1.080464502125e+04 
       3.313278603720e-03       1.149357459501e+04 
       3.577595942169e-03       1.221203620656e+04 
       3.862999239199e-03       1.295892538101e+04 
       4.171170630578e-03       1.373266007797e+04 
       4.503926444729e-03       1.453111833487e+04 
       4.863227907969e-03       1.535154909575e+04 
       5.251192703764e-03       1.619063146105e+04 
       5.670107454120e-03       1.704431209122e+04 
       6.122441196689e-03       1.790756168833e+04 
       6.610859936996e-03       1.877460531927e+04 
       7.138242361596e-03       1.963872847817e+04 
       7.707696804727e-03       2.049214999534e+04 
       8.322579568496e-03       2.132610212542e+04 
       8.986514704559e-03       2.213054982457e+04 
       9.703415373875e-03       2.289442058254e+04 
       1.047750691046e-02       2.360545430744e+04 
       1.131335172503e-02       2.425021921103e+04 
       1.221587619537e-02       2.481419296569e+04 
       1.319039970183e-02       2.528217629199e+04 
       1.424266597920e-02       2.563800649409e+04 
       1.537887696964e-02       2.586599065681e+04 
       1.660572937560e-02       2.595013774384e+04 
       1.793045412207e-02       2.587609198825e+04 
       1.936085889642e-02       2.563225559277e+04 
       2.090537351881e-02       2.520929401164e+04 
       2.257309534705e-02       2.460432611803e+04 
       2.437382002240e-02       2.382075392704e+04 
       2.631799943729e-02       2.287025906500e+04 
       2.841644544598e-02       2.177431557611e+04 
       3.067933354524e-02       2.056535261468e+04 
       3.311368469821e-02       1.928719225788e+04 
       3.571840442514e-02       1.799390234799e+04 
       3.847720347390e-02       1.674669766339e+04 
       4.135335537314e-02       1.560448655771e+04 
       4.429361666563e-02       1.461027960655e+04 
       4.724366437916e-02       1.378047835728e+04 
       5.016480834039e-02       1.310496122563e+04 
       5.303989618930e-02       1.255712577089e+04 
       5.586870668205e-02       1.210421685542e+04 
       5.866042679206e-02       1.171463624456e+04 
       6.142798931504e-02       1.136011697073e+04 
       6.418496438662e-02       1.101856887547e+04 
       6.694418832236e-02       1.067061540541e+04 
       6.971731104453e-02       1.030333608821e+04 
       7.251476154108e-02       9.909012170281e+03 
       7.534587669814e-02       9.483595448173e+03 
       7.821907664495e-02       9.029285279916e+03 
       8.114203771084e-02       8.552098203444e+03 
       8.412184533139e-02       8.061872365832e+03 
       8.716512277352e-02       7.570692811623e+03 
       9.027813693913e-02       7.092366680474e+03 
       9.346688429613e-02       6.640399467872e+03 
       9.673716026122e-02       6.226636719238e+03 
       1.000946150608e-01       5.859826747043e+03 
       1.035447986307e-01       5.545146741849e+03 
       1.070931966524e-01       5.283013027145e+03 
       1.107452594180e-01       5.069281308901e+03 
       1.145064248899e-01       4.895094415557e+03 
       1.183821370656e-01       4.747681851568e+03 
       1.223778605591e-01       4.611555689616e+03 
       1.264990921707e-01       4.470428266488e+03 
       1.307513701078e-01       4.310047196208e+03 
       1.351402814485e-01       4.121137688732e+03 
       1.396714683894e-01       3.901824584447e+03 
       1.443506337875e-01       3.658405639465e+03 
       1.491835464900e-01       3.404212860600e+03 
       1.541760469368e-01       3.156375503692e+03 
       1.593340535209e-01       2.931637298884e+03 
       1.646635701934e-01       2.742050155527e+03 
       1.701706958081e-01       2.591925766481e+03 
       1.758616357070e-01       2.476876833806e+03 
       1.817427160581e-01       2.384796238044e+03 
       1.878204014651e-01       2.299944831456e+03 
       1.941013163855e-01       2.205308632256e+03 
       2.005922709060e-01       2.090353102667e+03 
       2.073002914514e-01       1.955990624263e+03 
       2.142326570343e-01       1.813702018588e+03 
       2.213969417044e-01       1.678762299121e+03 
       2.288010639201e-01       1.563302213488e+03 
       2.364533436625e-01       1.472114759299e+03 
       2.443625682390e-01       1.400918119062e+03 
       2.525380678946e-01       1.337775672189e+03 
       2.609898025770e-01       1.270230433204e+03 
       2.697284614969e-01       1.192682741956e+03 
       2.787655775073e-01       1.108606095256e+03 
       2.881136588192e-01       1.028003287991e+03 
       2.977863412019e-01       9.596811020562e+02 
       3.077985646248e-01       9.041847689634e+02 
       3.181667793367e-01       8.552619531801e+02 
       3.289091877084e-01       8.052672671795e+02 
       3.400460298905e-01       7.514282812324e+02 
       3.515999235695e-01       6.979174352650e+02 
       3.635962710278e-01       6.500122600191e+02 
       3.760637505499e-01       6.090216284545e+02 
       3.890349143014e-01       5.709825515486e+02 
       4.025469215929e-01       5.325804424090e+02 
       4.166424455447e-01       4.943793005868e+02 
       4.313708034899e-01       4.591609522459e+02 
       4.467893781976e-01       4.274106651747e+02 
       4.629654198623e-01       3.973434238269e+02 
       4.799783500912e-01       3.677487031979e+02 
       4.979227318246e-01       3.396800397672e+02 
       5.169121269689e-01       3.138531339678e+02 
       5.370841403262e-01       2.891299624632e+02 
       5.586070463286e-01       2.653222896681e+02 
       5.816885093582e-01       2.429426229597e+02 
       6.065870143577e-01       2.216122435974e+02 
       6.336266466978e-01       2.011592848805e+02 
       6.632156057925e-01       1.817262444664e+02 
       6.958678637575e-01       1.630907812502e+02 
       7.322247983784e-01       1.453113598812e+02 
       7.730680193171e-01       1.283176065760e+02 
       8.193049551574e-01       1.121701292354e+02 
       8.718988013754e-01       9.694267754426e+01 
       9.317218028590e-01       8.278676813955e+01 
       9.993660906273e-01       6.987996601908e+01 
       1.075037109879e+00       5.836924715600e+01 
       1.158653485387e+00       4.831780285046e+01 
       1.250099156961e+00       3.968652701532e+01 
       1.349432400897e+00       3.235150673341e+01 
       1.456947456991e+00       2.615886553472e+01 
       1.573135110893e+00       2.095294821433e+01 
       1.698621895119e+00       1.659248117561e+01 
       1.834127512423e+00       1.295592169774e+01 
       1.980444933977e+00       9.940316918544e+00 
       2.138435191130e+00       7.459633462729e+00 
       2.309029198543e+00       5.441720323447e+00 
       2.493232376993e+00       3.825960657772e+00 
       2.692130394536e+00       2.560702458789e+00 
       2.906895533764e+00       1.600916553905e+00 
       3.138793596840e+00       9.057573973941e-01 
       3.389191365541e+00       4.366952910218e-01 
       3.659564656886e+00       1.557264186159e-01 
       3.951507021438e+00       2.425624338634e-02 
       4.266739135513e+00       2.771444651857e-03 
       4.607118942658e+00       5.157257910489e-02 
       4.974652604172e+00       1.326379500960e-01 
       5.371506323193e+00       2.125634538385e-01 
       5.800019112071e+00       2.659886613998e-01 
       6.262716578240e+00       2.788276317114e-01 
       6.762325809881e+00       2.499283104149e-01 
       7.301791449077e+00       1.902262555816e-01 
       7.884293047211e+00       1.186471448825e-01 
       8.513263804891e+00       5.542942842602e-02 
       9.192410806865e+00       1.485705359313e-02 
       9.925736871166e+00       3.050030927053e-04 
       1.071756414128e+01       4.256151314689e-03 
       1.157255956041e+01       1.366397402564e-02 
       1.249576237789e+01       1.784258507837e-02 
       1.349261385000e+01       1.394749836877e-02 
       1.456898931011e+01       6.382673915262e-03 
       1.573123279727e+01       1.085211992779e-03 
       1.698619444729e+01       6.378252367218e-05 
       1.834127086665e+01       1.020613469622e-03 
       1.980444872733e+01       1.256503381822e-03 
       2.138435183937e+01       5.432716495474e-04 
       2.309029197863e+01       3.382278832077e-05 
       2.493232376942e+01       4.661413050783e-05 
       2.692130394533e+01       9.610290189638e-05 
       2.906895533764e+01       2.870520590431e-05 
       3.138793596840e+01       1.147744327389e-07 
       3.389191365541e+01       6.909774054440e-06 
       3.659564656886e+01       2.143353459563e-06 
       3.951507021438e+01       6.613026832247e-08 
       4.266739135513e+01       3.502057997070e-07 
       4.607118942658e+01       4.564091513196e-09 
       4.974652604172e+01       2.493595462208e-08 
       5.371506323193e+01       4.967467503494e-10 
       5.800019112071e+01       8.113174048050e-10 
       6.262716578240e+01       1.096585137435e-10 
       6.762325809881e+01       1.410637982385e-11 
