# Matter power spectrum P(k) at redshift z=99
# for k=1.04775e-05 to 67.6233 h/Mpc,
# number of wavenumbers equal to 246
#    1:k (h/Mpc)              2:P (Mpc/h)^3        
       1.047750691046e-05       7.261927680861e-03 
       1.131335172503e-05       7.820331652431e-03 
       1.221587619537e-05       8.421675995453e-03 
       1.319039970183e-05       9.069258201848e-03 
       1.424266597921e-05       9.766638412133e-03 
       1.537887696968e-05       1.051764070801e-02 
       1.660572937635e-05       1.132639106725e-02 
       1.793045413292e-05       1.219733232715e-02 
       1.936085902198e-05       1.313524225779e-02 
       2.090537469327e-05       1.414527123399e-02 
       2.257310435294e-05       1.523296273823e-02 
       2.437387741694e-05       1.640429446288e-02 
       2.631830744443e-05       1.766569584058e-02 
       2.841785469300e-05       1.902408737005e-02 
       3.068489366414e-05       2.048692972772e-02 
       3.313278603720e-05       2.206225515942e-02 
       3.577595942169e-05       2.375870707438e-02 
       3.862999239199e-05       2.558560730202e-02 
       4.171170630578e-05       2.755297766277e-02 
       4.503926444729e-05       2.967161930474e-02 
       4.863227907969e-05       3.195316454233e-02 
       5.251192703764e-05       3.441013522947e-02 
       5.670107454120e-05       3.705601726473e-02 
       6.122441196689e-05       3.990533417795e-02 
       6.610859936996e-05       4.297372172777e-02 
       7.138242361596e-05       4.627802146614e-02 
       7.707696804727e-05       4.983636199464e-02 
       8.322579568497e-05       5.366826852944e-02 
       8.986514704559e-05       5.779476400720e-02 
       9.703415373875e-05       6.223848250510e-02 
       1.047750691046e-04       6.702379872774e-02 
       1.131335172503e-04       7.217695161064e-02 
       1.221587619537e-04       7.772619081845e-02 
       1.319039970183e-04       8.370193441285e-02 
       1.424266597921e-04       9.013692517142e-02 
       1.537887696968e-04       9.706641252902e-02 
       1.660572937635e-04       1.045283355384e-01 
       1.793045413292e-04       1.125635350266e-01 
       1.936085902198e-04       1.212159616259e-01 
       2.090537469327e-04       1.305329134104e-01 
       2.257310435294e-04       1.405652847711e-01 
       2.437387741694e-04       1.513678304151e-01 
       2.631830744443e-04       1.629994506605e-01 
       2.841785469300e-04       1.755234923092e-01 
       3.068489366414e-04       1.890080672425e-01 
       3.313278603720e-04       2.035264004601e-01 
       3.577595942169e-04       2.191571806013e-01 
       3.862999239199e-04       2.359849440103e-01 
       4.171170630578e-04       2.541004744243e-01 
       4.503926444729e-04       2.736012083189e-01 
       4.863227907969e-04       2.945916794099e-01 
       5.251192703764e-04       3.171839528557e-01 
       5.670107454121e-04       3.414980767635e-01 
       6.122441196689e-04       3.676625417011e-01 
       6.610859936996e-04       3.958147256513e-01 
       7.138242361596e-04       4.261013289361e-01 
       7.707696804727e-04       4.586787797352e-01 
       8.322579568497e-04       4.937136006300e-01 
       8.986514704559e-04       5.313826807048e-01 
       9.703415373875e-04       5.718734978233e-01 
       1.047750691046e-03       6.153841636040e-01 
       1.131335172503e-03       6.621233246496e-01 
       1.221587619537e-03       7.123098227991e-01 
       1.319039970183e-03       7.661720592606e-01 
       1.424266597921e-03       8.239546306464e-01 
       1.537887696968e-03       8.859011182851e-01 
       1.660572937635e-03       9.522588016481e-01 
       1.793045413292e-03       1.023280100902e+00 
       1.936085902198e-03       1.099216305740e+00 
       2.090537469327e-03       1.180312991699e+00 
       2.257310435294e-03       1.266804117181e+00 
       2.437387741694e-03       1.358904854834e+00 
       2.631830744443e-03       1.456802684686e+00 
       2.841785469300e-03       1.560646892157e+00 
       3.068489366414e-03       1.670536064244e+00 
       3.313278603720e-03       1.786503854037e+00 
       3.577595942169e-03       1.908502932769e+00 
       3.862999239199e-03       2.036387732815e+00 
       4.171170630578e-03       2.169896162253e+00 
       4.503926444729e-03       2.308631881359e+00 
       4.863227907969e-03       2.452047293459e+00 
       5.251192703764e-03       2.599430630722e+00 
       5.670107454120e-03       2.749896934585e+00 
       6.122441196689e-03       2.902386516275e+00 
       6.610859936996e-03       3.055668706701e+00 
       7.138242361596e-03       3.208356464659e+00 
       7.707696804727e-03       3.358923895628e+00 
       8.322579568496e-03       3.505725598560e+00 
       8.986514704559e-03       3.647009655208e+00 
       9.703415373875e-03       3.780923307813e+00 
       1.047750691046e-02       3.905490889057e+00 
       1.131335172503e-02       4.018587644479e+00 
       1.221587619537e-02       4.117901595922e+00 
       1.319039970183e-02       4.200915399685e+00 
       1.424266597920e-02       4.264944453129e+00 
       1.537887696964e-02       4.307220223308e+00 
       1.660572937560e-02       4.325059663715e+00 
       1.793045412207e-02       4.316057890422e+00 
       1.936085889642e-02       4.278224336848e+00 
       2.090537351881e-02       4.210204872234e+00 
       2.257309534705e-02       4.111419978629e+00 
       2.437382002240e-02       3.982410339313e+00 
       2.631799943729e-02       3.825170085061e+00 
       2.841644544598e-02       3.643278810714e+00 
       3.067933354524e-02       3.442197594390e+00 
       3.311368469821e-02       3.229233527175e+00 
       3.571840442514e-02       3.013511252260e+00 
       3.847720347390e-02       2.805278113561e+00 
       4.135335537314e-02       2.614410563093e+00 
       4.429361666563e-02       2.448125862449e+00 
       4.724366437916e-02       2.309233611908e+00 
       5.016480834039e-02       2.196112929843e+00 
       5.303989618930e-02       2.104365631637e+00 
       5.586870668205e-02       2.028465012532e+00 
       5.866042679206e-02       1.963153387835e+00 
       6.142798931504e-02       1.903779994990e+00 
       6.418496438662e-02       1.846477693496e+00 
       6.694418832236e-02       1.788195596018e+00 
       6.971731104453e-02       1.726715390803e+00 
       7.251476154108e-02       1.660651195218e+00 
       7.534587669814e-02       1.589469006727e+00 
       7.821907664495e-02       1.513439410045e+00 
       8.114203771084e-02       1.433572641121e+00 
       8.412184533139e-02       1.351492439252e+00 
       8.716512277352e-02       1.269273671485e+00 
       9.027813693913e-02       1.189193650303e+00 
       9.346688429613e-02       1.113501807314e+00 
       9.673716026122e-02       1.044175691515e+00 
       1.000946150608e-01       9.827076971947e-01 
       1.035447986307e-01       9.299390485057e-01 
       1.070931966524e-01       8.859597570228e-01 
       1.107452594180e-01       8.500701336701e-01 
       1.145064248899e-01       8.208028266632e-01 
       1.183821370656e-01       7.960260828211e-01 
       1.223778605591e-01       7.731450785134e-01 
       1.264990921707e-01       7.494512450275e-01 
       1.307513701078e-01       7.225569958180e-01 
       1.351402814485e-01       6.909086393160e-01 
       1.396714683894e-01       6.541810369618e-01 
       1.443506337875e-01       6.134275555001e-01 
       1.491835464900e-01       5.708684618663e-01 
       1.541760469368e-01       5.293630968242e-01 
       1.593340535209e-01       4.917119734384e-01 
       1.646635701934e-01       4.599200341908e-01 
       1.701706958081e-01       4.347284868779e-01 
       1.758616357070e-01       4.154085506917e-01 
       1.817427160581e-01       3.999373849256e-01 
       1.878204014651e-01       3.856823061508e-01 
       1.941013163855e-01       3.698095142185e-01 
       2.005922709060e-01       3.505462712610e-01 
       2.073002914514e-01       3.280425789949e-01 
       2.142326570343e-01       3.042139953658e-01 
       2.213969417044e-01       2.816122535817e-01 
       2.288010639201e-01       2.622575260069e-01 
       2.364533436625e-01       2.469620103268e-01 
       2.443625682390e-01       2.350130761427e-01 
       2.525380678946e-01       2.244178523727e-01 
       2.609898025770e-01       2.130933602083e-01 
       2.697284614969e-01       2.001021492281e-01 
       2.787655775073e-01       1.860197848658e-01 
       2.881136588192e-01       1.725172690237e-01 
       2.977863412019e-01       1.610659224548e-01 
       3.077985646248e-01       1.517612200225e-01 
       3.181667793367e-01       1.435596469396e-01 
       3.289091877084e-01       1.351817937589e-01 
       3.400460298905e-01       1.261643398484e-01 
       3.515999235695e-01       1.172020986902e-01 
       3.635962710278e-01       1.091770557192e-01 
       3.760637505499e-01       1.023094501042e-01 
       3.890349143014e-01       9.593755557741e-02 
       4.025469215929e-01       8.950765270558e-02 
       4.166424455447e-01       8.311189054221e-02 
       4.313708034899e-01       7.721544095797e-02 
       4.467893781976e-01       7.190073749718e-02 
       4.629654198623e-01       6.686906330150e-02 
       4.799783500912e-01       6.191735930157e-02 
       4.979227318246e-01       5.722233014830e-02 
       5.169121269689e-01       5.290304865530e-02 
       5.370841403262e-01       4.876973386295e-02 
       5.586070463286e-01       4.479085879812e-02 
       5.816885093582e-01       4.105188279400e-02 
       6.065870143577e-01       3.748998830459e-02 
       6.336266466978e-01       3.407631501445e-02 
       6.632156057925e-01       3.083463484750e-02 
       6.958678637575e-01       2.772830475275e-02 
       7.322247983784e-01       2.476706173487e-02 
       7.730680193171e-01       2.193958334932e-02 
       8.193049551574e-01       1.925612195798e-02 
       8.718988013754e-01       1.672920563538e-02 
       9.317218028590e-01       1.438422619689e-02 
       9.993660906273e-01       1.225068555708e-02 
       1.075037109879e+00       1.035262822239e-02 
       1.158653485387e+00       8.699682590435e-03 
       1.250099156961e+00       7.284569578402e-03 
       1.349432400897e+00       6.085430677525e-03 
       1.456947456991e+00       5.075696262517e-03 
       1.573135110893e+00       4.228269269690e-03 
       1.698621895119e+00       3.518525013284e-03 
       1.834127512423e+00       2.924967918994e-03 
       1.980444933977e+00       2.429136895420e-03 
       2.138435191130e+00       2.015476954216e-03 
       2.309029198543e+00       1.670749984285e-03 
       2.493232376993e+00       1.383770228049e-03 
       2.692130394536e+00       1.145105108102e-03 
       2.906895533764e+00       9.468290484669e-04 
       3.138793596840e+00       7.822552859611e-04 
       3.389191365541e+00       6.457957370429e-04 
       3.659564656886e+00       5.327416379485e-04 
       3.951507021438e+00       4.391549561851e-04 
       4.266739135513e+00       3.617595132102e-04 
       4.607118942658e+00       2.977991148432e-04 
       4.974652604172e+00       2.449831542442e-04 
       5.371506323193e+00       2.014078443957e-04 
       5.800019112071e+00       1.654767668959e-04 
       6.262716578240e+00       1.358741712115e-04 
       6.762325809881e+00       1.115006412382e-04 
       7.301791449077e+00       9.144614144224e-05 
       7.884293047211e+00       7.495687148723e-05 
       8.513263804891e+00       6.140630590473e-05 
       9.192410806865e+00       5.027868714934e-05 
       9.925736871166e+00       4.114549525222e-05 
       1.071756414128e+01       3.365399193571e-05 
       1.157255956041e+01       2.751195134481e-05 
       1.249576237789e+01       2.247956192136e-05 
       1.349261385000e+01       1.835836345536e-05 
       1.456898931011e+01       1.498514849106e-05 
       1.573123279727e+01       1.222550071076e-05 
       1.698619444729e+01       9.968978253859e-06 
       1.834127086665e+01       8.124620193274e-06 
       1.980444872733e+01       6.617942663008e-06 
       2.138435183937e+01       5.387649866518e-06 
       2.309029197863e+01       4.383483728096e-06 
       2.493232376942e+01       3.564266218189e-06 
       2.692130394533e+01       2.896208674150e-06 
       2.906895533764e+01       2.351654851671e-06 
       3.138793596840e+01       1.907992242671e-06 
       3.389191365541e+01       1.546636062309e-06 
       3.659564656886e+01       1.252464964686e-06 
       3.951507021438e+01       1.013103649625e-06 
       4.266739135513e+01       8.184159063258e-07 
       4.607118942658e+01       6.601522464648e-07 
       4.974652604172e+01       5.315703419655e-07 
       5.371506323193e+01       4.271498009026e-07 
       5.800019112071e+01       3.424230643850e-07 
       6.262716578240e+01       2.737203658609e-07 
       6.762325809881e+01       2.180663261780e-07 
