# Matter power spectrum P(k) at redshift z=0
# for k=1.04775e-05 to 66.1767 h/Mpc,
# number of wavenumbers equal to 130
#    1:k (h/Mpc)              2:P (Mpc/h)^3        
       1.047750691046e-05       5.020964811312e+01 
       1.319039970183e-05       6.270562594776e+01 
       1.660572937635e-05       7.831147247912e+01 
       2.090537469327e-05       9.780108069295e+01 
       2.631830744443e-05       1.221408203809e+02 
       3.313278603720e-05       1.525374501932e+02 
       4.171170630578e-05       1.904975994010e+02 
       5.251192703764e-05       2.379022224249e+02 
       6.610859936996e-05       2.970989227881e+02 
       8.322579568497e-05       3.710167318946e+02 
       1.047750691046e-04       4.633080766742e+02 
       1.319039970183e-04       5.785234129335e+02 
       1.660572937635e-04       7.223242666092e+02 
       2.090537469327e-04       9.017396271824e+02 
       2.631830744443e-04       1.125468123749e+03 
       3.313278603720e-04       1.404223053681e+03 
       4.171170630578e-04       1.751108028790e+03 
       5.251192703764e-04       2.181998448133e+03 
       6.610859936996e-04       2.715889983592e+03 
       8.322579568497e-04       3.375152337134e+03 
       1.047750691046e-03       4.185552174304e+03 
       1.319039970183e-03       5.175742738360e+03 
       1.660572937635e-03       6.376123051774e+03 
       2.090537469327e-03       7.815671905154e+03 
       2.631830744443e-03       9.517783069112e+03 
       3.313278603720e-03       1.149357460346e+04 
       4.171170630578e-03       1.373266009953e+04 
       5.251192703764e-03       1.619063614554e+04 
       6.610859936996e-03       1.877460424891e+04 
       8.322579568497e-03       2.132606895031e+04 
       1.047750691046e-02       2.360549093152e+04 
       1.319039970183e-02       2.528218650843e+04 
       1.660572937633e-02       2.595029564594e+04 
       2.090537453514e-02       2.520931231748e+04 
       2.631818545635e-02       2.287030097912e+04 
       3.311571692125e-02       1.928631463921e+04 
       4.113809243311e-02       1.568424380877e+04 
       4.792590854610e-02       1.361060717428e+04 
       5.284436902701e-02       1.259129540690e+04 
       5.689644391095e-02       1.195557425944e+04 
       6.051252627066e-02       1.147547009941e+04 
       6.388413457411e-02       1.105590494570e+04 
       6.711249296401e-02       1.064900134481e+04 
       7.025823437965e-02       1.022928480171e+04 
       7.336115587705e-02       9.784510341486e+03 
       7.644928796912e-02       9.311663794859e+03 
       7.954353299775e-02       8.814541524885e+03 
       8.266024078725e-02       8.302126507453e+03 
       8.581273398637e-02       7.786942056422e+03 
       8.901225918437e-02       7.283180918996e+03 
       9.226860540985e-02       6.805168067239e+03 
       9.559052048996e-02       6.365633215996e+03 
       9.898599946599e-02       5.974430820973e+03 
       1.024624891378e-01       5.637312408229e+03 
       1.060270359164e-01       5.355778613476e+03 
       1.096863943056e-01       5.126236602513e+03 
       1.134471073830e-01       4.940474111895e+03 
       1.173155669539e-01       4.786161705347e+03 
       1.212980586983e-01       4.647928987468e+03 
       1.254007961065e-01       4.509112081652e+03 
       1.296299459934e-01       4.354538601211e+03 
       1.339916477160e-01       4.173218197867e+03 
       1.384920277736e-01       3.961170281334e+03 
       1.431372111762e-01       3.722690793331e+03 
       1.479333307714e-01       3.469527071672e+03 
       1.528865355934e-01       3.218341450355e+03 
       1.580029992204e-01       2.986299108750e+03 
       1.632889290723e-01       2.786965930193e+03 
       1.687505775527e-01       2.626824908979e+03 
       1.743942559171e-01       2.503761212352e+03 
       1.802263517371e-01       2.407341367902e+03 
       1.862533508214e-01       2.322249074871e+03 
       1.924818644494e-01       2.231552977192e+03 
       1.989186627765e-01       2.122188664939e+03 
       2.055707152847e-01       1.992020058584e+03 
       2.124452391818e-01       1.850323397673e+03 
       2.195497567139e-01       1.712180309752e+03 
       2.268921624510e-01       1.590987870611e+03 
       2.344808017550e-01       1.493668396298e+03 
       2.423245618548e-01       1.418312199245e+03 
       2.504329772620e-01       1.354469973358e+03 
       2.588163516754e-01       1.288934859738e+03 
       2.674858990930e-01       1.213937876502e+03 
       2.764539076010e-01       1.130692969790e+03 
       2.857339303080e-01       1.048101365468e+03 
       2.953410092148e-01       9.761819899621e+02 
       3.052919395542e-01       9.178089752312e+02 
       3.156055844677e-01       8.678966442260e+02 
       3.263032530092e-01       8.185250449998e+02 
       3.374091587054e-01       7.651437170784e+02 
       3.489509817175e-01       7.106716544164e+02 
       3.609605657343e-01       6.607859067925e+02 
       3.734747921333e-01       6.180852893055e+02 
       3.865366902904e-01       5.793097369066e+02 
       4.001968667448e-01       5.403900161827e+02 
       4.145153713076e-01       5.011507617285e+02 
       4.295641718077e-01       4.645002741942e+02 
       4.454304922144e-01       4.314082741479e+02 
       4.622214006969e-01       4.001125968843e+02 
       4.800702491654e-01       3.690897394030e+02 
       4.991459272112e-01       3.394755151460e+02 
       5.196665217302e-01       3.119842023755e+02 
       5.419201087032e-01       2.852468126398e+02 
       5.662975451962e-01       2.593312871091e+02 
       5.933463737275e-01       2.345482161568e+02 
       6.238638458458e-01       2.102304068074e+02 
       6.590669257916e-01       1.864334668056e+02 
       7.009246080454e-01       1.627250998441e+02 
       7.528593308799e-01       1.388183991178e+02 
       8.213469537518e-01       1.141880780741e+02 
       9.196980813302e-01       8.835892621496e+01 
       1.075112183810e+00       6.172582552998e+01 
       1.322697471132e+00       3.804258089476e+01 
       1.662328205042e+00       2.209793018634e+01 
       2.092692408506e+00       1.266915168277e+01 
       2.634543445090e+00       7.203311954998e+00 
       3.316693691389e+00       4.065145502729e+00 
       4.175469971226e+00       2.278561723338e+00 
       5.256605252960e+00       1.269340877141e+00 
       6.617673932723e+00       7.031284574824e-01 
       8.331157880872e+00       3.874756476511e-01 
       1.048830636590e+01       2.125094559234e-01 
       1.320399541071e+01       1.160355548047e-01 
       1.662284535976e+01       6.309814158885e-02 
       2.092692243973e+01       3.417896031788e-02 
       2.634543445002e+01       1.844548850919e-02 
       3.316693691389e+01       9.918666383943e-03 
       4.175469971226e+01       5.314041165979e-03 
       5.256605252960e+01       2.836170478498e-03 
       6.617673932723e+01       1.507194946643e-03 
