# Matter power spectrum P(k) at redshift z=99
# for k=1.04775e-05 to 67.6233 h/Mpc,
# number of wavenumbers equal to 246
#    1:k (h/Mpc)              2:P (Mpc/h)^3        
       1.047750691046e-05       7.261927680891e-03 
       1.131335172503e-05       7.820331652464e-03 
       1.221587619537e-05       8.421675995488e-03 
       1.319039970183e-05       9.069258201886e-03 
       1.424266597921e-05       9.766638412173e-03 
       1.537887696968e-05       1.051764070805e-02 
       1.660572937635e-05       1.132639106730e-02 
       1.793045413292e-05       1.219733232720e-02 
       1.936085902198e-05       1.313524225784e-02 
       2.090537469327e-05       1.414527123405e-02 
       2.257310435294e-05       1.523296273829e-02 
       2.437387741694e-05       1.640429446295e-02 
       2.631830744443e-05       1.766569584065e-02 
       2.841785469300e-05       1.902408737013e-02 
       3.068489366414e-05       2.048692972781e-02 
       3.313278603720e-05       2.206225515951e-02 
       3.577595942169e-05       2.375870707448e-02 
       3.862999239199e-05       2.558560730213e-02 
       4.171170630578e-05       2.755297766288e-02 
       4.503926444729e-05       2.967161930485e-02 
       4.863227907969e-05       3.195316454246e-02 
       5.251192703764e-05       3.441013522961e-02 
       5.670107454120e-05       3.705601726483e-02 
       6.122441196689e-05       3.990533417813e-02 
       6.610859936996e-05       4.297372172795e-02 
       7.138242361596e-05       4.627802146633e-02 
       7.707696804727e-05       4.983636199484e-02 
       8.322579568497e-05       5.366826852966e-02 
       8.986514704559e-05       5.779476400744e-02 
       9.703415373875e-05       6.223848250535e-02 
       1.047750691046e-04       6.702379872802e-02 
       1.131335172503e-04       7.217695161093e-02 
       1.221587619537e-04       7.772619081876e-02 
       1.319039970183e-04       8.370193441320e-02 
       1.424266597921e-04       9.013692517178e-02 
       1.537887696968e-04       9.706641252942e-02 
       1.660572937635e-04       1.045283355388e-01 
       1.793045413292e-04       1.125635350271e-01 
       1.936085902198e-04       1.212159616263e-01 
       2.090537469327e-04       1.305329134109e-01 
       2.257310435294e-04       1.405652847717e-01 
       2.437387741694e-04       1.513678304157e-01 
       2.631830744443e-04       1.629994506612e-01 
       2.841785469300e-04       1.755234923099e-01 
       3.068489366414e-04       1.890080672432e-01 
       3.313278603720e-04       2.035264004609e-01 
       3.577595942169e-04       2.191571806022e-01 
       3.862999239199e-04       2.359849440113e-01 
       4.171170630578e-04       2.541004744252e-01 
       4.503926444729e-04       2.736012083199e-01 
       4.863227907969e-04       2.945916794110e-01 
       5.251192703764e-04       3.171839528569e-01 
       5.670107454121e-04       3.414980767647e-01 
       6.122441196689e-04       3.676625417024e-01 
       6.610859936996e-04       3.958147256527e-01 
       7.138242361596e-04       4.261013289375e-01 
       7.707696804727e-04       4.586787797367e-01 
       8.322579568497e-04       4.937136006303e-01 
       8.986514704559e-04       5.313826807063e-01 
       9.703415373875e-04       5.718734978248e-01 
       1.047750691046e-03       6.153841636054e-01 
       1.131335172503e-03       6.621233246508e-01 
       1.221587619537e-03       7.123098228001e-01 
       1.319039970183e-03       7.661720592927e-01 
       1.424266597921e-03       8.239546306470e-01 
       1.537887696968e-03       8.859011182848e-01 
       1.660572937635e-03       9.522588016428e-01 
       1.793045413292e-03       1.023280100899e+00 
       1.936085902198e-03       1.099216305737e+00 
       2.090537469327e-03       1.180312991693e+00 
       2.257310435294e-03       1.266804117178e+00 
       2.437387741694e-03       1.358904854824e+00 
       2.631830744443e-03       1.456802684670e+00 
       2.841785469300e-03       1.560646892135e+00 
       3.068489366414e-03       1.670536064215e+00 
       3.313278603720e-03       1.786503854005e+00 
       3.577595942169e-03       1.908502932720e+00 
       3.862999239199e-03       2.036387732751e+00 
       4.171170630578e-03       2.169896162114e+00 
       4.503926444729e-03       2.308631881252e+00 
       4.863227907969e-03       2.452047293323e+00 
       5.251192703764e-03       2.599430630549e+00 
       5.670107454120e-03       2.749896934329e+00 
       6.122441196689e-03       2.902386515999e+00 
       6.610859936996e-03       3.055668710189e+00 
       7.138242361596e-03       3.208356464228e+00 
       7.707696804727e-03       3.358923894959e+00 
       8.322579568496e-03       3.505724991576e+00 
       8.986514704559e-03       3.647009645372e+00 
       9.703415373875e-03       3.780923306709e+00 
       1.047750691046e-02       3.905490116629e+00 
       1.131335172503e-02       4.018587964711e+00 
       1.221587619537e-02       4.117901587985e+00 
       1.319039970183e-02       4.200915283987e+00 
       1.424266597920e-02       4.264942962883e+00 
       1.537887696964e-02       4.307216703111e+00 
       1.660572937560e-02       4.325061666993e+00 
       1.793045412207e-02       4.316057303135e+00 
       1.936085889642e-02       4.278230144675e+00 
       2.090537351881e-02       4.210200632322e+00 
       2.257309534705e-02       4.111415839888e+00 
       2.437382002240e-02       3.982426446778e+00 
       2.631799943729e-02       3.825165188850e+00 
       2.841644544598e-02       3.643276882106e+00 
       3.067933354524e-02       3.442195094234e+00 
       3.311368469821e-02       3.229244151073e+00 
       3.571840442514e-02       3.013525785907e+00 
       3.847720347390e-02       2.805286789667e+00 
       4.135335537314e-02       2.614414941793e+00 
       4.429361666563e-02       2.448134741662e+00 
       4.724366437916e-02       2.309236824175e+00 
       5.016480834039e-02       2.196114351710e+00 
       5.303989618930e-02       2.104365961997e+00 
       5.586870668205e-02       2.028464556566e+00 
       5.866042679206e-02       1.963157426278e+00 
       6.142798931504e-02       1.903781317865e+00 
       6.418496438662e-02       1.846480607098e+00 
       6.694418832236e-02       1.788197029811e+00 
       6.971731104453e-02       1.726718542317e+00 
       7.251476154108e-02       1.660657634801e+00 
       7.534587669814e-02       1.589476070896e+00 
       7.821907664495e-02       1.513434728380e+00 
       8.114203771084e-02       1.433564387263e+00 
       8.412184533139e-02       1.351491129493e+00 
       8.716512277352e-02       1.269272919568e+00 
       9.027813693913e-02       1.189195242929e+00 
       9.346688429613e-02       1.113503222025e+00 
       9.673716026122e-02       1.044173075143e+00 
       1.000946150608e-01       9.827039106055e-01 
       1.035447986307e-01       9.299361237092e-01 
       1.070931966524e-01       8.859573172710e-01 
       1.107452594180e-01       8.500712620157e-01 
       1.145064248899e-01       8.208028159989e-01 
       1.183821370656e-01       7.960257052160e-01 
       1.223778605591e-01       7.731449025804e-01 
       1.264990921707e-01       7.494512063570e-01 
       1.307513701078e-01       7.225586404582e-01 
       1.351402814485e-01       6.909106309533e-01 
       1.396714683894e-01       6.541819548344e-01 
       1.443506337875e-01       6.134291115582e-01 
       1.491835464900e-01       5.708701075109e-01 
       1.541760469368e-01       5.293638918267e-01 
       1.593340535209e-01       4.917109291911e-01 
       1.646635701934e-01       4.599196475631e-01 
       1.701706958081e-01       4.347280475225e-01 
       1.758616357070e-01       4.154082044855e-01 
       1.817427160581e-01       3.999366600393e-01 
       1.878204014651e-01       3.856859074147e-01 
       1.941013163855e-01       3.698134110976e-01 
       2.005922709060e-01       3.505512057161e-01 
       2.073002914514e-01       3.280470375310e-01 
       2.142326570343e-01       3.042140862403e-01 
       2.213969417044e-01       2.816105584702e-01 
       2.288010639201e-01       2.622573267617e-01 
       2.364533436625e-01       2.469613535559e-01 
       2.443625682390e-01       2.350129427166e-01 
       2.525380678946e-01       2.244198747649e-01 
       2.609898025770e-01       2.130955166592e-01 
       2.697284614969e-01       2.001018213801e-01 
       2.787655775073e-01       1.860194671241e-01 
       2.881136588192e-01       1.725166494848e-01 
       2.977863412019e-01       1.610654748157e-01 
       3.077985646248e-01       1.517606852516e-01 
       3.181667793367e-01       1.435591761135e-01 
       3.289091877084e-01       1.351815668275e-01 
       3.400460298905e-01       1.261640158441e-01 
       3.515999235695e-01       1.172016020776e-01 
       3.635962710278e-01       1.091764828475e-01 
       3.760637505499e-01       1.023089807093e-01 
       3.890349143014e-01       9.593729020519e-02 
       4.025469215929e-01       8.950717780493e-02 
       4.166424455447e-01       8.311134724696e-02 
       4.313708034899e-01       7.721509193817e-02 
       4.467893781976e-01       7.190027953157e-02 
       4.629654198623e-01       6.686871051263e-02 
       4.799783500912e-01       6.191705188306e-02 
       4.979227318246e-01       5.722183836208e-02 
       5.169121269689e-01       5.290259249397e-02 
       5.370841403262e-01       4.876946326874e-02 
       5.586070463286e-01       4.479047599057e-02 
       5.816885093582e-01       4.105152217260e-02 
       6.065870143577e-01       3.748949783767e-02 
       6.336266466978e-01       3.407597486632e-02 
       6.632156057925e-01       3.083415980977e-02 
       6.958678637575e-01       2.772801479084e-02 
       7.322247983784e-01       2.476674526318e-02 
       7.730680193171e-01       2.193922346488e-02 
       8.193049551574e-01       1.925583140996e-02 
       8.718988013754e-01       1.672894522810e-02 
       9.317218028590e-01       1.438381760304e-02 
       9.993660906273e-01       1.225031063227e-02 
       1.075037109879e+00       1.035226680408e-02 
       1.158653485387e+00       8.699370525343e-03 
       1.250099156961e+00       7.284238976671e-03 
       1.349432400897e+00       6.085109772874e-03 
       1.456947456991e+00       5.075368008271e-03 
       1.573135110893e+00       4.227959640724e-03 
       1.698621895119e+00       3.518194109641e-03 
       1.834127512423e+00       2.924630075786e-03 
       1.980444933977e+00       2.428816031605e-03 
       2.138435191130e+00       2.015155864417e-03 
       2.309029198543e+00       1.670422501228e-03 
       2.493232376993e+00       1.383441180148e-03 
       2.692130394536e+00       1.144778768991e-03 
       2.906895533764e+00       9.465084287789e-04 
       3.138793596840e+00       7.819423095762e-04 
       3.389191365541e+00       6.454779957301e-04 
       3.659564656886e+00       5.324273899082e-04 
       3.951507021438e+00       4.388431842469e-04 
       4.266739135513e+00       3.614522309579e-04 
       4.607118942658e+00       2.974931244032e-04 
       4.974652604172e+00       2.446816224371e-04 
       5.371506323193e+00       2.011064530592e-04 
       5.800019112071e+00       1.651801329459e-04 
       6.262716578240e+00       1.355798382250e-04 
       6.762325809881e+00       1.112088131917e-04 
       7.301791449077e+00       9.115827589665e-05 
       7.884293047211e+00       7.467119361159e-05 
       8.513263804891e+00       6.112406042283e-05 
       9.192410806865e+00       4.999907957507e-05 
       9.925736871166e+00       4.086865229699e-05 
       1.071756414128e+01       3.337942281104e-05 
       1.157255956041e+01       2.723986306675e-05 
       1.249576237789e+01       2.220980655515e-05 
       1.349261385000e+01       1.809097062820e-05 
       1.456898931011e+01       1.471990206403e-05 
       1.573123279727e+01       1.196226806412e-05 
       1.698619444729e+01       9.707647578224e-06 
       1.834127086665e+01       7.865237492364e-06 
       1.980444872733e+01       6.360539068406e-06 
       2.138435183937e+01       5.132320448291e-06 
       2.309029197863e+01       4.130314140746e-06 
       2.493232376942e+01       3.313453050877e-06 
       2.692130394533e+01       2.648021704824e-06 
       2.906895533764e+01       2.106502738863e-06 
       3.138793596840e+01       1.666342254656e-06 
       3.389191365541e+01       1.309147086841e-06 
       3.659564656886e+01       1.019907340486e-06 
       3.951507021438e+01       7.863946250469e-07 
       4.266739135513e+01       5.986547126172e-07 
       4.607118942658e+01       4.485635529358e-07 
       4.974652604172e+01       3.295318177852e-07 
       5.371506323193e+01       2.361398934882e-07 
       5.800019112071e+01       1.639646531363e-07 
       6.262716578240e+01       1.093186309527e-07 
       6.762325809881e+01       6.910141820436e-08 
