# Matter power spectrum P(k) at redshift z=99
# for k=1.04775e-05 to 66.1767 h/Mpc,
# number of wavenumbers equal to 130
#    1:k (h/Mpc)              2:P (Mpc/h)^3        
       1.047750691046e-05       7.261927680890e-03 
       1.319039970183e-05       9.069258201883e-03 
       1.660572937635e-05       1.132639106730e-02 
       2.090537469327e-05       1.414527123405e-02 
       2.631830744443e-05       1.766569584065e-02 
       3.313278603720e-05       2.206225515951e-02 
       4.171170630578e-05       2.755297766287e-02 
       5.251192703764e-05       3.441013522960e-02 
       6.610859936996e-05       4.297372172794e-02 
       8.322579568497e-05       5.366826852965e-02 
       1.047750691046e-04       6.702379872800e-02 
       1.319039970183e-04       8.370193441318e-02 
       1.660572937635e-04       1.045283355388e-01 
       2.090537469327e-04       1.305329134109e-01 
       2.631830744443e-04       1.629994506612e-01 
       3.313278603720e-04       2.035264004609e-01 
       4.171170630578e-04       2.541004744252e-01 
       5.251192703764e-04       3.171839528569e-01 
       6.610859936996e-04       3.958147256526e-01 
       8.322579568497e-04       4.937136006290e-01 
       1.047750691046e-03       6.153841636054e-01 
       1.319039970183e-03       7.661720592898e-01 
       1.660572937635e-03       9.522588016372e-01 
       2.090537469327e-03       1.180312991694e+00 
       2.631830744443e-03       1.456802684671e+00 
       3.313278603720e-03       1.786503854007e+00 
       4.171170630578e-03       2.169896196241e+00 
       5.251192703764e-03       2.599430630560e+00 
       6.610859936996e-03       3.055668707196e+00 
       8.322579568497e-03       3.505725598103e+00 
       1.047750691046e-02       3.905492065344e+00 
       1.319039970183e-02       4.200915431007e+00 
       1.660572937633e-02       4.325062847695e+00 
       2.090537453514e-02       4.210202564503e+00 
       2.631818545635e-02       3.825152038160e+00 
       3.311571692125e-02       3.229061815925e+00 
       4.113809243311e-02       2.627721474352e+00 
       4.792590854610e-02       2.280794025666e+00 
       5.284436902701e-02       2.110084601083e+00 
       5.689644391095e-02       2.003538984925e+00 
       6.051252627066e-02       1.923058960539e+00 
       6.388413457411e-02       1.852734307609e+00 
       6.711249296401e-02       1.784563003535e+00 
       7.025823437965e-02       1.714275769741e+00 
       7.336115587705e-02       1.639811872995e+00 
       7.644928796912e-02       1.560661114868e+00 
       7.954353299775e-02       1.477458971677e+00 
       8.266024078725e-02       1.391698908878e+00 
       8.581273398637e-02       1.305458645212e+00 
       8.901225918437e-02       1.221125397278e+00 
       9.226860540985e-02       1.141077406759e+00 
       9.559052048996e-02       1.067452492591e+00 
       9.898599946599e-02       1.001889113491e+00 
       1.024624891378e-01       9.453818157332e-01 
       1.060270359164e-01       8.981487311737e-01 
       1.096863943056e-01       8.596107254024e-01 
       1.134471073830e-01       8.284056573560e-01 
       1.173155669539e-01       8.024695493600e-01 
       1.212980586983e-01       7.792296094695e-01 
       1.254007961065e-01       7.559184173459e-01 
       1.296299459934e-01       7.299820056489e-01 
       1.339916477160e-01       6.995955898992e-01 
       1.384920277736e-01       6.640806321792e-01 
       1.431372111762e-01       6.241470466754e-01 
       1.479333307714e-01       5.817648791168e-01 
       1.528865355934e-01       5.396902960287e-01 
       1.580029992204e-01       5.008140703077e-01 
       1.632889290723e-01       4.673991028827e-01 
       1.687505775527e-01       4.405337585691e-01 
       1.743942559171e-01       4.198665300448e-01 
       1.802263517371e-01       4.036589204842e-01 
       1.862533508214e-01       3.893622674317e-01 
       1.924818644494e-01       3.741394782384e-01 
       1.989186627765e-01       3.558068228343e-01 
       2.055707152847e-01       3.340032108841e-01 
       2.124452391818e-01       3.102654426980e-01 
       2.195497567139e-01       2.871214417698e-01 
       2.268921624510e-01       2.668070715310e-01 
       2.344808017550e-01       2.504835823795e-01 
       2.423245618548e-01       2.378325897947e-01 
       2.504329772620e-01       2.271117974169e-01 
       2.588163516754e-01       2.161194836010e-01 
       2.674858990930e-01       2.035473469643e-01 
       2.764539076010e-01       1.895971013214e-01 
       2.857339303080e-01       1.757569412801e-01 
       2.953410092148e-01       1.636985950134e-01 
       3.052919395542e-01       1.539060980890e-01 
       3.156055844677e-01       1.455304278535e-01 
       3.263032530092e-01       1.372498493860e-01 
       3.374091587054e-01       1.283014888840e-01 
       3.489509817175e-01       1.191713292700e-01 
       3.609605657343e-01       1.108067024462e-01 
       3.734747921333e-01       1.036450387243e-01 
       3.865366902904e-01       9.714102642564e-02 
       4.001968667448e-01       9.061552966704e-02 
       4.145153713076e-01       8.403687450135e-02 
       4.295641718077e-01       7.789103146088e-02 
       4.454304922144e-01       7.234138078358e-02 
       4.622214006969e-01       6.709334202190e-02 
       4.800702491654e-01       6.189165201898e-02 
       4.991459272112e-01       5.692599212752e-02 
       5.196665217302e-01       5.231591001011e-02 
       5.419201087032e-01       4.783223738773e-02 
       5.662975451962e-01       4.348656219114e-02 
       5.933463737275e-01       3.933068403989e-02 
       6.238638458458e-01       3.525304977208e-02 
       6.590669257916e-01       3.126251049790e-02 
       7.009246080454e-01       2.728704983019e-02 
       7.528593308799e-01       2.327812365977e-02 
       8.213469537518e-01       1.914797180918e-02 
       9.196980813302e-01       1.481665486801e-02 
       1.075112183810e+00       1.035064197687e-02 
       1.322697471132e+00       6.379149216011e-03 
       1.662328205042e+00       3.705338381581e-03 
       2.092692408506e+00       2.124207904180e-03 
       2.634543445090e+00       1.207641885685e-03 
       3.316693691389e+00       6.813913790755e-04 
       4.175469971226e+00       3.818084183691e-04 
       5.256605252960e+00       2.125707438744e-04 
       6.617673932723e+00       1.176280331982e-04 
       8.331157880872e+00       6.470146355805e-05 
       1.048830636590e+01       3.536851222252e-05 
       1.320399541071e+01       1.919741812385e-05 
       1.662284535976e+01       1.032667397921e-05 
       2.092692243973e+01       5.483448418148e-06 
       2.634543445002e+01       2.852160944154e-06 
       3.316693691389e+01       1.431837715963e-06 
       4.175469971226e+01       6.743564787195e-07 
       5.256605252960e+01       2.819488032816e-07 
       6.617673932723e+01       9.336399008746e-08 
