# Matter power spectrum P(k) at redshift z=0
# for k=1.04775e-05 to 67.6233 h/Mpc,
# number of wavenumbers equal to 246
#    1:k (h/Mpc)              2:P (Mpc/h)^3        
       1.047750691046e-05       5.020964811306e+01 
       1.131335172503e-05       5.407050701931e+01 
       1.221587619537e-05       5.822819068756e+01 
       1.319039970183e-05       6.270562594783e+01 
       1.424266597921e-05       6.752732240880e+01 
       1.537887696968e-05       7.271977206173e+01 
       1.660572937635e-05       7.831147247912e+01 
       1.793045413292e-05       8.433311821988e+01 
       1.936085902198e-05       9.081778249833e+01 
       2.090537469327e-05       9.780108069296e+01 
       2.257310435294e-05       1.053213197893e+02 
       2.437387741694e-05       1.134197377890e+02 
       2.631830744443e-05       1.221408203809e+02 
       2.841785469300e-05       1.315324642462e+02 
       3.068489366414e-05       1.416462094881e+02 
       3.313278603720e-05       1.525374501932e+02 
       3.577595942169e-05       1.642660688414e+02 
       3.862999239199e-05       1.768963506307e+02 
       4.171170630578e-05       1.904975994010e+02 
       4.503926444729e-05       2.051444491974e+02 
       4.863227907969e-05       2.209171465549e+02 
       5.251192703764e-05       2.379022224249e+02 
       5.670107454120e-05       2.561927927509e+02 
       6.122441196689e-05       2.758890444040e+02 
       6.610859936996e-05       2.970989227882e+02 
       7.138242361596e-05       3.199385560802e+02 
       7.707696804727e-05       3.445329783680e+02 
       8.322579568497e-05       3.710167318946e+02 
       8.986514704559e-05       3.995346444203e+02 
       9.703415373875e-05       4.302425407383e+02 
       1.047750691046e-04       4.633080766742e+02 
       1.131335172503e-04       4.989116271564e+02 
       1.221587619537e-04       5.372471950929e+02 
       1.319039970183e-04       5.785234129337e+02 
       1.424266597921e-04       6.229645934871e+02 
       1.537887696968e-04       6.708118490405e+02 
       1.660572937635e-04       7.223242666092e+02 
       1.793045413292e-04       7.777801559926e+02 
       1.936085902198e-04       8.374783614141e+02 
       2.090537469327e-04       9.017396271824e+02 
       2.257310435294e-04       9.709080268041e+02 
       2.437387741694e-04       1.045352449493e+03 
       2.631830744443e-04       1.125468123750e+03 
       2.841785469300e-04       1.211678180495e+03 
       3.068489366414e-04       1.304435250150e+03 
       3.313278603720e-04       1.404223053681e+03 
       3.577595942169e-04       1.511558014616e+03 
       3.862999239199e-04       1.626990837807e+03 
       4.171170630578e-04       1.751108028790e+03 
       4.503926444729e-04       1.884533382872e+03 
       4.863227907969e-04       2.027929378112e+03 
       5.251192703764e-04       2.181998448133e+03 
       5.670107454121e-04       2.347484102755e+03 
       6.122441196689e-04       2.525171871367e+03 
       6.610859936996e-04       2.715889983593e+03 
       7.138242361596e-04       2.920509688384e+03 
       7.707696804727e-04       3.139945100279e+03 
       8.322579568497e-04       3.375152337578e+03 
       8.986514704559e-04       3.627127831141e+03 
       9.703415373875e-04       3.896905453136e+03 
       1.047750691046e-03       4.185552174300e+03 
       1.131335172503e-03       4.494162430373e+03 
       1.221587619537e-03       4.823850706488e+03 
       1.319039970183e-03       5.175742742807e+03 
       1.424266597921e-03       5.551019596904e+03 
       1.537887696968e-03       5.950788340563e+03 
       1.660572937635e-03       6.376123051789e+03 
       1.793045413292e-03       6.828073901457e+03 
       1.936085902198e-03       7.307625381066e+03 
       2.090537469327e-03       7.815671864494e+03 
       2.257310435294e-03       8.352990375817e+03 
       2.437387741694e-03       8.920211064340e+03 
       2.631830744443e-03       9.517783069112e+03 
       2.841785469300e-03       1.014593704435e+04 
       3.068489366414e-03       1.080464502793e+04 
       3.313278603720e-03       1.149357460344e+04 
       3.577595942169e-03       1.221203621722e+04 
       3.862999239199e-03       1.295892539446e+04 
       4.171170630578e-03       1.373266011890e+04 
       4.503926444729e-03       1.453111835625e+04 
       4.863227907969e-03       1.535154985296e+04 
       5.251192703764e-03       1.619063614536e+04 
       5.670107454120e-03       1.704431257722e+04 
       6.122441196689e-03       1.790755939653e+04 
       6.610859936996e-03       1.877460421245e+04 
       7.138242361596e-03       1.963872430399e+04 
       7.707696804727e-03       2.049215713682e+04 
       8.322579568496e-03       2.132606920640e+04 
       8.986514704559e-03       2.213055164177e+04 
       9.703415373875e-03       2.289445472307e+04 
       1.047750691046e-02       2.360548526968e+04 
       1.131335172503e-02       2.425022857786e+04 
       1.221587619537e-02       2.481423924699e+04 
       1.319039970183e-02       2.528218788113e+04 
       1.424266597920e-02       2.563814716284e+04 
       1.537887696964e-02       2.586606917054e+04 
       1.660572937560e-02       2.595027532747e+04 
       1.793045412207e-02       2.587635218847e+04 
       1.936085889642e-02       2.563220836368e+04 
       2.090537351881e-02       2.520933518479e+04 
       2.257309534705e-02       2.460442943544e+04 
       2.437382002240e-02       2.382088092029e+04 
       2.631799943729e-02       2.287043154446e+04 
       2.841644544598e-02       2.177450527492e+04 
       3.067933354524e-02       2.056553401924e+04 
       3.311368469821e-02       1.928733460331e+04 
       3.571840442514e-02       1.799404261850e+04 
       3.847720347390e-02       1.674689524244e+04 
       4.135335537314e-02       1.560464326278e+04 
       4.429361666563e-02       1.461039286975e+04 
       4.724366437916e-02       1.378054132145e+04 
       5.016480834039e-02       1.310510198394e+04 
       5.303989618930e-02       1.255714252222e+04 
       5.586870668205e-02       1.210426574212e+04 
       5.866042679206e-02       1.171465948683e+04 
       6.142798931504e-02       1.136047403423e+04 
       6.418496438662e-02       1.101856605956e+04 
       6.694418832236e-02       1.067067333401e+04 
       6.971731104453e-02       1.030356467963e+04 
       7.251476154108e-02       9.909028540216e+03 
       7.534587669814e-02       9.483753948704e+03 
       7.821907664495e-02       9.029496771948e+03 
       8.114203771084e-02       8.552319871640e+03 
       8.412184533139e-02       8.061900393429e+03 
       8.716512277352e-02       7.570768170251e+03 
       9.027813693913e-02       7.092484523409e+03 
       9.346688429613e-02       6.640526878723e+03 
       9.673716026122e-02       6.226706997147e+03 
       1.000946150608e-01       5.859944040385e+03 
       1.035447986307e-01       5.545242337167e+03 
       1.070931966524e-01       5.283140117302e+03 
       1.107452594180e-01       5.069426177143e+03 
       1.145064248899e-01       4.895257271455e+03 
       1.183821370656e-01       4.747841568775e+03 
       1.223778605591e-01       4.611732828405e+03 
       1.264990921707e-01       4.470629497968e+03 
       1.307513701078e-01       4.310265250137e+03 
       1.351402814485e-01       4.121378337632e+03 
       1.396714683894e-01       3.902049590826e+03 
       1.443506337875e-01       3.658666378362e+03 
       1.491835464900e-01       3.404483521706e+03 
       1.541760469368e-01       3.156676253958e+03 
       1.593340535209e-01       2.931978294462e+03 
       1.646635701934e-01       2.742381185418e+03 
       1.701706958081e-01       2.592264725707e+03 
       1.758616357070e-01       2.477233221571e+03 
       1.817427160581e-01       2.385188501753e+03 
       1.878204014651e-01       2.300358447751e+03 
       1.941013163855e-01       2.205762176071e+03 
       2.005922709060e-01       2.090816495070e+03 
       2.073002914514e-01       1.956470941633e+03 
       2.142326570343e-01       1.814189581383e+03 
       2.213969417044e-01       1.679299035257e+03 
       2.288010639201e-01       1.563846000821e+03 
       2.364533436625e-01       1.472685935012e+03 
       2.443625682390e-01       1.401513841718e+03 
       2.525380678946e-01       1.338414338014e+03 
       2.609898025770e-01       1.270902603616e+03 
       2.697284614969e-01       1.193385231833e+03 
       2.787655775073e-01       1.109341321032e+03 
       2.881136588192e-01       1.028768563886e+03 
       2.977863412019e-01       9.604812360473e+02 
       3.077985646248e-01       9.050225356513e+02 
       3.181667793367e-01       8.561438425854e+02 
       3.289091877084e-01       8.061896022459e+02 
       3.400460298905e-01       7.523947665617e+02 
       3.515999235695e-01       6.989224108272e+02 
       3.635962710278e-01       6.510631838537e+02 
       3.760637505499e-01       6.101210504091e+02 
       3.890349143014e-01       5.721322505421e+02 
       4.025469215929e-01       5.337828681729e+02 
       4.166424455447e-01       4.956311667321e+02 
       4.313708034899e-01       4.604694488688e+02 
       4.467893781976e-01       4.287771173472e+02 
       4.629654198623e-01       3.987719086242e+02 
       4.799783500912e-01       3.692425079648e+02 
       4.979227318246e-01       3.412406492383e+02 
       5.169121269689e-01       3.154829069010e+02 
       5.370841403262e-01       2.908354445987e+02 
       5.586070463286e-01       2.671056982462e+02 
       5.816885093582e-01       2.448086788631e+02 
       6.065870143577e-01       2.235673099225e+02 
       6.336266466978e-01       2.032098901076e+02 
       6.632156057925e-01       1.838782249246e+02 
       6.958678637575e-01       1.653538885905e+02 
       7.322247983784e-01       1.476953335108e+02 
       7.730680193171e-01       1.308338840177e+02 
       8.193049551574e-01       1.148306712412e+02 
       8.718988013754e-01       9.976185995398e+01 
       9.317218028590e-01       8.577800535501e+01 
       9.993660906273e-01       7.305489330574e+01 
       1.075037109879e+00       6.173594925582e+01 
       1.158653485387e+00       5.187858907063e+01 
       1.250099156961e+00       4.344021129405e+01 
       1.349432400897e+00       3.628939851092e+01 
       1.456947456991e+00       3.026794427079e+01 
       1.573135110893e+00       2.521451124720e+01 
       1.698621895119e+00       2.098199053477e+01 
       1.834127512423e+00       1.744224458362e+01 
       1.980444933977e+00       1.448557344905e+01 
       2.138435191130e+00       1.201889715496e+01 
       2.309029198543e+00       9.963193259416e+00 
       2.493232376993e+00       8.251761640450e+00 
       2.692130394536e+00       6.828538035168e+00 
       2.906895533764e+00       5.646235657111e+00 
       3.138793596840e+00       4.664835916813e+00 
       3.389191365541e+00       3.851114415503e+00 
       3.659564656886e+00       3.176952172428e+00 
       3.951507021438e+00       2.618866747290e+00 
       4.266739135513e+00       2.157338293258e+00 
       4.607118942658e+00       1.775917361892e+00 
       4.974652604172e+00       1.460996428584e+00 
       5.371506323193e+00       1.201118185421e+00 
       5.800019112071e+00       9.868758029666e-01 
       6.262716578240e+00       8.103547086554e-01 
       6.762325809881e+00       6.650094909500e-01 
       7.301791449077e+00       5.454266253444e-01 
       7.884293047211e+00       4.470992195896e-01 
       8.513263804891e+00       3.662927316404e-01 
       9.192410806865e+00       2.999378198264e-01 
       9.925736871166e+00       2.454790050465e-01 
       1.071756414128e+01       2.008056339020e-01 
       1.157255956041e+01       1.641823151723e-01 
       1.249576237789e+01       1.341740388644e-01 
       1.349261385000e+01       1.096008927577e-01 
       1.456898931011e+01       8.948715164517e-02 
       1.573123279727e+01       7.303144962724e-02 
       1.698619444729e+01       5.957645684998e-02 
       1.834127086665e+01       4.857917941794e-02 
       1.980444872733e+01       3.959550127838e-02 
       2.138435183937e+01       3.225930064149e-02 
       2.309029197863e+01       2.627216208813e-02 
       2.493232376942e+01       2.138697888273e-02 
       2.692130394533e+01       1.740332722371e-02 
       2.906895533764e+01       1.415599306532e-02 
       3.138793596840e+01       1.150997732588e-02 
       3.389191365541e+01       9.354723527928e-03 
       3.659564656886e+01       7.599939792720e-03 
       3.951507021438e+01       6.171762493713e-03 
       4.266739135513e+01       5.009924261338e-03 
       4.607118942658e+01       4.065028266628e-03 
       4.974652604172e+01       3.296874621398e-03 
       5.371506323193e+01       2.672633178651e-03 
       5.800019112071e+01       2.165509503120e-03 
       6.262716578240e+01       1.753730048119e-03 
       6.762325809881e+01       1.419463679142e-03 
