# Matter power spectrum P(k) at redshift z=99
# for k=1.04775e-05 to 67.6233 h/Mpc,
# number of wavenumbers equal to 246
#    1:k (h/Mpc)              2:P (Mpc/h)^3        
       1.047750691046e-05       7.261927681277e-03 
       1.131335172503e-05       7.820331652879e-03 
       1.221587619537e-05       8.421675995938e-03 
       1.319039970183e-05       9.069258202369e-03 
       1.424266597921e-05       9.766638412692e-03 
       1.537887696968e-05       1.051764070861e-02 
       1.660572937635e-05       1.132639106790e-02 
       1.793045413292e-05       1.219733232785e-02 
       1.936085902198e-05       1.313524225854e-02 
       2.090537469327e-05       1.414527123480e-02 
       2.257310435294e-05       1.523296273910e-02 
       2.437387741694e-05       1.640429446382e-02 
       2.631830744443e-05       1.766569584160e-02 
       2.841785469300e-05       1.902408737113e-02 
       3.068489366414e-05       2.048692972890e-02 
       3.313278603720e-05       2.206225516068e-02 
       3.577595942169e-05       2.375870707573e-02 
       3.862999239199e-05       2.558560730349e-02 
       4.171170630578e-05       2.755297766434e-02 
       4.503926444729e-05       2.967161930645e-02 
       4.863227907969e-05       3.195316454416e-02 
       5.251192703764e-05       3.441013523144e-02 
       5.670107454120e-05       3.705601726682e-02 
       6.122441196689e-05       3.990533418039e-02 
       6.610859936996e-05       4.297372173023e-02 
       7.138242361596e-05       4.627802146880e-02 
       7.707696804727e-05       4.983636199749e-02 
       8.322579568497e-05       5.366826853250e-02 
       8.986514704559e-05       5.779476401049e-02 
       9.703415373875e-05       6.223848250870e-02 
       1.047750691046e-04       6.702379873157e-02 
       1.131335172503e-04       7.217695161479e-02 
       1.221587619537e-04       7.772619082292e-02 
       1.319039970183e-04       8.370193441765e-02 
       1.424266597921e-04       9.013692517654e-02 
       1.537887696968e-04       9.706641253455e-02 
       1.660572937635e-04       1.045283355444e-01 
       1.793045413292e-04       1.125635350330e-01 
       1.936085902198e-04       1.212159616327e-01 
       2.090537469327e-04       1.305329134178e-01 
       2.257310435294e-04       1.405652847790e-01 
       2.437387741694e-04       1.513678304237e-01 
       2.631830744443e-04       1.629994506696e-01 
       2.841785469300e-04       1.755234923191e-01 
       3.068489366414e-04       1.890080672530e-01 
       3.313278603720e-04       2.035264004714e-01 
       3.577595942169e-04       2.191571806135e-01 
       3.862999239199e-04       2.359849440234e-01 
       4.171170630578e-04       2.541004744381e-01 
       4.503926444729e-04       2.736012083337e-01 
       4.863227907969e-04       2.945916794258e-01 
       5.251192703764e-04       3.171839528726e-01 
       5.670107454121e-04       3.414980767814e-01 
       6.122441196689e-04       3.676625417201e-01 
       6.610859936996e-04       3.958147256714e-01 
       7.138242361596e-04       4.261013289578e-01 
       7.707696804727e-04       4.586787797571e-01 
       8.322579568497e-04       4.937136006531e-01 
       8.986514704559e-04       5.313826807286e-01 
       9.703415373875e-04       5.718734978478e-01 
       1.047750691046e-03       6.153841636288e-01 
       1.131335172503e-03       6.621233246742e-01 
       1.221587619537e-03       7.123098228234e-01 
       1.319039970183e-03       7.661720592848e-01 
       1.424266597921e-03       8.239546306667e-01 
       1.537887696968e-03       8.859011183027e-01 
       1.660572937635e-03       9.522588016567e-01 
       1.793045413292e-03       1.023280100902e+00 
       1.936085902198e-03       1.099216305725e+00 
       2.090537469327e-03       1.180312991660e+00 
       2.257310435294e-03       1.266804117112e+00 
       2.437387741694e-03       1.358904854711e+00 
       2.631830744443e-03       1.456802684492e+00 
       2.841785469300e-03       1.560646891865e+00 
       3.068489366414e-03       1.670536063817e+00 
       3.313278603720e-03       1.786503853419e+00 
       3.577595942169e-03       1.908502931895e+00 
       3.862999239199e-03       2.036387731578e+00 
       4.171170630578e-03       2.169896194877e+00 
       4.503926444729e-03       2.308631878930e+00 
       4.863227907969e-03       2.452047290071e+00 
       5.251192703764e-03       2.599430626006e+00 
       5.670107454120e-03       2.749896928014e+00 
       6.122441196689e-03       2.902386507188e+00 
       6.610859936996e-03       3.055668694148e+00 
       7.138242361596e-03       3.208356447275e+00 
       7.707696804727e-03       3.358923872167e+00 
       8.322579568496e-03       3.505725565733e+00 
       8.986514704559e-03       3.647009486852e+00 
       9.703415373875e-03       3.780923246117e+00 
       1.047750691046e-02       3.905490030119e+00 
       1.131335172503e-02       4.018587879046e+00 
       1.221587619537e-02       4.117901434360e+00 
       1.319039970183e-02       4.200915095754e+00 
       1.424266597920e-02       4.264942167624e+00 
       1.537887696964e-02       4.307217592030e+00 
       1.660572937560e-02       4.325061270394e+00 
       1.793045412207e-02       4.316062000022e+00 
       1.936085889642e-02       4.278227976435e+00 
       2.090537351881e-02       4.210201723759e+00 
       2.257309534705e-02       4.111420797625e+00 
       2.437382002240e-02       3.982417997960e+00 
       2.631799943729e-02       3.825163596127e+00 
       2.841644544598e-02       3.643278504318e+00 
       3.067933354524e-02       3.442196350893e+00 
       3.311368469821e-02       3.229229510142e+00 
       3.571840442514e-02       3.013502218901e+00 
       3.847720347390e-02       2.805270358673e+00 
       4.135335537314e-02       2.614398220760e+00 
       4.429361666563e-02       2.448125132613e+00 
       4.724366437916e-02       2.309230323077e+00 
       5.016480834039e-02       2.196097032405e+00 
       5.303989618930e-02       2.104354544447e+00 
       5.586870668205e-02       2.028445875109e+00 
       5.866042679206e-02       1.963133753199e+00 
       6.142798931504e-02       1.903760532516e+00 
       6.418496438662e-02       1.846456506222e+00 
       6.694418832236e-02       1.788176261302e+00 
       6.971731104453e-02       1.726688364746e+00 
       7.251476154108e-02       1.660625228248e+00 
       7.534587669814e-02       1.589443979634e+00 
       7.821907664495e-02       1.513409264115e+00 
       8.114203771084e-02       1.433539193993e+00 
       8.412184533139e-02       1.351457791407e+00 
       8.716512277352e-02       1.269239995722e+00 
       9.027813693913e-02       1.189160113020e+00 
       9.346688429613e-02       1.113462174262e+00 
       9.673716026122e-02       1.044136623161e+00 
       1.000946150608e-01       9.826644107130e-01 
       1.035447986307e-01       9.298916226059e-01 
       1.070931966524e-01       8.859123934874e-01 
       1.107452594180e-01       8.500212447799e-01 
       1.145064248899e-01       8.207511252944e-01 
       1.183821370656e-01       7.959690047724e-01 
       1.223778605591e-01       7.730870335293e-01 
       1.264990921707e-01       7.493889598337e-01 
       1.307513701078e-01       7.224929177235e-01 
       1.351402814485e-01       6.908412596872e-01 
       1.396714683894e-01       6.541110346096e-01 
       1.443506337875e-01       6.133533395278e-01 
       1.491835464900e-01       5.707914875423e-01 
       1.541760469368e-01       5.292840274492e-01 
       1.593340535209e-01       4.916301568198e-01 
       1.646635701934e-01       4.598360721371e-01 
       1.701706958081e-01       4.346407082501e-01 
       1.758616357070e-01       4.153170742543e-01 
       1.817427160581e-01       3.998422935889e-01 
       1.878204014651e-01       3.855834996153e-01 
       1.941013163855e-01       3.697061352661e-01 
       2.005922709060e-01       3.504388041501e-01 
       2.073002914514e-01       3.279328995267e-01 
       2.142326570343e-01       3.041007412775e-01 
       2.213969417044e-01       2.814963558133e-01 
       2.288010639201e-01       2.621386958641e-01 
       2.364533436625e-01       2.468395499121e-01 
       2.443625682390e-01       2.348860778267e-01 
       2.525380678946e-01       2.242859014299e-01 
       2.609898025770e-01       2.129573099188e-01 
       2.697284614969e-01       1.999610507908e-01 
       2.787655775073e-01       1.858764515239e-01 
       2.881136588192e-01       1.723703185734e-01 
       2.977863412019e-01       1.609158162258e-01 
       3.077985646248e-01       1.516060689967e-01 
       3.181667793367e-01       1.434000608152e-01 
       3.289091877084e-01       1.350175983796e-01 
       3.400460298905e-01       1.259961263355e-01 
       3.515999235695e-01       1.170301073792e-01 
       3.635962710278e-01       1.090016389710e-01 
       3.760637505499e-01       1.021289942775e-01 
       3.890349143014e-01       9.575240601737e-02 
       4.025469215929e-01       8.931843571105e-02 
       4.166424455447e-01       8.291783183373e-02 
       4.313708034899e-01       7.701783245547e-02 
       4.467893781976e-01       7.169799059198e-02 
       4.629654198623e-01       6.666163090699e-02 
       4.799783500912e-01       6.170573071407e-02 
       4.979227318246e-01       5.700597095561e-02 
       5.169121269689e-01       5.268175854320e-02 
       5.370841403262e-01       4.854357090713e-02 
       5.586070463286e-01       4.455988949703e-02 
       5.816885093582e-01       4.081577831862e-02 
       6.065870143577e-01       3.724841740047e-02 
       6.336266466978e-01       3.382946587556e-02 
       6.632156057925e-01       3.058205463776e-02 
       6.958678637575e-01       2.747005934022e-02 
       7.322247983784e-01       2.450272069668e-02 
       7.730680193171e-01       2.166878163206e-02 
       8.193049551574e-01       1.897871540255e-02 
       8.718988013754e-01       1.644495240210e-02 
       9.317218028590e-01       1.409275042960e-02 
       9.993660906273e-01       1.195200853408e-02 
       1.075037109879e+00       1.004694113544e-02 
       1.158653485387e+00       8.387386551162e-03 
       1.250099156961e+00       6.966151830947e-03 
       1.349432400897e+00       5.761582616409e-03 
       1.456947456991e+00       4.747256730063e-03 
       1.573135110893e+00       3.896138759024e-03 
       1.698621895119e+00       3.183764481074e-03 
       1.834127512423e+00       2.588781712156e-03 
       1.980444933977e+00       2.092867469745e-03 
       2.138435191130e+00       1.680562350843e-03 
       2.309029198543e+00       1.338770852156e-03 
       2.493232376993e+00       1.056459344643e-03 
       2.692130394536e+00       8.243047804037e-04 
       2.906895533764e+00       6.344873833703e-04 
       3.138793596840e+00       4.804099131538e-04 
       3.389191365541e+00       3.564972040565e-04 
       3.659564656886e+00       2.580387326141e-04 
       3.951507021438e+00       1.810303984331e-04 
       4.266739135513e+00       1.220291183521e-04 
       4.607118942658e+00       7.803953983803e-05 
       4.974652604172e+00       4.643795845343e-05 
       5.371506323193e+00       2.488278506564e-05 
       5.800019112071e+00       1.127231032294e-05 
       6.262716578240e+00       3.708373313421e-06 
       6.762325809881e+00       4.864210136563e-07 
       7.301791449077e+00       1.045040314681e-07 
       7.884293047211e+00       1.285248855795e-06 
       8.513263804891e+00       3.006815443898e-06 
       9.192410806865e+00       4.529072491033e-06 
       9.925736871166e+00       5.408757877903e-06 
       1.071756414128e+01       5.486618772622e-06 
       1.157255956041e+01       4.845126930628e-06 
       1.249576237789e+01       3.732742455539e-06 
       1.349261385000e+01       2.468768250261e-06 
       1.456898931011e+01       1.344296232295e-06 
       1.573123279727e+01       5.461096452013e-07 
       1.698619444729e+01       1.226310508296e-07 
       1.834127086665e+01       7.398482818394e-10 
       1.980444872733e+01       4.246406883436e-08 
       2.138435183937e+01       1.148839779761e-07 
       2.309029197863e+01       1.410310819321e-07 
       2.493232376942e+01       1.113256331296e-07 
       2.692130394533e+01       5.817025838889e-08 
       2.906895533764e+01       1.697761420594e-08 
       3.138793596840e+01       9.248008625649e-10 
       3.389191365541e+01       1.448525311547e-09 
       3.659564656886e+01       4.561630728101e-09 
       3.951507021438e+01       3.999850321597e-09 
       4.266739135513e+01       1.535546737167e-09 
       4.607118942658e+01       1.353581536169e-10 
       4.974652604172e+01       5.327113306161e-11 
       5.371506323193e+01       1.785662070794e-10 
       5.800019112071e+01       9.324227327775e-11 
       6.262716578240e+01       7.597992047720e-12 
       6.762325809881e+01       3.696415911312e-12 
