# Matter power spectrum P(k) at redshift z=99
# for k=1.04775e-05 to 67.6233 h/Mpc,
# number of wavenumbers equal to 246
#    1:k (h/Mpc)              2:P (Mpc/h)^3        
       1.047750691046e-05       7.261927680864e-03 
       1.131335172503e-05       7.820331652434e-03 
       1.221587619537e-05       8.421675995456e-03 
       1.319039970183e-05       9.069258201851e-03 
       1.424266597921e-05       9.766638412135e-03 
       1.537887696968e-05       1.051764070801e-02 
       1.660572937635e-05       1.132639106726e-02 
       1.793045413292e-05       1.219733232715e-02 
       1.936085902198e-05       1.313524225779e-02 
       2.090537469327e-05       1.414527123400e-02 
       2.257310435294e-05       1.523296273823e-02 
       2.437387741694e-05       1.640429446289e-02 
       2.631830744443e-05       1.766569584059e-02 
       2.841785469300e-05       1.902408737006e-02 
       3.068489366414e-05       2.048692972773e-02 
       3.313278603720e-05       2.206225515943e-02 
       3.577595942169e-05       2.375870707439e-02 
       3.862999239199e-05       2.558560730203e-02 
       4.171170630578e-05       2.755297766278e-02 
       4.503926444729e-05       2.967161930475e-02 
       4.863227907969e-05       3.195316454234e-02 
       5.251192703764e-05       3.441013522948e-02 
       5.670107454120e-05       3.705601726474e-02 
       6.122441196689e-05       3.990533417798e-02 
       6.610859936996e-05       4.297372172779e-02 
       7.138242361596e-05       4.627802146616e-02 
       7.707696804727e-05       4.983636199465e-02 
       8.322579568497e-05       5.366826852946e-02 
       8.986514704559e-05       5.779476400722e-02 
       9.703415373875e-05       6.223848250512e-02 
       1.047750691046e-04       6.702379872776e-02 
       1.131335172503e-04       7.217695161066e-02 
       1.221587619537e-04       7.772619081847e-02 
       1.319039970183e-04       8.370193441288e-02 
       1.424266597921e-04       9.013692517142e-02 
       1.537887696968e-04       9.706641252905e-02 
       1.660572937635e-04       1.045283355384e-01 
       1.793045413292e-04       1.125635350267e-01 
       1.936085902198e-04       1.212159616259e-01 
       2.090537469327e-04       1.305329134104e-01 
       2.257310435294e-04       1.405652847711e-01 
       2.437387741694e-04       1.513678304152e-01 
       2.631830744443e-04       1.629994506606e-01 
       2.841785469300e-04       1.755234923093e-01 
       3.068489366414e-04       1.890080672425e-01 
       3.313278603720e-04       2.035264004602e-01 
       3.577595942169e-04       2.191571806014e-01 
       3.862999239199e-04       2.359849440105e-01 
       4.171170630578e-04       2.541004744243e-01 
       4.503926444729e-04       2.736012083190e-01 
       4.863227907969e-04       2.945916794100e-01 
       5.251192703764e-04       3.171839528558e-01 
       5.670107454121e-04       3.414980767636e-01 
       6.122441196689e-04       3.676625417012e-01 
       6.610859936996e-04       3.958147256514e-01 
       7.138242361596e-04       4.261013289355e-01 
       7.707696804727e-04       4.586787797352e-01 
       8.322579568497e-04       4.937136006301e-01 
       8.986514704559e-04       5.313826807050e-01 
       9.703415373875e-04       5.718734978234e-01 
       1.047750691046e-03       6.153841636041e-01 
       1.131335172503e-03       6.621233246496e-01 
       1.221587619537e-03       7.123098228000e-01 
       1.319039970183e-03       7.661720592615e-01 
       1.424266597921e-03       8.239546306463e-01 
       1.537887696968e-03       8.859011182850e-01 
       1.660572937635e-03       9.522588016453e-01 
       1.793045413292e-03       1.023280100902e+00 
       1.936085902198e-03       1.099216305740e+00 
       2.090537469327e-03       1.180312991698e+00 
       2.257310435294e-03       1.266804117181e+00 
       2.437387741694e-03       1.358904854836e+00 
       2.631830744443e-03       1.456802684685e+00 
       2.841785469300e-03       1.560646892155e+00 
       3.068489366414e-03       1.670536064243e+00 
       3.313278603720e-03       1.786503854037e+00 
       3.577595942169e-03       1.908502932766e+00 
       3.862999239199e-03       2.036387732811e+00 
       4.171170630578e-03       2.169896194341e+00 
       4.503926444729e-03       2.308631881352e+00 
       4.863227907969e-03       2.452047293450e+00 
       5.251192703764e-03       2.599430630709e+00 
       5.670107454120e-03       2.749896934526e+00 
       6.122441196689e-03       2.902386516254e+00 
       6.610859936996e-03       3.055668703634e+00 
       7.138242361596e-03       3.208356464626e+00 
       7.707696804727e-03       3.358923895565e+00 
       8.322579568496e-03       3.505725598483e+00 
       8.986514704559e-03       3.647008943226e+00 
       9.703415373875e-03       3.780923307712e+00 
       1.047750691046e-02       3.905491056078e+00 
       1.131335172503e-02       4.018587644694e+00 
       1.221587619537e-02       4.117901590842e+00 
       1.319039970183e-02       4.200915409273e+00 
       1.424266597920e-02       4.264943129398e+00 
       1.537887696964e-02       4.307218261187e+00 
       1.660572937560e-02       4.325062889245e+00 
       1.793045412207e-02       4.316059197997e+00 
       1.936085889642e-02       4.278225190901e+00 
       2.090537351881e-02       4.210207278739e+00 
       2.257309534705e-02       4.111426398327e+00 
       2.437382002240e-02       3.982419062245e+00 
       2.631799943729e-02       3.825165387699e+00 
       2.841644544598e-02       3.643286365791e+00 
       3.067933354524e-02       3.442195311416e+00 
       3.311368469821e-02       3.229238556328e+00 
       3.571840442514e-02       3.013508789285e+00 
       3.847720347390e-02       2.805275922447e+00 
       4.135335537314e-02       2.614405427849e+00 
       4.429361666563e-02       2.448133626075e+00 
       4.724366437916e-02       2.309241769356e+00 
       5.016480834039e-02       2.196115719863e+00 
       5.303989618930e-02       2.104367191318e+00 
       5.586870668205e-02       2.028464527133e+00 
       5.866042679206e-02       1.963155912371e+00 
       6.142798931504e-02       1.903776857909e+00 
       6.418496438662e-02       1.846480646456e+00 
       6.694418832236e-02       1.788196375911e+00 
       6.971731104453e-02       1.726716068409e+00 
       7.251476154108e-02       1.660655109747e+00 
       7.534587669814e-02       1.589468384646e+00 
       7.821907664495e-02       1.513438155285e+00 
       8.114203771084e-02       1.433566603257e+00 
       8.412184533139e-02       1.351493622674e+00 
       8.716512277352e-02       1.269273687201e+00 
       9.027813693913e-02       1.189193495976e+00 
       9.346688429613e-02       1.113501724650e+00 
       9.673716026122e-02       1.044174827222e+00 
       1.000946150608e-01       9.827078060144e-01 
       1.035447986307e-01       9.299412553229e-01 
       1.070931966524e-01       8.859575624056e-01 
       1.107452594180e-01       8.500699214205e-01 
       1.145064248899e-01       8.208037515627e-01 
       1.183821370656e-01       7.960249247525e-01 
       1.223778605591e-01       7.731448678721e-01 
       1.264990921707e-01       7.494511506050e-01 
       1.307513701078e-01       7.225571798513e-01 
       1.351402814485e-01       6.909075467988e-01 
       1.396714683894e-01       6.541796778579e-01 
       1.443506337875e-01       6.134256325036e-01 
       1.491835464900e-01       5.708679677369e-01 
       1.541760469368e-01       5.293653109768e-01 
       1.593340535209e-01       4.917109422145e-01 
       1.646635701934e-01       4.599210641849e-01 
       1.701706958081e-01       4.347270298755e-01 
       1.758616357070e-01       4.154074034012e-01 
       1.817427160581e-01       3.999357611913e-01 
       1.878204014651e-01       3.856833126881e-01 
       1.941013163855e-01       3.698097641734e-01 
       2.005922709060e-01       3.505468278920e-01 
       2.073002914514e-01       3.280461284847e-01 
       2.142326570343e-01       3.042141105074e-01 
       2.213969417044e-01       2.816114711967e-01 
       2.288010639201e-01       2.622563889100e-01 
       2.364533436625e-01       2.469619772115e-01 
       2.443625682390e-01       2.350129663361e-01 
       2.525380678946e-01       2.244197618061e-01 
       2.609898025770e-01       2.130956026294e-01 
       2.697284614969e-01       2.001020882251e-01 
       2.787655775073e-01       1.860195138618e-01 
       2.881136588192e-01       1.725166496579e-01 
       2.977863412019e-01       1.610660471382e-01 
       3.077985646248e-01       1.517608480693e-01 
       3.181667793367e-01       1.435590857499e-01 
       3.289091877084e-01       1.351814038189e-01 
       3.400460298905e-01       1.261644321501e-01 
       3.515999235695e-01       1.172016901933e-01 
       3.635962710278e-01       1.091767222151e-01 
       3.760637505499e-01       1.023096303029e-01 
       3.890349143014e-01       9.593760698524e-02 
       4.025469215929e-01       8.950764431373e-02 
       4.166424455447e-01       8.311168359670e-02 
       4.313708034899e-01       7.721536602448e-02 
       4.467893781976e-01       7.190033312751e-02 
       4.629654198623e-01       6.686890967763e-02 
       4.799783500912e-01       6.191744852085e-02 
       4.979227318246e-01       5.722225736562e-02 
       5.169121269689e-01       5.290277937294e-02 
       5.370841403262e-01       4.876971182132e-02 
       5.586070463286e-01       4.479092115691e-02 
       5.816885093582e-01       4.105185933565e-02 
       6.065870143577e-01       3.748974355536e-02 
       6.336266466978e-01       3.407616708712e-02 
       6.632156057925e-01       3.083439357638e-02 
       6.958678637575e-01       2.772806278695e-02 
       7.322247983784e-01       2.476693324634e-02 
       7.730680193171e-01       2.193944689303e-02 
       8.193049551574e-01       1.925598176713e-02 
       8.718988013754e-01       1.672916314893e-02 
       9.317218028590e-01       1.438404865080e-02 
       9.993660906273e-01       1.225050590540e-02 
       1.075037109879e+00       1.035243658282e-02 
       1.158653485387e+00       8.699550721742e-03 
       1.250099156961e+00       7.284423723525e-03 
       1.349432400897e+00       6.085277355148e-03 
       1.456947456991e+00       5.075525586170e-03 
       1.573135110893e+00       4.228070993889e-03 
       1.698621895119e+00       3.518323431381e-03 
       1.834127512423e+00       2.924742363970e-03 
       1.980444933977e+00       2.428886977681e-03 
       2.138435191130e+00       2.015228615657e-03 
       2.309029198543e+00       1.670466374453e-03 
       2.493232376993e+00       1.383470131034e-03 
       2.692130394536e+00       1.144783658683e-03 
       2.906895533764e+00       9.464856776975e-04 
       3.138793596840e+00       7.818950001953e-04 
       3.389191365541e+00       6.454010961712e-04 
       3.659564656886e+00       5.323157052552e-04 
       3.951507021438e+00       4.387068489639e-04 
       4.266739135513e+00       3.612798402178e-04 
       4.607118942658e+00       2.972855068856e-04 
       4.974652604172e+00       2.444376772587e-04 
       5.371506323193e+00       2.008262477218e-04 
       5.800019112071e+00       1.648599587189e-04 
       6.262716578240e+00       1.352208379250e-04 
       6.762325809881e+00       1.108083420196e-04 
       7.301791449077e+00       9.071490201540e-05 
       7.884293047211e+00       7.418396970787e-05 
       8.513263804891e+00       6.059297241336e-05 
       9.192410806865e+00       4.942318892726e-05 
       9.925736871166e+00       4.024796783057e-05 
       1.071756414128e+01       3.271404971182e-05 
       1.157255956041e+01       2.653094161924e-05 
       1.249576237789e+01       2.145826855865e-05 
       1.349261385000e+01       1.729852570420e-05 
       1.456898931011e+01       1.388946499819e-05 
       1.573123279727e+01       1.109706200809e-05 
       1.698619444729e+01       8.812231700775e-06 
       1.834127086665e+01       6.945024961457e-06 
       1.980444872733e+01       5.421952241940e-06 
       2.138435183937e+01       4.183216136427e-06 
       2.309029197863e+01       3.179880128785e-06 
       2.493232376942e+01       2.371958922575e-06 
       2.692130394533e+01       1.727097802296e-06 
       2.906895533764e+01       1.218707120537e-06 
       3.138793596840e+01       8.249247912247e-07 
       3.389191365541e+01       5.275596661784e-07 
       3.659564656886e+01       3.111287203621e-07 
       3.951507021438e+01       1.621016016481e-07 
       4.266739135513e+01       6.820410356563e-08 
       4.607118942658e+01       1.799020601993e-08 
       4.974652604172e+01       5.070870028466e-10 
       5.371506323193e+01       5.251114587953e-09 
       5.800019112071e+01       2.236030759476e-08 
       6.262716578240e+01       4.305085828679e-08 
       6.762325809881e+01       6.024096558696e-08 
