# Matter power spectrum P(k) at redshift z=99
# for k=1.04775e-05 to 66.1767 h/Mpc,
# number of wavenumbers equal to 130
#    1:k (h/Mpc)              2:P (Mpc/h)^3        
       1.047750691046e-05       7.261927680864e-03 
       1.319039970183e-05       9.069258201851e-03 
       1.660572937635e-05       1.132639106726e-02 
       2.090537469327e-05       1.414527123400e-02 
       2.631830744443e-05       1.766569584059e-02 
       3.313278603720e-05       2.206225515943e-02 
       4.171170630578e-05       2.755297766278e-02 
       5.251192703764e-05       3.441013522948e-02 
       6.610859936996e-05       4.297372172779e-02 
       8.322579568497e-05       5.366826852946e-02 
       1.047750691046e-04       6.702379872776e-02 
       1.319039970183e-04       8.370193441288e-02 
       1.660572937635e-04       1.045283355384e-01 
       2.090537469327e-04       1.305329134104e-01 
       2.631830744443e-04       1.629994506606e-01 
       3.313278603720e-04       2.035264004602e-01 
       4.171170630578e-04       2.541004744243e-01 
       5.251192703764e-04       3.171839528558e-01 
       6.610859936996e-04       3.958147256514e-01 
       8.322579568497e-04       4.937136006277e-01 
       1.047750691046e-03       6.153841636043e-01 
       1.319039970183e-03       7.661720592799e-01 
       1.660572937635e-03       9.522588016464e-01 
       2.090537469327e-03       1.180312991699e+00 
       2.631830744443e-03       1.456802684685e+00 
       3.313278603720e-03       1.786503854038e+00 
       4.171170630578e-03       2.169896191925e+00 
       5.251192703764e-03       2.599430630710e+00 
       6.610859936996e-03       3.055668703879e+00 
       8.322579568497e-03       3.505725598647e+00 
       1.047750691046e-02       3.905490494104e+00 
       1.319039970183e-02       4.200915293477e+00 
       1.660572937633e-02       4.325063217955e+00 
       2.090537453514e-02       4.210202760010e+00 
       2.631818545635e-02       3.825150160812e+00 
       3.311571692125e-02       3.229063914660e+00 
       4.113809243311e-02       2.627737260233e+00 
       4.792590854610e-02       2.280793486105e+00 
       5.284436902701e-02       2.110088979321e+00 
       5.689644391095e-02       2.003532805447e+00 
       6.051252627066e-02       1.923057130651e+00 
       6.388413457411e-02       1.852733517968e+00 
       6.711249296401e-02       1.784563400359e+00 
       7.025823437965e-02       1.714276868467e+00 
       7.336115587705e-02       1.639815113906e+00 
       7.644928796912e-02       1.560662961561e+00 
       7.954353299775e-02       1.477457495090e+00 
       8.266024078725e-02       1.391700571452e+00 
       8.581273398637e-02       1.305461523175e+00 
       8.901225918437e-02       1.221129371155e+00 
       9.226860540985e-02       1.141079918190e+00 
       9.559052048996e-02       1.067454197704e+00 
       9.898599946599e-02       1.001892723052e+00 
       1.024624891378e-01       9.453803156102e-01 
       1.060270359164e-01       8.981497016464e-01 
       1.096863943056e-01       8.596131433336e-01 
       1.134471073830e-01       8.284075308024e-01 
       1.173155669539e-01       8.024663866003e-01 
       1.212980586983e-01       7.792277042284e-01 
       1.254007961065e-01       7.559183318723e-01 
       1.296299459934e-01       7.299830203365e-01 
       1.339916477160e-01       6.995910492405e-01 
       1.384920277736e-01       6.640769072303e-01 
       1.431372111762e-01       6.241458894799e-01 
       1.479333307714e-01       5.817632989210e-01 
       1.528865355934e-01       5.396913279625e-01 
       1.580029992204e-01       5.008142779953e-01 
       1.632889290723e-01       4.673980858516e-01 
       1.687505775527e-01       4.405340663678e-01 
       1.743942559171e-01       4.198648487613e-01 
       1.802263517371e-01       4.036602504741e-01 
       1.862533508214e-01       3.893613208407e-01 
       1.924818644494e-01       3.741358905700e-01 
       1.989186627765e-01       3.558028552953e-01 
       2.055707152847e-01       3.340014155723e-01 
       2.124452391818e-01       3.102672677352e-01 
       2.195497567139e-01       2.871222947407e-01 
       2.268921624510e-01       2.668082157422e-01 
       2.344808017550e-01       2.504832711230e-01 
       2.423245618548e-01       2.378338454852e-01 
       2.504329772620e-01       2.271121643066e-01 
       2.588163516754e-01       2.161189286746e-01 
       2.674858990930e-01       2.035474414352e-01 
       2.764539076010e-01       1.895977209464e-01 
       2.857339303080e-01       1.757566783731e-01 
       2.953410092148e-01       1.636995069444e-01 
       3.052919395542e-01       1.539064023297e-01 
       3.156055844677e-01       1.455305377402e-01 
       3.263032530092e-01       1.372501502182e-01 
       3.374091587054e-01       1.283019568314e-01 
       3.489509817175e-01       1.191710448147e-01 
       3.609605657343e-01       1.108070661093e-01 
       3.734747921333e-01       1.036450315073e-01 
       3.865366902904e-01       9.714117804286e-02 
       4.001968667448e-01       9.061542895667e-02 
       4.145153713076e-01       8.403704421131e-02 
       4.295641718077e-01       7.789123963727e-02 
       4.454304922144e-01       7.234158804504e-02 
       4.622214006969e-01       6.709388279393e-02 
       4.800702491654e-01       6.189182816119e-02 
       4.991459272112e-01       5.692626100216e-02 
       5.196665217302e-01       5.231621016203e-02 
       5.419201087032e-01       4.783256407244e-02 
       5.662975451962e-01       4.348678772941e-02 
       5.933463737275e-01       3.933105448974e-02 
       6.238638458458e-01       3.525343397917e-02 
       6.590669257916e-01       3.126289526972e-02 
       7.009246080454e-01       2.728726742701e-02 
       7.528593308799e-01       2.327838301445e-02 
       8.213469537518e-01       1.914827441965e-02 
       9.196980813302e-01       1.481701242053e-02 
       1.075112183810e+00       1.035091100110e-02 
       1.322697471132e+00       6.379437187561e-03 
       1.662328205042e+00       3.705642855909e-03 
       2.092692408506e+00       2.124514057836e-03 
       2.634543445090e+00       1.207939862413e-03 
       3.316693691389e+00       6.816845618081e-04 
       4.175469971226e+00       3.820986005388e-04 
       5.256605252960e+00       2.128509714513e-04 
       6.617673932723e+00       1.178996153816e-04 
       8.331157880872e+00       6.496505096689e-05 
       1.048830636590e+01       3.562365635843e-05 
       1.320399541071e+01       1.944522187007e-05 
       1.662284535976e+01       1.056721168536e-05 
       2.092692243973e+01       5.717176962081e-06 
       2.634543445002e+01       3.078192365032e-06 
       3.316693691389e+01       1.647631481322e-06 
       4.175469971226e+01       8.747959709519e-07 
       5.256605252960e+01       4.586148300370e-07 
       6.617673932723e+01       2.352507804009e-07 
