# Matter power spectrum P(k) at redshift z=0
# for k=1.04775e-05 to 66.1767 h/Mpc,
# number of wavenumbers equal to 130
#    1:k (h/Mpc)              2:P (Mpc/h)^3        
       1.047750691046e-05       5.020964811305e+01 
       1.319039970183e-05       6.270562594777e+01 
       1.660572937635e-05       7.831147247912e+01 
       2.090537469327e-05       9.780108069294e+01 
       2.631830744443e-05       1.221408203809e+02 
       3.313278603720e-05       1.525374501932e+02 
       4.171170630578e-05       1.904975994010e+02 
       5.251192703764e-05       2.379022224249e+02 
       6.610859936996e-05       2.970989227881e+02 
       8.322579568497e-05       3.710167318946e+02 
       1.047750691046e-04       4.633080766742e+02 
       1.319039970183e-04       5.785234129344e+02 
       1.660572937635e-04       7.223242666092e+02 
       2.090537469327e-04       9.017396271824e+02 
       2.631830744443e-04       1.125468123750e+03 
       3.313278603720e-04       1.404223053681e+03 
       4.171170630578e-04       1.751108028790e+03 
       5.251192703764e-04       2.181998448133e+03 
       6.610859936996e-04       2.715889983592e+03 
       8.322579568497e-04       3.375152337134e+03 
       1.047750691046e-03       4.185552174306e+03 
       1.319039970183e-03       5.175742738487e+03 
       1.660572937635e-03       6.376123051780e+03 
       2.090537469327e-03       7.815671905466e+03 
       2.631830744443e-03       9.517783069112e+03 
       3.313278603720e-03       1.149357460340e+04 
       4.171170630578e-03       1.373266009107e+04 
       5.251192703764e-03       1.619063614560e+04 
       6.610859936996e-03       1.877460422965e+04 
       8.322579568497e-03       2.132607231714e+04 
       1.047750691046e-02       2.360548423257e+04 
       1.319039970183e-02       2.528218800581e+04 
       1.660572937633e-02       2.595026256873e+04 
       2.090537453514e-02       2.520933531383e+04 
       2.631818545635e-02       2.287034094201e+04 
       3.311571692125e-02       1.928625566365e+04 
       4.113809243311e-02       1.568422953395e+04 
       4.792590854610e-02       1.361062932914e+04 
       5.284436902701e-02       1.259127369839e+04 
       5.689644391095e-02       1.195556186575e+04 
       6.051252627066e-02       1.147549347035e+04 
       6.388413457411e-02       1.105590418309e+04 
       6.711249296401e-02       1.064898900375e+04 
       7.025823437965e-02       1.022928938921e+04 
       7.336115587705e-02       9.784522645511e+03 
       7.644928796912e-02       9.311664383834e+03 
       7.954353299775e-02       8.814540124120e+03 
       8.266024078725e-02       8.302114228195e+03 
       8.581273398637e-02       7.786941488603e+03 
       8.901225918437e-02       7.283177765876e+03 
       9.226860540985e-02       6.805172338585e+03 
       9.559052048996e-02       6.365619115284e+03 
       9.898599946599e-02       5.974388274403e+03 
       1.024624891378e-01       5.637320976816e+03 
       1.060270359164e-01       5.355770687591e+03 
       1.096863943056e-01       5.126241737683e+03 
       1.134471073830e-01       4.940475545945e+03 
       1.173155669539e-01       4.786163611168e+03 
       1.212980586983e-01       4.647935257360e+03 
       1.254007961065e-01       4.509144243091e+03 
       1.296299459934e-01       4.354557068052e+03 
       1.339916477160e-01       4.173212553637e+03 
       1.384920277736e-01       3.961160143175e+03 
       1.431372111762e-01       3.722688519480e+03 
       1.479333307714e-01       3.469553411947e+03 
       1.528865355934e-01       3.218346789653e+03 
       1.580029992204e-01       2.986294758598e+03 
       1.632889290723e-01       2.786972269300e+03 
       1.687505775527e-01       2.626832858285e+03 
       1.743942559171e-01       2.503757968424e+03 
       1.802263517371e-01       2.407342752447e+03 
       1.862533508214e-01       2.322250817927e+03 
       1.924818644494e-01       2.231550953206e+03 
       1.989186627765e-01       2.122190201969e+03 
       2.055707152847e-01       1.992030198543e+03 
       2.124452391818e-01       1.850325653328e+03 
       2.195497567139e-01       1.712183309513e+03 
       2.268921624510e-01       1.590986819174e+03 
       2.344808017550e-01       1.493671854072e+03 
       2.423245618548e-01       1.418312280405e+03 
       2.504329772620e-01       1.354465375267e+03 
       2.588163516754e-01       1.288933651053e+03 
       2.674858990930e-01       1.213938710542e+03 
       2.764539076010e-01       1.130692872189e+03 
       2.857339303080e-01       1.048103779762e+03 
       2.953410092148e-01       9.761830841291e+02 
       3.052919395542e-01       9.178103369884e+02 
       3.156055844677e-01       8.678965944809e+02 
       3.263032530092e-01       8.185245859562e+02 
       3.374091587054e-01       7.651461298989e+02 
       3.489509817175e-01       7.106721362675e+02 
       3.609605657343e-01       6.607873860207e+02 
       3.734747921333e-01       6.180879606488e+02 
       3.865366902904e-01       5.793110249440e+02 
       4.001968667448e-01       5.403917923075e+02 
       4.145153713076e-01       5.011532312957e+02 
       4.295641718077e-01       4.645005504688e+02 
       4.454304922144e-01       4.314106529203e+02 
       4.622214006969e-01       4.001143318098e+02 
       4.800702491654e-01       3.690895471992e+02 
       4.991459272112e-01       3.394763109523e+02 
       5.196665217302e-01       3.119861373384e+02 
       5.419201087032e-01       2.852464288594e+02 
       5.662975451962e-01       2.593314362508e+02 
       5.933463737275e-01       2.345484791847e+02 
       6.238638458458e-01       2.102304992518e+02 
       6.590669257916e-01       1.864333679709e+02 
       7.009246080454e-01       1.627255387355e+02 
       7.528593308799e-01       1.388187972837e+02 
       8.213469537518e-01       1.141878576163e+02 
       9.196980813302e-01       8.835963293202e+01 
       1.075112183810e+00       6.172619749435e+01 
       1.322697471132e+00       3.804272340691e+01 
       1.662328205042e+00       2.209803139615e+01 
       2.092692408506e+00       1.266917150435e+01 
       2.634543445090e+00       7.203353009086e+00 
       3.316693691389e+00       4.065162141604e+00 
       4.175469971226e+00       2.278623651969e+00 
       5.256605252960e+00       1.269346517369e+00 
       6.617673932723e+00       7.031334348831e-01 
       8.331157880872e+00       3.874696932955e-01 
       1.048830636590e+01       2.125031444965e-01 
       1.320399541071e+01       1.160282323106e-01 
       1.662284535976e+01       6.309056663937e-02 
       2.092692243973e+01       3.417149516687e-02 
       2.634543445002e+01       1.843823568938e-02 
       3.316693691389e+01       9.911544479520e-03 
       4.175469971226e+01       5.307369247836e-03 
       5.256605252960e+01       2.829796163355e-03 
       6.617673932723e+01       1.501130464448e-03 
