# Matter power spectrum P(k) at redshift z=99
# for k=1.04775e-05 to 66.1767 h/Mpc,
# number of wavenumbers equal to 130
#    1:k (h/Mpc)              2:P (Mpc/h)^3        
       1.047750691046e-05       7.261927680895e-03 
       1.319039970183e-05       9.069258201890e-03 
       1.660572937635e-05       1.132639106730e-02 
       2.090537469327e-05       1.414527123406e-02 
       2.631830744443e-05       1.766569584066e-02 
       3.313278603720e-05       2.206225515953e-02 
       4.171170630578e-05       2.755297766289e-02 
       5.251192703764e-05       3.441013522963e-02 
       6.610859936996e-05       4.297372172797e-02 
       8.322579568497e-05       5.366826852969e-02 
       1.047750691046e-04       6.702379872805e-02 
       1.319039970183e-04       8.370193441324e-02 
       1.660572937635e-04       1.045283355389e-01 
       2.090537469327e-04       1.305329134110e-01 
       2.631830744443e-04       1.629994506613e-01 
       3.313278603720e-04       2.035264004610e-01 
       4.171170630578e-04       2.541004744254e-01 
       5.251192703764e-04       3.171839528571e-01 
       6.610859936996e-04       3.958147256528e-01 
       8.322579568497e-04       4.937136006287e-01 
       1.047750691046e-03       6.153841636056e-01 
       1.319039970183e-03       7.661720592669e-01 
       1.660572937635e-03       9.522588016394e-01 
       2.090537469327e-03       1.180312991693e+00 
       2.631830744443e-03       1.456802684668e+00 
       3.313278603720e-03       1.786503854003e+00 
       4.171170630578e-03       2.169896195577e+00 
       5.251192703764e-03       2.599430630528e+00 
       6.610859936996e-03       3.055668632679e+00 
       8.322579568497e-03       3.505725132807e+00 
       1.047750691046e-02       3.905490559070e+00 
       1.319039970183e-02       4.200915348445e+00 
       1.660572937633e-02       4.325063877416e+00 
       2.090537453514e-02       4.210202706734e+00 
       2.631818545635e-02       3.825147065222e+00 
       3.311571692125e-02       3.229059404727e+00 
       4.113809243311e-02       2.627739751673e+00 
       4.792590854610e-02       2.280796251580e+00 
       5.284436902701e-02       2.110082860023e+00 
       5.689644391095e-02       2.003539733689e+00 
       6.051252627066e-02       1.923057226212e+00 
       6.388413457411e-02       1.852738065759e+00 
       6.711249296401e-02       1.784569540116e+00 
       7.025823437965e-02       1.714274946801e+00 
       7.336115587705e-02       1.639812670357e+00 
       7.644928796912e-02       1.560660983235e+00 
       7.954353299775e-02       1.477453121845e+00 
       8.266024078725e-02       1.391696682969e+00 
       8.581273398637e-02       1.305466219129e+00 
       8.901225918437e-02       1.221126308376e+00 
       9.226860540985e-02       1.141077714383e+00 
       9.559052048996e-02       1.067450365448e+00 
       9.898599946599e-02       1.001890906184e+00 
       1.024624891378e-01       9.453806078796e-01 
       1.060270359164e-01       8.981501225048e-01 
       1.096863943056e-01       8.596173032613e-01 
       1.134471073830e-01       8.284050122847e-01 
       1.173155669539e-01       8.024693142709e-01 
       1.212980586983e-01       7.792292720659e-01 
       1.254007961065e-01       7.559174993277e-01 
       1.296299459934e-01       7.299822418182e-01 
       1.339916477160e-01       6.995939212927e-01 
       1.384920277736e-01       6.640802066870e-01 
       1.431372111762e-01       6.241466658719e-01 
       1.479333307714e-01       5.817656196684e-01 
       1.528865355934e-01       5.396896764690e-01 
       1.580029992204e-01       5.008127900069e-01 
       1.632889290723e-01       4.673983268366e-01 
       1.687505775527e-01       4.405342650037e-01 
       1.743942559171e-01       4.198653564501e-01 
       1.802263517371e-01       4.036599496864e-01 
       1.862533508214e-01       3.893625668894e-01 
       1.924818644494e-01       3.741396598186e-01 
       1.989186627765e-01       3.558067397761e-01 
       2.055707152847e-01       3.340019975129e-01 
       2.124452391818e-01       3.102656468050e-01 
       2.195497567139e-01       2.871224699430e-01 
       2.268921624510e-01       2.668083388511e-01 
       2.344808017550e-01       2.504828329572e-01 
       2.423245618548e-01       2.378330887291e-01 
       2.504329772620e-01       2.271120057987e-01 
       2.588163516754e-01       2.161190556539e-01 
       2.674858990930e-01       2.035473024842e-01 
       2.764539076010e-01       1.895970088366e-01 
       2.857339303080e-01       1.757567622534e-01 
       2.953410092148e-01       1.636987668087e-01 
       3.052919395542e-01       1.539057683592e-01 
       3.156055844677e-01       1.455305903931e-01 
       3.263032530092e-01       1.372501215879e-01 
       3.374091587054e-01       1.283017049765e-01 
       3.489509817175e-01       1.191710948863e-01 
       3.609605657343e-01       1.108070307287e-01 
       3.734747921333e-01       1.036444946846e-01 
       3.865366902904e-01       9.714087090633e-02 
       4.001968667448e-01       9.061525778175e-02 
       4.145153713076e-01       8.403667374865e-02 
       4.295641718077e-01       7.789100581416e-02 
       4.454304922144e-01       7.234148389741e-02 
       4.622214006969e-01       6.709338616713e-02 
       4.800702491654e-01       6.189145482763e-02 
       4.991459272112e-01       5.692602558271e-02 
       5.196665217302e-01       5.231564489054e-02 
       5.419201087032e-01       4.783233591428e-02 
       5.662975451962e-01       4.348649250645e-02 
       5.933463737275e-01       3.933075338049e-02 
       6.238638458458e-01       3.525304142468e-02 
       6.590669257916e-01       3.126252721338e-02 
       7.009246080454e-01       2.728702655204e-02 
       7.528593308799e-01       2.327808522672e-02 
       8.213469537518e-01       1.914786154370e-02 
       9.196980813302e-01       1.481665792207e-02 
       1.075112183810e+00       1.035051938542e-02 
       1.322697471132e+00       6.379081512907e-03 
       1.662328205042e+00       3.705278993656e-03 
       2.092692408506e+00       2.124141283898e-03 
       2.634543445090e+00       1.207565505792e-03 
       3.316693691389e+00       6.813171558771e-04 
       4.175469971226e+00       3.817356694149e-04 
       5.256605252960e+00       2.124928240636e-04 
       6.617673932723e+00       1.175482555481e-04 
       8.331157880872e+00       6.461969004188e-05 
       1.048830636590e+01       3.528350839595e-05 
       1.320399541071e+01       1.910883497409e-05 
       1.662284535976e+01       1.023461259289e-05 
       2.092692243973e+01       5.388516761182e-06 
       2.634543445002e+01       2.756399777181e-06 
       3.316693691389e+01       1.339220008926e-06 
       4.175469971226e+01       5.913609892203e-07 
       5.256605252960e+01       2.170455339445e-07 
       6.617673932723e+01       5.383416830672e-08 
