# Matter power spectrum P(k) at redshift z=0
# for k=1.04775e-05 to 66.1767 h/Mpc,
# number of wavenumbers equal to 130
#    1:k (h/Mpc)              2:P (Mpc/h)^3        
       1.047750691046e-05       5.020964811312e+01 
       1.319039970183e-05       6.270562594776e+01 
       1.660572937635e-05       7.831147247911e+01 
       2.090537469327e-05       9.780108069295e+01 
       2.631830744443e-05       1.221408203810e+02 
       3.313278603720e-05       1.525374501932e+02 
       4.171170630578e-05       1.904975994010e+02 
       5.251192703764e-05       2.379022224249e+02 
       6.610859936996e-05       2.970989227881e+02 
       8.322579568497e-05       3.710167318946e+02 
       1.047750691046e-04       4.633080766742e+02 
       1.319039970183e-04       5.785234129342e+02 
       1.660572937635e-04       7.223242666092e+02 
       2.090537469327e-04       9.017396271824e+02 
       2.631830744443e-04       1.125468123750e+03 
       3.313278603720e-04       1.404223053681e+03 
       4.171170630578e-04       1.751108028790e+03 
       5.251192703764e-04       2.181998448133e+03 
       6.610859936996e-04       2.715889983592e+03 
       8.322579568497e-04       3.375152337134e+03 
       1.047750691046e-03       4.185552174308e+03 
       1.319039970183e-03       5.175742739813e+03 
       1.660572937635e-03       6.376123051778e+03 
       2.090537469327e-03       7.815671903838e+03 
       2.631830744443e-03       9.517783069112e+03 
       3.313278603720e-03       1.149357460346e+04 
       4.171170630578e-03       1.373266009677e+04 
       5.251192703764e-03       1.619063614545e+04 
       6.610859936996e-03       1.877460417185e+04 
       8.322579568497e-03       2.132607231948e+04 
       1.047750691046e-02       2.360548569642e+04 
       1.319039970183e-02       2.528218687692e+04 
       1.660572937633e-02       2.595028003319e+04 
       2.090537453514e-02       2.520935424908e+04 
       2.631818545635e-02       2.287034648098e+04 
       3.311571692125e-02       1.928628292788e+04 
       4.113809243311e-02       1.568427270594e+04 
       4.792590854610e-02       1.361059629347e+04 
       5.284436902701e-02       1.259129538802e+04 
       5.689644391095e-02       1.195558429154e+04 
       6.051252627066e-02       1.147547282121e+04 
       6.388413457411e-02       1.105589625213e+04 
       6.711249296401e-02       1.064898781929e+04 
       7.025823437965e-02       1.022927562305e+04 
       7.336115587705e-02       9.784507006068e+03 
       7.644928796912e-02       9.311655254043e+03 
       7.954353299775e-02       8.814538307496e+03 
       8.266024078725e-02       8.302119745676e+03 
       8.581273398637e-02       7.786944744633e+03 
       8.901225918437e-02       7.283132930810e+03 
       9.226860540985e-02       6.805152066479e+03 
       9.559052048996e-02       6.365624021499e+03 
       9.898599946599e-02       5.974356683605e+03 
       1.024624891378e-01       5.637347029069e+03 
       1.060270359164e-01       5.355782189443e+03 
       1.096863943056e-01       5.126217521668e+03 
       1.134471073830e-01       4.940471734713e+03 
       1.173155669539e-01       4.786157843803e+03 
       1.212980586983e-01       4.647935293223e+03 
       1.254007961065e-01       4.509149077432e+03 
       1.296299459934e-01       4.354552569975e+03 
       1.339916477160e-01       4.173230186728e+03 
       1.384920277736e-01       3.961173766163e+03 
       1.431372111762e-01       3.722691449402e+03 
       1.479333307714e-01       3.469557690660e+03 
       1.528865355934e-01       3.218335326783e+03 
       1.580029992204e-01       2.986291021442e+03 
       1.632889290723e-01       2.786965853011e+03 
       1.687505775527e-01       2.626827367190e+03 
       1.743942559171e-01       2.503756598987e+03 
       1.802263517371e-01       2.407347095571e+03 
       1.862533508214e-01       2.322251646344e+03 
       1.924818644494e-01       2.231553807517e+03 
       1.989186627765e-01       2.122183816574e+03 
       2.055707152847e-01       1.992027968548e+03 
       2.124452391818e-01       1.850323699043e+03 
       2.195497567139e-01       1.712182174640e+03 
       2.268921624510e-01       1.590993790342e+03 
       2.344808017550e-01       1.493669672403e+03 
       2.423245618548e-01       1.418308751834e+03 
       2.504329772620e-01       1.354464939088e+03 
       2.588163516754e-01       1.288936622746e+03 
       2.674858990930e-01       1.213937098568e+03 
       2.764539076010e-01       1.130693330312e+03 
       2.857339303080e-01       1.048096229803e+03 
       2.953410092148e-01       9.761831290269e+02 
       3.052919395542e-01       9.178105149794e+02 
       3.156055844677e-01       8.678981434483e+02 
       3.263032530092e-01       8.185256068701e+02 
       3.374091587054e-01       7.651464430354e+02 
       3.489509817175e-01       7.106694819987e+02 
       3.609605657343e-01       6.607850284479e+02 
       3.734747921333e-01       6.180828219336e+02 
       3.865366902904e-01       5.793110527172e+02 
       4.001968667448e-01       5.403906249869e+02 
       4.145153713076e-01       5.011500766317e+02 
       4.295641718077e-01       4.644983599939e+02 
       4.454304922144e-01       4.314080827740e+02 
       4.622214006969e-01       4.001128596319e+02 
       4.800702491654e-01       3.690886967763e+02 
       4.991459272112e-01       3.394755347712e+02 
       5.196665217302e-01       3.119846073651e+02 
       5.419201087032e-01       2.852460352041e+02 
       5.662975451962e-01       2.593301739613e+02 
       5.933463737275e-01       2.345477308480e+02 
       6.238638458458e-01       2.102293592842e+02 
       6.590669257916e-01       1.864320583912e+02 
       7.009246080454e-01       1.627252559608e+02 
       7.528593308799e-01       1.388179058255e+02 
       8.213469537518e-01       1.141876606538e+02 
       9.196980813302e-01       8.835881807101e+01 
       1.075112183810e+00       6.172567165898e+01 
       1.322697471132e+00       3.804206405612e+01 
       1.662328205042e+00       2.209712472089e+01 
       2.092692408506e+00       1.266833774685e+01 
       2.634543445090e+00       7.202483400249e+00 
       3.316693691389e+00       4.064197869311e+00 
       4.175469971226e+00       2.277663860741e+00 
       5.256605252960e+00       1.268375112275e+00 
       6.617673932723e+00       7.021410504832e-01 
       8.331157880872e+00       3.864705252632e-01 
       1.048830636590e+01       2.115000522342e-01 
       1.320399541071e+01       1.150251152982e-01 
       1.662284535976e+01       6.209471768386e-02 
       2.092692243973e+01       3.318970396043e-02 
       2.634543445002e+01       1.748122755773e-02 
       3.316693691389e+01       8.994181158071e-03 
       4.175469971226e+01       4.449268766528e-03 
       5.256605252960e+01       2.056348721161e-03 
       6.617673932723e+01       8.414777950491e-04 
