# Matter power spectrum P(k) at redshift z=99
# for k=1.04775e-05 to 67.6233 h/Mpc,
# number of wavenumbers equal to 246
#    1:k (h/Mpc)              2:P (Mpc/h)^3        
       1.047750691046e-05       7.261927682464e-03 
       1.131335172503e-05       7.820331654158e-03 
       1.221587619537e-05       8.421675997321e-03 
       1.319039970183e-05       9.069258203855e-03 
       1.424266597921e-05       9.766638414289e-03 
       1.537887696968e-05       1.051764071033e-02 
       1.660572937635e-05       1.132639106974e-02 
       1.793045413292e-05       1.219733232984e-02 
       1.936085902198e-05       1.313524226069e-02 
       2.090537469327e-05       1.414527123711e-02 
       2.257310435294e-05       1.523296274159e-02 
       2.437387741694e-05       1.640429446651e-02 
       2.631830744443e-05       1.766569584455e-02 
       2.841785469300e-05       1.902408737417e-02 
       3.068489366414e-05       2.048692973226e-02 
       3.313278603720e-05       2.206225516427e-02 
       3.577595942169e-05       2.375870707957e-02 
       3.862999239199e-05       2.558560730767e-02 
       4.171170630578e-05       2.755297766882e-02 
       4.503926444729e-05       2.967161931140e-02 
       4.863227907969e-05       3.195316454939e-02 
       5.251192703764e-05       3.441013523707e-02 
       5.670107454120e-05       3.705601727270e-02 
       6.122441196689e-05       3.990533418756e-02 
       6.610859936996e-05       4.297372173724e-02 
       7.138242361596e-05       4.627802147639e-02 
       7.707696804727e-05       4.983636200563e-02 
       8.322579568497e-05       5.366826854125e-02 
       8.986514704559e-05       5.779476401986e-02 
       9.703415373875e-05       6.223848251910e-02 
       1.047750691046e-04       6.702379874251e-02 
       1.131335172503e-04       7.217695162670e-02 
       1.221587619537e-04       7.772619083602e-02 
       1.319039970183e-04       8.370193443140e-02 
       1.424266597921e-04       9.013692519105e-02 
       1.537887696968e-04       9.706641255032e-02 
       1.660572937635e-04       1.045283355613e-01 
       1.793045413292e-04       1.125635350512e-01 
       1.936085902198e-04       1.212159616523e-01 
       2.090537469327e-04       1.305329134388e-01 
       2.257310435294e-04       1.405652848017e-01 
       2.437387741694e-04       1.513678304480e-01 
       2.631830744443e-04       1.629994506957e-01 
       2.841785469300e-04       1.755234923472e-01 
       3.068489366414e-04       1.890080672832e-01 
       3.313278603720e-04       2.035264005037e-01 
       3.577595942169e-04       2.191571806481e-01 
       3.862999239199e-04       2.359849440603e-01 
       4.171170630578e-04       2.541004744778e-01 
       4.503926444729e-04       2.736012083759e-01 
       4.863227907969e-04       2.945916794709e-01 
       5.251192703764e-04       3.171839529205e-01 
       5.670107454121e-04       3.414980768323e-01 
       6.122441196689e-04       3.676625417741e-01 
       6.610859936996e-04       3.958147257284e-01 
       7.138242361596e-04       4.261013290165e-01 
       7.707696804727e-04       4.586787798198e-01 
       8.322579568497e-04       4.937136007174e-01 
       8.986514704559e-04       5.313826807957e-01 
       9.703415373875e-04       5.718734979169e-01 
       1.047750691046e-03       6.153841636990e-01 
       1.131335172503e-03       6.621233247435e-01 
       1.221587619537e-03       7.123098228903e-01 
       1.319039970183e-03       7.661720593339e-01 
       1.424266597921e-03       8.239546307253e-01 
       1.537887696968e-03       8.859011183505e-01 
       1.660572937635e-03       9.522588016793e-01 
       1.793045413292e-03       1.023280100895e+00 
       1.936085902198e-03       1.099216305661e+00 
       2.090537469327e-03       1.180312991510e+00 
       2.257310435294e-03       1.266804116835e+00 
       2.437387741694e-03       1.358904854247e+00 
       2.631830744443e-03       1.456802683758e+00 
       2.841785469300e-03       1.560646890740e+00 
       3.068489366414e-03       1.670536062127e+00 
       3.313278603720e-03       1.786503850930e+00 
       3.577595942169e-03       1.908502928244e+00 
       3.862999239199e-03       2.036387726268e+00 
       4.171170630578e-03       2.169896217517e+00 
       4.503926444729e-03       2.308631867818e+00 
       4.863227907969e-03       2.452047274043e+00 
       5.251192703764e-03       2.599430602912e+00 
       5.670107454120e-03       2.749896894951e+00 
       6.122441196689e-03       2.902386459389e+00 
       6.610859936996e-03       3.055668619689e+00 
       7.138242361596e-03       3.208356348469e+00 
       7.707696804727e-03       3.358923732496e+00 
       8.322579568496e-03       3.505724863211e+00 
       8.986514704559e-03       3.647009406761e+00 
       9.703415373875e-03       3.780922837110e+00 
       1.047750691046e-02       3.905491134945e+00 
       1.131335172503e-02       4.018587193875e+00 
       1.221587619537e-02       4.117899284393e+00 
       1.319039970183e-02       4.200914458195e+00 
       1.424266597920e-02       4.264940199378e+00 
       1.537887696964e-02       4.307216857295e+00 
       1.660572937560e-02       4.325059056494e+00 
       1.793045412207e-02       4.316050518898e+00 
       1.936085889642e-02       4.278220862694e+00 
       2.090537351881e-02       4.210187903741e+00 
       2.257309534705e-02       4.111404374906e+00 
       2.437382002240e-02       3.982400959241e+00 
       2.631799943729e-02       3.825141729170e+00 
       2.841644544598e-02       3.643242395378e+00 
       3.067933354524e-02       3.442145666513e+00 
       3.311368469821e-02       3.229180743675e+00 
       3.571840442514e-02       3.013436015659e+00 
       3.847720347390e-02       2.805191906215e+00 
       4.135335537314e-02       2.614303536474e+00 
       4.429361666563e-02       2.448012706906e+00 
       4.724366437916e-02       2.309093405228e+00 
       5.016480834039e-02       2.195943608240e+00 
       5.303989618930e-02       2.104170137257e+00 
       5.586870668205e-02       2.028239325587e+00 
       5.866042679206e-02       1.962903460494e+00 
       6.142798931504e-02       1.903508994490e+00 
       6.418496438662e-02       1.846177882375e+00 
       6.694418832236e-02       1.787868740358e+00 
       6.971731104453e-02       1.726357321066e+00 
       7.251476154108e-02       1.660261858326e+00 
       7.534587669814e-02       1.589044237555e+00 
       7.821907664495e-02       1.512977880071e+00 
       8.114203771084e-02       1.433072218830e+00 
       8.412184533139e-02       1.350956136255e+00 
       8.716512277352e-02       1.268702328444e+00 
       9.027813693913e-02       1.188580450360e+00 
       9.346688429613e-02       1.112851873510e+00 
       9.673716026122e-02       1.043485131044e+00 
       1.000946150608e-01       9.819738479372e-01 
       1.035447986307e-01       9.291587434268e-01 
       1.070931966524e-01       8.851337628765e-01 
       1.107452594180e-01       8.491907311895e-01 
       1.145064248899e-01       8.198673899822e-01 
       1.183821370656e-01       7.950278446174e-01 
       1.223778605591e-01       7.720848121757e-01 
       1.264990921707e-01       7.483207484801e-01 
       1.307513701078e-01       7.213580269372e-01 
       1.351402814485e-01       6.896374078006e-01 
       1.396714683894e-01       6.528382594183e-01 
       1.443506337875e-01       6.120158929833e-01 
       1.491835464900e-01       5.693878103719e-01 
       1.541760469368e-01       5.278162964631e-01 
       1.593340535209e-01       4.900930633358e-01 
       1.646635701934e-01       4.582247588629e-01 
       1.701706958081e-01       4.329488413881e-01 
       1.758616357070e-01       4.135321646278e-01 
       1.817427160581e-01       3.979539306700e-01 
       1.878204014651e-01       3.835878873239e-01 
       1.941013163855e-01       3.676014515825e-01 
       2.005922709060e-01       3.482293396083e-01 
       2.073002914514e-01       3.256260477740e-01 
       2.142326570343e-01       3.017006889683e-01 
       2.213969417044e-01       2.790032470421e-01 
       2.288010639201e-01       2.595425496247e-01 
       2.364533436625e-01       2.441275929684e-01 
       2.443625682390e-01       2.320425772021e-01 
       2.525380678946e-01       2.213024889966e-01 
       2.609898025770e-01       2.098361800343e-01 
       2.697284614969e-01       1.967122898740e-01 
       2.787655775073e-01       1.825095032866e-01 
       2.881136588192e-01       1.688856560515e-01 
       2.977863412019e-01       1.572999409875e-01 
       3.077985646248e-01       1.478431629216e-01 
       3.181667793367e-01       1.394784431056e-01 
       3.289091877084e-01       1.309419773032e-01 
       3.400460298905e-01       1.217788419570e-01 
       3.515999235695e-01       1.126759906999e-01 
       3.635962710278e-01       1.045016784658e-01 
       3.760637505499e-01       9.746855617961e-02 
       3.890349143014e-01       9.092668743193e-02 
       4.025469215929e-01       8.433447469657e-02 
       4.166424455447e-01       7.778309333934e-02 
       4.313708034899e-01       7.172648974320e-02 
       4.467893781976e-01       6.624150326698e-02 
       4.629654198623e-01       6.103949780187e-02 
       4.799783500912e-01       5.592455127490e-02 
       4.979227318246e-01       5.106696766411e-02 
       5.169121269689e-01       4.657910966373e-02 
       5.370841403262e-01       4.228093091505e-02 
       5.586070463286e-01       3.814284665683e-02 
       5.816885093582e-01       3.424471765200e-02 
       6.065870143577e-01       3.052875236308e-02 
       6.336266466978e-01       2.696991836086e-02 
       6.632156057925e-01       2.359115424228e-02 
       6.958678637575e-01       2.036259349492e-02 
       7.322247983784e-01       1.729755745665e-02 
       7.730680193171e-01       1.439408964072e-02 
       8.193049551574e-01       1.167280222774e-02 
       8.718988013754e-01       9.161382081854e-03 
       9.317218028590e-01       6.902266415848e-03 
       9.993660906273e-01       4.943114488722e-03 
       1.075037109879e+00       3.322329704259e-03 
       1.158653485387e+00       2.055877136788e-03 
       1.250099156961e+00       1.132698373074e-03 
       1.349432400897e+00       5.184579255075e-04 
       1.456947456991e+00       1.649611589931e-04 
       1.573135110893e+00       1.617700938847e-05 
       1.698621895119e+00       1.263052670606e-05 
       1.834127512423e+00       9.504508468468e-05 
       1.980444933977e+00       2.086538757274e-04 
       2.138435191130e+00       3.081910438082e-04 
       2.309029198543e+00       3.628867532297e-04 
       2.493232376993e+00       3.598629137512e-04 
       2.692130394536e+00       3.045731771105e-04 
       2.906895533764e+00       2.171003588216e-04 
       3.138793596840e+00       1.244996473128e-04 
       3.389191365541e+00       5.111194185743e-05 
       3.659564656886e+00       1.013120402767e-05 
       3.951507021438e+00       7.502071842409e-08 
       4.266739135513e+00       8.014140823828e-06 
       4.607118942658e+00       1.802810101544e-05 
       4.974652604172e+00       2.006862876289e-05 
       5.371506323193e+00       1.381241687066e-05 
       5.800019112071e+00       5.426253744183e-06 
       6.262716578240e+00       6.293983892419e-07 
       6.762325809881e+00       1.978732653385e-07 
       7.301791449077e+00       1.203675876586e-06 
       7.884293047211e+00       1.249289445871e-06 
       8.513263804891e+00       4.843984214784e-07 
       9.192410806865e+00       2.296579698969e-08 
       9.925736871166e+00       5.133887493464e-08 
       1.071756414128e+01       9.839798512637e-08 
       1.157255956041e+01       3.237594565109e-08 
       1.249576237789e+01       2.687166641740e-13 
       1.349261385000e+01       7.350740899743e-09 
       1.456898931011e+01       3.802729510720e-09 
       1.573123279727e+01       4.479439844052e-12 
       1.698619444729e+01       5.459160320302e-10 
       1.834127086665e+01       1.100839114637e-10 
       1.980444872733e+01       2.899707802726e-11 
       2.138435183937e+01       2.976942204985e-11 
       2.309029197863e+01       5.991748271063e-14 
       2.493232376942e+01       1.009802645184e-12 
       2.692130394533e+01       4.186397080197e-13 
       2.906895533764e+01       4.383373393841e-13 
       3.138793596840e+01       3.166809848817e-14 
       3.389191365541e+01       5.442572585831e-14 
       3.659564656886e+01       6.398554682328e-14 
       3.951507021438e+01       3.320076909094e-14 
       4.266739135513e+01       2.619535654872e-14 
       4.607118942658e+01       1.937976080206e-14 
       4.974652604172e+01       1.362840668920e-14 
       5.371506323193e+01       1.001389299027e-14 
       5.800019112071e+01       7.045293282663e-15 
       6.262716578240e+01       5.028202070487e-15 
       6.762325809881e+01       3.498804881159e-15 
