# Matter power spectrum P(k) at redshift z=99
# for k=1.04775e-05 to 66.1767 h/Mpc,
# number of wavenumbers equal to 130
#    1:k (h/Mpc)              2:P (Mpc/h)^3        
       1.047750691046e-05       7.261927680867e-03 
       1.319039970183e-05       9.069258201855e-03 
       1.660572937635e-05       1.132639106726e-02 
       2.090537469327e-05       1.414527123400e-02 
       2.631830744443e-05       1.766569584059e-02 
       3.313278603720e-05       2.206225515944e-02 
       4.171170630578e-05       2.755297766279e-02 
       5.251192703764e-05       3.441013522950e-02 
       6.610859936996e-05       4.297372172781e-02 
       8.322579568497e-05       5.366826852948e-02 
       1.047750691046e-04       6.702379872779e-02 
       1.319039970183e-04       8.370193441292e-02 
       1.660572937635e-04       1.045283355385e-01 
       2.090537469327e-04       1.305329134105e-01 
       2.631830744443e-04       1.629994506607e-01 
       3.313278603720e-04       2.035264004603e-01 
       4.171170630578e-04       2.541004744245e-01 
       5.251192703764e-04       3.171839528559e-01 
       6.610859936996e-04       3.958147256516e-01 
       8.322579568497e-04       4.937136006276e-01 
       1.047750691046e-03       6.153841636043e-01 
       1.319039970183e-03       7.661720592745e-01 
       1.660572937635e-03       9.522588016469e-01 
       2.090537469327e-03       1.180312991698e+00 
       2.631830744443e-03       1.456802684683e+00 
       3.313278603720e-03       1.786503854033e+00 
       4.171170630578e-03       2.169896196300e+00 
       5.251192703764e-03       2.599430630689e+00 
       6.610859936996e-03       3.055668709180e+00 
       8.322579568497e-03       3.505725598117e+00 
       1.047750691046e-02       3.905490899700e+00 
       1.319039970183e-02       4.200915351040e+00 
       1.660572937633e-02       4.325062067538e+00 
       2.090537453514e-02       4.210200569805e+00 
       2.631818545635e-02       3.825147483961e+00 
       3.311571692125e-02       3.229061522086e+00 
       4.113809243311e-02       2.627720768512e+00 
       4.792590854610e-02       2.280791220921e+00 
       5.284436902701e-02       2.110085627090e+00 
       5.689644391095e-02       2.003538099207e+00 
       6.051252627066e-02       1.923056024271e+00 
       6.388413457411e-02       1.852733426380e+00 
       6.711249296401e-02       1.784563877198e+00 
       7.025823437965e-02       1.714276882650e+00 
       7.336115587705e-02       1.639811889841e+00 
       7.644928796912e-02       1.560661222184e+00 
       7.954353299775e-02       1.477454025223e+00 
       8.266024078725e-02       1.391694889704e+00 
       8.581273398637e-02       1.305464499274e+00 
       8.901225918437e-02       1.221129853896e+00 
       9.226860540985e-02       1.141081906740e+00 
       9.559052048996e-02       1.067453914058e+00 
       9.898599946599e-02       1.001889321495e+00 
       1.024624891378e-01       9.453813516110e-01 
       1.060270359164e-01       8.981505503152e-01 
       1.096863943056e-01       8.596144538238e-01 
       1.134471073830e-01       8.284049380478e-01 
       1.173155669539e-01       8.024664394410e-01 
       1.212980586983e-01       7.792292957537e-01 
       1.254007961065e-01       7.559171857320e-01 
       1.296299459934e-01       7.299821613252e-01 
       1.339916477160e-01       6.995945578338e-01 
       1.384920277736e-01       6.640767985844e-01 
       1.431372111762e-01       6.241470811997e-01 
       1.479333307714e-01       5.817651840764e-01 
       1.528865355934e-01       5.396903157438e-01 
       1.580029992204e-01       5.008141209267e-01 
       1.632889290723e-01       4.673984816356e-01 
       1.687505775527e-01       4.405338242493e-01 
       1.743942559171e-01       4.198662637460e-01 
       1.802263517371e-01       4.036594210615e-01 
       1.862533508214e-01       3.893626524543e-01 
       1.924818644494e-01       3.741378248538e-01 
       1.989186627765e-01       3.558050100427e-01 
       2.055707152847e-01       3.340039620822e-01 
       2.124452391818e-01       3.102658356892e-01 
       2.195497567139e-01       2.871219022972e-01 
       2.268921624510e-01       2.668085578883e-01 
       2.344808017550e-01       2.504834975964e-01 
       2.423245618548e-01       2.378336554820e-01 
       2.504329772620e-01       2.271118035047e-01 
       2.588163516754e-01       2.161193714975e-01 
       2.674858990930e-01       2.035477317191e-01 
       2.764539076010e-01       1.895970793169e-01 
       2.857339303080e-01       1.757568761994e-01 
       2.953410092148e-01       1.636988365872e-01 
       3.052919395542e-01       1.539063720118e-01 
       3.156055844677e-01       1.455308189628e-01 
       3.263032530092e-01       1.372505309260e-01 
       3.374091587054e-01       1.283016635361e-01 
       3.489509817175e-01       1.191711367671e-01 
       3.609605657343e-01       1.108072133815e-01 
       3.734747921333e-01       1.036448083798e-01 
       3.865366902904e-01       9.714118994340e-02 
       4.001968667448e-01       9.061541875925e-02 
       4.145153713076e-01       8.403688531100e-02 
       4.295641718077e-01       7.789121226773e-02 
       4.454304922144e-01       7.234162147758e-02 
       4.622214006969e-01       6.709384033788e-02 
       4.800702491654e-01       6.189174426680e-02 
       4.991459272112e-01       5.692644364595e-02 
       5.196665217302e-01       5.231595553241e-02 
       5.419201087032e-01       4.783243714388e-02 
       5.662975451962e-01       4.348679948492e-02 
       5.933463737275e-01       3.933094437583e-02 
       6.238638458458e-01       3.525337853432e-02 
       6.590669257916e-01       3.126285031216e-02 
       7.009246080454e-01       2.728730513774e-02 
       7.528593308799e-01       2.327837268996e-02 
       8.213469537518e-01       1.914819202189e-02 
       9.196980813302e-01       1.481689945627e-02 
       1.075112183810e+00       1.035085216677e-02 
       1.322697471132e+00       6.379405520535e-03 
       1.662328205042e+00       3.705608709090e-03 
       2.092692408506e+00       2.124474302661e-03 
       2.634543445090e+00       1.207903973385e-03 
       3.316693691389e+00       6.816498444753e-04 
       4.175469971226e+00       3.820640174035e-04 
       5.256605252960e+00       2.128181314356e-04 
       6.617673932723e+00       1.178684505681e-04 
       8.331157880872e+00       6.493678260432e-05 
       1.048830636590e+01       3.559792966737e-05 
       1.320399541071e+01       1.942198790980e-05 
       1.662284535976e+01       1.054699971895e-05 
       2.092692243973e+01       5.699844846561e-06 
       2.634543445002e+01       3.063876312582e-06 
       3.316693691389e+01       1.636390592529e-06 
       4.175469971226e+01       8.666336389626e-07 
       5.256605252960e+01       4.534581332012e-07 
       6.617673932723e+01       2.329351821671e-07 
