# Matter power spectrum P(k) at redshift z=0
# for k=1.04775e-05 to 67.6233 h/Mpc,
# number of wavenumbers equal to 246
#    1:k (h/Mpc)              2:P (Mpc/h)^3        
       1.047750691046e-05       5.020964811313e+01 
       1.131335172503e-05       5.407050701925e+01 
       1.221587619537e-05       5.822819068848e+01 
       1.319039970183e-05       6.270562594797e+01 
       1.424266597921e-05       6.752732240880e+01 
       1.537887696968e-05       7.271977206173e+01 
       1.660572937635e-05       7.831147247912e+01 
       1.793045413292e-05       8.433311821988e+01 
       1.936085902198e-05       9.081778249833e+01 
       2.090537469327e-05       9.780108069306e+01 
       2.257310435294e-05       1.053213197893e+02 
       2.437387741694e-05       1.134197377890e+02 
       2.631830744443e-05       1.221408203809e+02 
       2.841785469300e-05       1.315324642503e+02 
       3.068489366414e-05       1.416462094878e+02 
       3.313278603720e-05       1.525374501932e+02 
       3.577595942169e-05       1.642660688414e+02 
       3.862999239199e-05       1.768963506307e+02 
       4.171170630578e-05       1.904975994008e+02 
       4.503926444729e-05       2.051444491974e+02 
       4.863227907969e-05       2.209171465549e+02 
       5.251192703764e-05       2.379022224248e+02 
       5.670107454120e-05       2.561927927681e+02 
       6.122441196689e-05       2.758890444040e+02 
       6.610859936996e-05       2.970989227882e+02 
       7.138242361596e-05       3.199385560802e+02 
       7.707696804727e-05       3.445329783680e+02 
       8.322579568497e-05       3.710167318946e+02 
       8.986514704559e-05       3.995346444203e+02 
       9.703415373875e-05       4.302425407381e+02 
       1.047750691046e-04       4.633080766742e+02 
       1.131335172503e-04       4.989116271564e+02 
       1.221587619537e-04       5.372471950930e+02 
       1.319039970183e-04       5.785234129345e+02 
       1.424266597921e-04       6.229645936045e+02 
       1.537887696968e-04       6.708118490405e+02 
       1.660572937635e-04       7.223242666092e+02 
       1.793045413292e-04       7.777801560655e+02 
       1.936085902198e-04       8.374783614141e+02 
       2.090537469327e-04       9.017396271824e+02 
       2.257310435294e-04       9.709080268041e+02 
       2.437387741694e-04       1.045352449493e+03 
       2.631830744443e-04       1.125468123750e+03 
       2.841785469300e-04       1.211678180494e+03 
       3.068489366414e-04       1.304435250150e+03 
       3.313278603720e-04       1.404223053681e+03 
       3.577595942169e-04       1.511558014616e+03 
       3.862999239199e-04       1.626990837965e+03 
       4.171170630578e-04       1.751108028790e+03 
       4.503926444729e-04       1.884533382872e+03 
       4.863227907969e-04       2.027929378112e+03 
       5.251192703764e-04       2.181998448133e+03 
       5.670107454121e-04       2.347484102755e+03 
       6.122441196689e-04       2.525171871367e+03 
       6.610859936996e-04       2.715889983593e+03 
       7.138242361596e-04       2.920509688381e+03 
       7.707696804727e-04       3.139945100279e+03 
       8.322579568497e-04       3.375152337582e+03 
       8.986514704559e-04       3.627127831141e+03 
       9.703415373875e-04       3.896905453135e+03 
       1.047750691046e-03       4.185552174298e+03 
       1.131335172503e-03       4.494162430371e+03 
       1.221587619537e-03       4.823850706490e+03 
       1.319039970183e-03       5.175742739449e+03 
       1.424266597921e-03       5.551019596899e+03 
       1.537887696968e-03       5.950788340556e+03 
       1.660572937635e-03       6.376123051777e+03 
       1.793045413292e-03       6.828073901434e+03 
       1.936085902198e-03       7.307625381040e+03 
       2.090537469327e-03       7.815671903986e+03 
       2.257310435294e-03       8.352990375752e+03 
       2.437387741694e-03       8.920211064263e+03 
       2.631830744443e-03       9.517783068984e+03 
       2.841785469300e-03       1.014593704417e+04 
       3.068489366414e-03       1.080464502771e+04 
       3.313278603720e-03       1.149357460307e+04 
       3.577595942169e-03       1.221203621665e+04 
       3.862999239199e-03       1.295892539365e+04 
       4.171170630578e-03       1.373266009087e+04 
       4.503926444729e-03       1.453111835462e+04 
       4.863227907969e-03       1.535154985050e+04 
       5.251192703764e-03       1.619063614113e+04 
       5.670107454120e-03       1.704431257259e+04 
       6.122441196689e-03       1.790755939078e+04 
       6.610859936996e-03       1.877460415684e+04 
       7.138242361596e-03       1.963872429358e+04 
       7.707696804727e-03       2.049215713228e+04 
       8.322579568496e-03       2.132607230426e+04 
       8.986514704559e-03       2.213055187891e+04 
       9.703415373875e-03       2.289445468658e+04 
       1.047750691046e-02       2.360548708630e+04 
       1.131335172503e-02       2.425022848163e+04 
       1.221587619537e-02       2.481423910053e+04 
       1.319039970183e-02       2.528218626645e+04 
       1.424266597920e-02       2.563814390183e+04 
       1.537887696964e-02       2.586607271915e+04 
       1.660572937560e-02       2.595028101077e+04 
       1.793045412207e-02       2.587635418938e+04 
       1.936085889642e-02       2.563219126126e+04 
       2.090537351881e-02       2.520934612044e+04 
       2.257309534705e-02       2.460447555144e+04 
       2.437382002240e-02       2.382089887598e+04 
       2.631799943729e-02       2.287049482122e+04 
       2.841644544598e-02       2.177447803517e+04 
       3.067933354524e-02       2.056555275267e+04 
       3.311368469821e-02       1.928730328003e+04 
       3.571840442514e-02       1.799402524546e+04 
       3.847720347390e-02       1.674680659395e+04 
       4.135335537314e-02       1.560460252356e+04 
       4.429361666563e-02       1.461037817424e+04 
       4.724366437916e-02       1.378050481801e+04 
       5.016480834039e-02       1.310507408743e+04 
       5.303989618930e-02       1.255712347032e+04 
       5.586870668205e-02       1.210427144793e+04 
       5.866042679206e-02       1.171463683935e+04 
       6.142798931504e-02       1.136046197022e+04 
       6.418496438662e-02       1.101855129806e+04 
       6.694418832236e-02       1.067070080815e+04 
       6.971731104453e-02       1.030353765435e+04 
       7.251476154108e-02       9.908988121986e+03 
       7.534587669814e-02       9.483740049684e+03 
       7.821907664495e-02       9.029469728033e+03 
       8.114203771084e-02       8.552315813880e+03 
       8.412184533139e-02       8.061889921374e+03 
       8.716512277352e-02       7.570731551800e+03 
       9.027813693913e-02       7.092491477537e+03 
       9.346688429613e-02       6.640484149196e+03 
       9.673716026122e-02       6.226696889097e+03 
       1.000946150608e-01       5.859918560380e+03 
       1.035447986307e-01       5.545215315175e+03 
       1.070931966524e-01       5.283110764281e+03 
       1.107452594180e-01       5.069370882076e+03 
       1.145064248899e-01       4.895221753270e+03 
       1.183821370656e-01       4.747807149726e+03 
       1.223778605591e-01       4.611695045780e+03 
       1.264990921707e-01       4.470569838259e+03 
       1.307513701078e-01       4.310194323402e+03 
       1.351402814485e-01       4.121345442144e+03 
       1.396714683894e-01       3.901998894618e+03 
       1.443506337875e-01       3.658588072951e+03 
       1.491835464900e-01       3.404437822019e+03 
       1.541760469368e-01       3.156617847727e+03 
       1.593340535209e-01       2.931929711758e+03 
       1.646635701934e-01       2.742313159008e+03 
       1.701706958081e-01       2.592193814127e+03 
       1.758616357070e-01       2.477181035446e+03 
       1.817427160581e-01       2.385124454495e+03 
       1.878204014651e-01       2.300297149970e+03 
       1.941013163855e-01       2.205690787043e+03 
       2.005922709060e-01       2.090743557105e+03 
       2.073002914514e-01       1.956394454239e+03 
       2.142326570343e-01       1.814114765102e+03 
       2.213969417044e-01       1.679215968964e+03 
       2.288010639201e-01       1.563771602869e+03 
       2.364533436625e-01       1.472605116627e+03 
       2.443625682390e-01       1.401429887773e+03 
       2.525380678946e-01       1.338323597333e+03 
       2.609898025770e-01       1.270809958267e+03 
       2.697284614969e-01       1.193288239907e+03 
       2.787655775073e-01       1.109243656502e+03 
       2.881136588192e-01       1.028673890277e+03 
       2.977863412019e-01       9.603801334022e+02 
       3.077985646248e-01       9.049220640238e+02 
       3.181667793367e-01       8.560404729026e+02 
       3.289091877084e-01       8.060763040261e+02 
       3.400460298905e-01       7.522792557290e+02 
       3.515999235695e-01       6.988080695338e+02 
       3.635962710278e-01       6.509467764571e+02 
       3.760637505499e-01       6.100032818687e+02 
       3.890349143014e-01       5.720088154308e+02 
       4.025469215929e-01       5.336575562502e+02 
       4.166424455447e-01       4.955033119209e+02 
       4.313708034899e-01       4.603366085352e+02 
       4.467893781976e-01       4.286434194750e+02 
       4.629654198623e-01       3.986349870575e+02 
       4.799783500912e-01       3.691015065681e+02 
       4.979227318246e-01       3.410955752051e+02 
       5.169121269689e-01       3.153364603320e+02 
       5.370841403262e-01       2.906857784535e+02 
       5.586070463286e-01       2.669526882447e+02 
       5.816885093582e-01       2.446523794362e+02 
       6.065870143577e-01       2.234073218135e+02 
       6.336266466978e-01       2.030472248984e+02 
       6.632156057925e-01       1.837118005370e+02 
       6.958678637575e-01       1.651825777352e+02 
       7.322247983784e-01       1.475194677005e+02 
       7.730680193171e-01       1.306536814452e+02 
       8.193049551574e-01       1.146463765529e+02 
       8.718988013754e-01       9.957296792749e+01 
       9.317218028590e-01       8.558320294116e+01 
       9.993660906273e-01       7.285504968495e+01 
       1.075037109879e+00       6.153046150427e+01 
       1.158653485387e+00       5.166833256497e+01 
       1.250099156961e+00       4.322417466391e+01 
       1.349432400897e+00       3.606806054476e+01 
       1.456947456991e+00       3.004168111882e+01 
       1.573135110893e+00       2.498359833978e+01 
       1.698621895119e+00       2.074639681596e+01 
       1.834127512423e+00       1.720248674690e+01 
       1.980444933977e+00       1.424184916146e+01 
       2.138435191130e+00       1.177139110841e+01 
       2.309029198543e+00       9.712341542461e+00 
       2.493232376993e+00       7.998090924868e+00 
       2.692130394536e+00       6.572441302588e+00 
       2.906895533764e+00       5.388182455657e+00 
       3.138793596840e+00       4.405451309306e+00 
       3.389191365541e+00       3.590924649672e+00 
       3.659564656886e+00       2.916708271036e+00 
       3.951507021438e+00       2.359330519391e+00 
       4.266739135513e+00       1.899301580375e+00 
       4.607118942658e+00       1.520359105618e+00 
       4.974652604172e+00       1.208868634507e+00 
       5.371506323193e+00       9.535327707983e-01 
       5.800019112071e+00       7.449691242803e-01 
       6.262716578240e+00       5.753587104469e-01 
       6.762325809881e+00       4.382077400430e-01 
       7.301791449077e+00       3.281178639022e-01 
       7.884293047211e+00       2.405996449253e-01 
       8.513263804891e+00       1.718848239904e-01 
       9.192410806865e+00       1.188147964794e-01 
       9.925736871166e+00       7.870584397193e-02 
       1.071756414128e+01       4.926312632975e-02 
       1.157255956041e+01       2.849218906544e-02 
       1.249576237789e+01       1.465019960273e-02 
       1.349261385000e+01       6.191268421323e-03 
       1.456898931011e+01       1.746464418601e-03 
       1.573123279727e+01       1.088038458474e-04 
       1.698619444729e+01       2.353742979879e-04 
       1.834127086665e+01       1.259818019054e-03 
       1.980444872733e+01       2.508001818142e-03 
       2.138435183937e+01       3.511289103649e-03 
       2.309029197863e+01       4.009402183983e-03 
       2.493232376942e+01       3.935341234506e-03 
       2.692130394533e+01       3.380206446572e-03 
       2.906895533764e+01       2.536255972253e-03 
       3.138793596840e+01       1.630037829894e-03 
       3.389191365541e+01       8.557334815678e-04 
       3.659564656886e+01       3.277355163073e-04 
       3.951507021438e+01       6.334066986029e-05 
       4.266739135513e+01       1.043261754337e-07 
       4.607118942658e+01       3.800663201895e-05 
       4.974652604172e+01       8.728851502232e-05 
       5.371506323193e+01       1.003421661590e-04 
       5.800019112071e+01       7.563408876764e-05 
       6.262716578240e+01       3.768027443189e-05 
       6.762325809881e+01       1.016119080718e-05 
