# Matter power spectrum P(k) at redshift z=99
# for k=1.04775e-05 to 66.1767 h/Mpc,
# number of wavenumbers equal to 130
#    1:k (h/Mpc)              2:P (Mpc/h)^3        
       1.047750691046e-05       7.261927680862e-03 
       1.319039970183e-05       9.069258201849e-03 
       1.660572937635e-05       1.132639106725e-02 
       2.090537469327e-05       1.414527123399e-02 
       2.631830744443e-05       1.766569584058e-02 
       3.313278603720e-05       2.206225515942e-02 
       4.171170630578e-05       2.755297766277e-02 
       5.251192703764e-05       3.441013522947e-02 
       6.610859936996e-05       4.297372172778e-02 
       8.322579568497e-05       5.366826852944e-02 
       1.047750691046e-04       6.702379872774e-02 
       1.319039970183e-04       8.370193441286e-02 
       1.660572937635e-04       1.045283355384e-01 
       2.090537469327e-04       1.305329134104e-01 
       2.631830744443e-04       1.629994506605e-01 
       3.313278603720e-04       2.035264004601e-01 
       4.171170630578e-04       2.541004744243e-01 
       5.251192703764e-04       3.171839528557e-01 
       6.610859936996e-04       3.958147256513e-01 
       8.322579568497e-04       4.937136006272e-01 
       1.047750691046e-03       6.153841636042e-01 
       1.319039970183e-03       7.661720592239e-01 
       1.660572937635e-03       9.522588016470e-01 
       2.090537469327e-03       1.180312991699e+00 
       2.631830744443e-03       1.456802684686e+00 
       3.313278603720e-03       1.786503854044e+00 
       4.171170630578e-03       2.169896193696e+00 
       5.251192703764e-03       2.599430630720e+00 
       6.610859936996e-03       3.055668702266e+00 
       8.322579568497e-03       3.505725598605e+00 
       1.047750691046e-02       3.905490645462e+00 
       1.319039970183e-02       4.200915432867e+00 
       1.660572937633e-02       4.325063485603e+00 
       2.090537453514e-02       4.210203077293e+00 
       2.631818545635e-02       3.825151498584e+00 
       3.311571692125e-02       3.229068564192e+00 
       4.113809243311e-02       2.627729180877e+00 
       4.792590854610e-02       2.280786961623e+00 
       5.284436902701e-02       2.110085647923e+00 
       5.689644391095e-02       2.003544168251e+00 
       6.051252627066e-02       1.923055958926e+00 
       6.388413457411e-02       1.852734891015e+00 
       6.711249296401e-02       1.784562838943e+00 
       7.025823437965e-02       1.714275587188e+00 
       7.336115587705e-02       1.639812922174e+00 
       7.644928796912e-02       1.560661900378e+00 
       7.954353299775e-02       1.477457833492e+00 
       8.266024078725e-02       1.391698183847e+00 
       8.581273398637e-02       1.305461100628e+00 
       8.901225918437e-02       1.221122522528e+00 
       9.226860540985e-02       1.141079715650e+00 
       9.559052048996e-02       1.067454757980e+00 
       9.898599946599e-02       1.001889776087e+00 
       1.024624891378e-01       9.453819602164e-01 
       1.060270359164e-01       8.981509631844e-01 
       1.096863943056e-01       8.596116880433e-01 
       1.134471073830e-01       8.284044154906e-01 
       1.173155669539e-01       8.024668824877e-01 
       1.212980586983e-01       7.792291654001e-01 
       1.254007961065e-01       7.559177796401e-01 
       1.296299459934e-01       7.299835422354e-01 
       1.339916477160e-01       6.995939075985e-01 
       1.384920277736e-01       6.640781693239e-01 
       1.431372111762e-01       6.241473437224e-01 
       1.479333307714e-01       5.817643633256e-01 
       1.528865355934e-01       5.396935025531e-01 
       1.580029992204e-01       5.008136916113e-01 
       1.632889290723e-01       4.673985496606e-01 
       1.687505775527e-01       4.405341632694e-01 
       1.743942559171e-01       4.198664151172e-01 
       1.802263517371e-01       4.036603647714e-01 
       1.862533508214e-01       3.893597212294e-01 
       1.924818644494e-01       3.741351417439e-01 
       1.989186627765e-01       3.558013330305e-01 
       2.055707152847e-01       3.339990687294e-01 
       2.124452391818e-01       3.102658677643e-01 
       2.195497567139e-01       2.871230726760e-01 
       2.268921624510e-01       2.668094272642e-01 
       2.344808017550e-01       2.504838825201e-01 
       2.423245618548e-01       2.378336512597e-01 
       2.504329772620e-01       2.271118425789e-01 
       2.588163516754e-01       2.161177674994e-01 
       2.674858990930e-01       2.035457314830e-01 
       2.764539076010e-01       1.895977445882e-01 
       2.857339303080e-01       1.757568864155e-01 
       2.953410092148e-01       1.636997662316e-01 
       3.052919395542e-01       1.539067282640e-01 
       3.156055844677e-01       1.455311274111e-01 
       3.263032530092e-01       1.372500642272e-01 
       3.374091587054e-01       1.283020822506e-01 
       3.489509817175e-01       1.191712417908e-01 
       3.609605657343e-01       1.108072997325e-01 
       3.734747921333e-01       1.036449935951e-01 
       3.865366902904e-01       9.714153671763e-02 
       4.001968667448e-01       9.061565756588e-02 
       4.145153713076e-01       8.403703059801e-02 
       4.295641718077e-01       7.789122143783e-02 
       4.454304922144e-01       7.234169036619e-02 
       4.622214006969e-01       6.709364607752e-02 
       4.800702491654e-01       6.189188965567e-02 
       4.991459272112e-01       5.692635439345e-02 
       5.196665217302e-01       5.231619710242e-02 
       5.419201087032e-01       4.783257030560e-02 
       5.662975451962e-01       4.348690942893e-02 
       5.933463737275e-01       3.933110301830e-02 
       6.238638458458e-01       3.525327160025e-02 
       6.590669257916e-01       3.126272343360e-02 
       7.009246080454e-01       2.728735203057e-02 
       7.528593308799e-01       2.327837603276e-02 
       8.213469537518e-01       1.914816009423e-02 
       9.196980813302e-01       1.481693222326e-02 
       1.075112183810e+00       1.035083919351e-02 
       1.322697471132e+00       6.379340406436e-03 
       1.662328205042e+00       3.705523763158e-03 
       2.092692408506e+00       2.124399328574e-03 
       2.634543445090e+00       1.207820369596e-03 
       3.316693691389e+00       6.815530773642e-04 
       4.175469971226e+00       3.819632824035e-04 
       5.256605252960e+00       2.127110993195e-04 
       6.617673932723e+00       1.177560580915e-04 
       8.331157880872e+00       6.481877307310e-05 
       1.048830636590e+01       3.547616173161e-05 
       1.320399541071e+01       1.929677728282e-05 
       1.662284535976e+01       1.041950476810e-05 
       2.092692243973e+01       5.571307484430e-06 
       2.634543445002e+01       2.936172700093e-06 
       3.316693691389e+01       1.512082601049e-06 
       4.175469971226e+01       7.491033342824e-07 
       5.256605252960e+01       3.470252000434e-07 
       6.617673932723e+01       1.425344492209e-07 
