# Matter power spectrum P(k) at redshift z=99
# for k=1.04775e-05 to 66.1767 h/Mpc,
# number of wavenumbers equal to 130
#    1:k (h/Mpc)              2:P (Mpc/h)^3        
       1.047750691046e-05       7.261927680960e-03 
       1.319039970183e-05       9.069258201971e-03 
       1.660572937635e-05       1.132639106741e-02 
       2.090537469327e-05       1.414527123418e-02 
       2.631830744443e-05       1.766569584082e-02 
       3.313278603720e-05       2.206225515972e-02 
       4.171170630578e-05       2.755297766314e-02 
       5.251192703764e-05       3.441013522994e-02 
       6.610859936996e-05       4.297372172835e-02 
       8.322579568497e-05       5.366826853016e-02 
       1.047750691046e-04       6.702379872864e-02 
       1.319039970183e-04       8.370193441398e-02 
       1.660572937635e-04       1.045283355398e-01 
       2.090537469327e-04       1.305329134121e-01 
       2.631830744443e-04       1.629994506627e-01 
       3.313278603720e-04       2.035264004628e-01 
       4.171170630578e-04       2.541004744275e-01 
       5.251192703764e-04       3.171839528596e-01 
       6.610859936996e-04       3.958147256560e-01 
       8.322579568497e-04       4.937136006332e-01 
       1.047750691046e-03       6.153841636100e-01 
       1.319039970183e-03       7.661720592416e-01 
       1.660572937635e-03       9.522588016509e-01 
       2.090537469327e-03       1.180312991689e+00 
       2.631830744443e-03       1.456802684640e+00 
       3.313278603720e-03       1.786503853896e+00 
       4.171170630578e-03       2.169896192560e+00 
       5.251192703764e-03       2.599430629616e+00 
       6.610859936996e-03       3.055668673169e+00 
       8.322579568497e-03       3.505725590901e+00 
       1.047750691046e-02       3.905490799635e+00 
       1.319039970183e-02       4.200915351570e+00 
       1.660572937633e-02       4.325062527786e+00 
       2.090537453514e-02       4.210203822911e+00 
       2.631818545635e-02       3.825146037226e+00 
       3.311571692125e-02       3.229060599699e+00 
       4.113809243311e-02       2.627729381645e+00 
       4.792590854610e-02       2.280795156994e+00 
       5.284436902701e-02       2.110083866197e+00 
       5.689644391095e-02       2.003532328044e+00 
       6.051252627066e-02       1.923053867830e+00 
       6.388413457411e-02       1.852727319292e+00 
       6.711249296401e-02       1.784559355396e+00 
       7.025823437965e-02       1.714272439999e+00 
       7.336115587705e-02       1.639809355437e+00 
       7.644928796912e-02       1.560656341481e+00 
       7.954353299775e-02       1.477449184190e+00 
       8.266024078725e-02       1.391689314084e+00 
       8.581273398637e-02       1.305451591459e+00 
       8.901225918437e-02       1.221118126185e+00 
       9.226860540985e-02       1.141071805510e+00 
       9.559052048996e-02       1.067444375783e+00 
       9.898599946599e-02       1.001878457862e+00 
       1.024624891378e-01       9.453699660857e-01 
       1.060270359164e-01       8.981411968722e-01 
       1.096863943056e-01       8.596016200025e-01 
       1.134471073830e-01       8.283925899036e-01 
       1.173155669539e-01       8.024497443570e-01 
       1.212980586983e-01       7.792156399763e-01 
       1.254007961065e-01       7.559030805959e-01 
       1.296299459934e-01       7.299677478006e-01 
       1.339916477160e-01       6.995777312131e-01 
       1.384920277736e-01       6.640611275626e-01 
       1.431372111762e-01       6.241312659322e-01 
       1.479333307714e-01       5.817471641954e-01 
       1.528865355934e-01       5.396760107143e-01 
       1.580029992204e-01       5.007958540002e-01 
       1.632889290723e-01       4.673796407139e-01 
       1.687505775527e-01       4.405150152220e-01 
       1.743942559171e-01       4.198448298866e-01 
       1.802263517371e-01       4.036389609886e-01 
       1.862533508214e-01       3.893379417930e-01 
       1.924818644494e-01       3.741120882299e-01 
       1.989186627765e-01       3.557773912032e-01 
       2.055707152847e-01       3.339744302371e-01 
       2.124452391818e-01       3.102411830970e-01 
       2.195497567139e-01       2.870977451152e-01 
       2.268921624510e-01       2.667824351844e-01 
       2.344808017550e-01       2.504564484509e-01 
       2.423245618548e-01       2.378043808023e-01 
       2.504329772620e-01       2.270824709662e-01 
       2.588163516754e-01       2.160871778732e-01 
       2.674858990930e-01       2.035142100440e-01 
       2.764539076010e-01       1.895653457052e-01 
       2.857339303080e-01       1.757247647543e-01 
       2.953410092148e-01       1.636664128861e-01 
       3.052919395542e-01       1.538721233555e-01 
       3.156055844677e-01       1.454954797920e-01 
       3.263032530092e-01       1.372135691759e-01 
       3.374091587054e-01       1.282643353098e-01 
       3.489509817175e-01       1.191329145661e-01 
       3.609605657343e-01       1.107679943771e-01 
       3.734747921333e-01       1.036048604570e-01 
       3.865366902904e-01       9.710002665984e-02 
       4.001968667448e-01       9.057341150395e-02 
       4.145153713076e-01       8.399378719178e-02 
       4.295641718077e-01       7.784712400971e-02 
       4.454304922144e-01       7.229633181629e-02 
       4.622214006969e-01       6.704711679834e-02 
       4.800702491654e-01       6.184443566310e-02 
       4.991459272112e-01       5.687781745375e-02 
       5.196665217302e-01       5.226632931779e-02 
       5.419201087032e-01       4.778168114784e-02 
       5.662975451962e-01       4.343469534152e-02 
       5.933463737275e-01       3.927760178733e-02 
       6.238638458458e-01       3.519842534678e-02 
       6.590669257916e-01       3.120649802669e-02 
       7.009246080454e-01       2.722928664232e-02 
       7.528593308799e-01       2.321834680963e-02 
       8.213469537518e-01       1.908581337697e-02 
       9.196980813302e-01       1.475152123720e-02 
       1.075112183810e+00       1.028154095005e-02 
       1.322697471132e+00       6.305272112662e-03 
       1.662328205042e+00       3.626883174849e-03 
       2.092692408506e+00       2.042244569077e-03 
       2.634543445090e+00       1.123698679372e-03 
       3.316693691389e+00       5.975909983519e-04 
       4.175469971226e+00       3.010000204946e-04 
       5.256605252960e+00       1.383209231835e-04 
       6.617673932723e+00       5.393678939176e-05 
       8.331157880872e+00       1.516626829158e-05 
       1.048830636590e+01       1.769380968755e-06 
       1.320399541071e+01       1.152642736758e-07 
       1.662284535976e+01       1.200452700683e-06 
       2.092692243973e+01       1.077946595990e-06 
       2.634543445002e+01       2.464933961451e-07 
       3.316693691389e+01       8.571034098769e-10 
       4.175469971226e+01       3.273591569471e-08 
       5.256605252960e+01       2.316521914604e-09 
       6.617673932723e+01       1.142675532209e-09 
