# Matter power spectrum P(k) at redshift z=0
# for k=1.04775e-05 to 67.6233 h/Mpc,
# number of wavenumbers equal to 246
#    1:k (h/Mpc)              2:P (Mpc/h)^3        
       1.047750691046e-05       5.020963381685e+01 
       1.131335172503e-05       5.407048182423e+01 
       1.221587619537e-05       5.822819562553e+01 
       1.319039970183e-05       6.270561034695e+01 
       1.424266597921e-05       6.752732238692e+01 
       1.537887696968e-05       7.271976069551e+01 
       1.660572937635e-05       7.831145689472e+01 
       1.793045413292e-05       8.433311609703e+01 
       1.936085902198e-05       9.081780537831e+01 
       2.090537469327e-05       9.780107904421e+01 
       2.257310435294e-05       1.053212755069e+02 
       2.437387741694e-05       1.134197283831e+02 
       2.631830744443e-05       1.221408335160e+02 
       2.841785469300e-05       1.315324531530e+02 
       3.068489366414e-05       1.416461534643e+02 
       3.313278603720e-05       1.525374520477e+02 
       3.577595942169e-05       1.642660483608e+02 
       3.862999239199e-05       1.768963756348e+02 
       4.171170630578e-05       1.904975978304e+02 
       4.503926444729e-05       2.051444243980e+02 
       4.863227907969e-05       2.209171480981e+02 
       5.251192703764e-05       2.379022309302e+02 
       5.670107454120e-05       2.561927776480e+02 
       6.122441196689e-05       2.758890493333e+02 
       6.610859936996e-05       2.970989232707e+02 
       7.138242361596e-05       3.199385561762e+02 
       7.707696804727e-05       3.445329732379e+02 
       8.322579568497e-05       3.710167340741e+02 
       8.986514704559e-05       3.995346446206e+02 
       9.703415373875e-05       4.302425396505e+02 
       1.047750691046e-04       4.633080774221e+02 
       1.131335172503e-04       4.989116266815e+02 
       1.221587619537e-04       5.372471953708e+02 
       1.319039970183e-04       5.785234118235e+02 
       1.424266597921e-04       6.229645936297e+02 
       1.537887696968e-04       6.708118488793e+02 
       1.660572937635e-04       7.223242664949e+02 
       1.793045413292e-04       7.777801559924e+02 
       1.936085902198e-04       8.374783620438e+02 
       2.090537469327e-04       9.017396291366e+02 
       2.257310435294e-04       9.709080261676e+02 
       2.437387741694e-04       1.045352449535e+03 
       2.631830744443e-04       1.125468122857e+03 
       2.841785469300e-04       1.211678179874e+03 
       3.068489366414e-04       1.304435248271e+03 
       3.313278603720e-04       1.404223053027e+03 
       3.577595942169e-04       1.511558011666e+03 
       3.862999239199e-04       1.626990838257e+03 
       4.171170630578e-04       1.751108024708e+03 
       4.503926444729e-04       1.884533380777e+03 
       4.863227907969e-04       2.027929376791e+03 
       5.251192703764e-04       2.181998442989e+03 
       5.670107454121e-04       2.347484100237e+03 
       6.122441196689e-04       2.525171862900e+03 
       6.610859936996e-04       2.715889973536e+03 
       7.138242361596e-04       2.920509672530e+03 
       7.707696804727e-04       3.139945071025e+03 
       8.322579568497e-04       3.375152302570e+03 
       8.986514704559e-04       3.627127782107e+03 
       9.703415373875e-04       3.896905383281e+03 
       1.047750691046e-03       4.185552076138e+03 
       1.131335172503e-03       4.494162290774e+03 
       1.221587619537e-03       4.823850514779e+03 
       1.319039970183e-03       5.175742459858e+03 
       1.424266597921e-03       5.551019199500e+03 
       1.537887696968e-03       5.950787618513e+03 
       1.660572937635e-03       6.376121820208e+03 
       1.793045413292e-03       6.828071905583e+03 
       1.936085902198e-03       7.307622103984e+03 
       2.090537469327e-03       7.815666583971e+03 
       2.257310435294e-03       8.352982351468e+03 
       2.437387741694e-03       8.920198630583e+03 
       2.631830744443e-03       9.517764226202e+03 
       2.841785469300e-03       1.014590881209e+04 
       3.068489366414e-03       1.080460316699e+04 
       3.313278603720e-03       1.149351351336e+04 
       3.577595942169e-03       1.221194816488e+04 
       3.862999239199e-03       1.295879953045e+04 
       4.171170630578e-03       1.373248138003e+04 
       4.503926444729e-03       1.453086568019e+04 
       4.863227907969e-03       1.535119618374e+04 
       5.251192703764e-03       1.619013909342e+04 
       5.670107454120e-03       1.704362677130e+04 
       6.122441196689e-03       1.790660796158e+04 
       6.610859936996e-03       1.877329050869e+04 
       7.138242361596e-03       1.963691814564e+04 
       7.707696804727e-03       2.048967931294e+04 
       8.322579568496e-03       2.132272508777e+04 
       8.986514704559e-03       2.212594090415e+04 
       9.703415373875e-03       2.288820007629e+04 
       1.047750691046e-02       2.359702017220e+04 
       1.131335172503e-02       2.423881933264e+04 
       1.221587619537e-02       2.479891291552e+04 
       1.319039970183e-02       2.526167800134e+04 
       1.424266597920e-02       2.561081180224e+04 
       1.537887696964e-02       2.582981220572e+04 
       1.660572937560e-02       2.590237888121e+04 
       1.793045412207e-02       2.581336595662e+04 
       1.936085889642e-02       2.554984827754e+04 
       2.090537351881e-02       2.510235105962e+04 
       2.257309534705e-02       2.446628106429e+04 
       2.437382002240e-02       2.364382201581e+04 
       2.631799943729e-02       2.264528966555e+04 
       2.841644544598e-02       2.149065679256e+04 
       3.067933354524e-02       2.021115571382e+04 
       3.311368469821e-02       1.884933889124e+04 
       3.571840442514e-02       1.745914585136e+04 
       3.847720347390e-02       1.610193646570e+04 
       4.135335537314e-02       1.483840096843e+04 
       4.429361666563e-02       1.371441269648e+04 
       4.724366437916e-02       1.274937062688e+04 
       5.016480834039e-02       1.193615291536e+04 
       5.303989618930e-02       1.124978901055e+04 
       5.586870668205e-02       1.065889098711e+04 
       5.866042679206e-02       1.013265988890e+04 
       6.142798931504e-02       9.643892552075e+03 
       6.418496438662e-02       9.170276373086e+03 
       6.694418832236e-02       8.694232026541e+03 
       6.971731104453e-02       8.203373655612e+03 
       7.251476154108e-02       7.690276382774e+03 
       7.534587669814e-02       7.152431414003e+03 
       7.821907664495e-02       6.592118374530e+03 
       8.114203771084e-02       6.015804297297e+03 
       8.412184533139e-02       5.433436889138e+03 
       8.716512277352e-02       4.857230887165e+03 
       9.027813693913e-02       4.300157230884e+03 
       9.346688429613e-02       3.774735366273e+03 
       9.673716026122e-02       3.291284849072e+03 
       1.000946150608e-01       2.856959584172e+03 
       1.035447986307e-01       2.475144591407e+03 
       1.070931966524e-01       2.145235673360e+03 
       1.107452594180e-01       1.863099131821e+03 
       1.145064248899e-01       1.621754614119e+03 
       1.183821370656e-01       1.412375135455e+03 
       1.223778605591e-01       1.225444355573e+03 
       1.264990921707e-01       1.052110955973e+03 
       1.307513701078e-01       8.856163045901e+02 
       1.351402814485e-01       7.226492207361e+02 
       1.396714683894e-01       5.641387985006e+02 
       1.443506337875e-01       4.149822087690e+02 
       1.491835464900e-01       2.824593335334e+02 
       1.541760469368e-01       1.737154536288e+02 
       1.593340535209e-01       9.309561764917e+01 
       1.646635701934e-01       4.058267682927e+01 
       1.701706958081e-01       1.202160542744e+01 
       1.758616357070e-01       9.811723631962e-01 
       1.817427160581e-01       1.194614056385e+00 
       1.878204014651e-01       8.291126528235e+00 
       1.941013163855e-01       2.044262917016e+01 
       2.005922709060e-01       3.791233938450e+01 
       2.073002914514e-01       6.149619318336e+01 
       2.142326570343e-01       9.064884449568e+01 
       2.213969417044e-01       1.223412417392e+02 
       2.288010639201e-01       1.514035853225e+02 
       2.364533436625e-01       1.722911976502e+02 
       2.443625682390e-01       1.819171343831e+02 
       2.525380678946e-01       1.814212671393e+02 
       2.609898025770e-01       1.746340478517e+02 
       2.697284614969e-01       1.650545802124e+02 
       2.787655775073e-01       1.540071737538e+02 
       2.881136588192e-01       1.401933367147e+02 
       2.977863412019e-01       1.216248252408e+02 
       3.077985646248e-01       9.856973454481e+01 
       3.181667793367e-01       7.385888612716e+01 
       3.289091877084e-01       5.117669808269e+01 
       3.400460298905e-01       3.275500264698e+01 
       3.515999235695e-01       1.873069048456e+01 
       3.635962710278e-01       8.622961434103e+00 
       3.760637505499e-01       2.338721836728e+00 
       3.890349143014e-01       2.955732871522e-02 
       4.025469215929e-01       1.077786529269e+00 
       4.166424455447e-01       4.170013865923e+00 
       4.313708034899e-01       8.094429747012e+00 
       4.467893781976e-01       1.190651794266e+01 
       4.629654198623e-01       1.465958546071e+01 
       4.799783500912e-01       1.553113976185e+01 
       4.979227318246e-01       1.440034784015e+01 
       5.169121269689e-01       1.177541399187e+01 
       5.370841403262e-01       8.247717405314e+00 
       5.586070463286e-01       4.618983755814e+00 
       5.816885093582e-01       1.785723670282e+00 
       6.065870143577e-01       2.591535785882e-01 
       6.336266466978e-01       6.359616470789e-02 
       6.632156057925e-01       7.249637337083e-01 
       6.958678637575e-01       1.459465204477e+00 
       7.322247983784e-01       1.597390802559e+00 
       7.730680193171e-01       1.031130306627e+00 
       8.193049551574e-01       2.907821048360e-01 
       8.718988013754e-01       3.090600259751e-05 
       9.317218028590e-01       1.332236352354e-01 
       9.993660906273e-01       1.752590378259e-01 
       1.075037109879e+00       3.947019797642e-02 
       1.158653485387e+00       4.182064470978e-03 
       1.250099156961e+00       2.426742594943e-02 
       1.349432400897e+00       4.598653812916e-03 
       1.456947456991e+00       1.453660651372e-03 
       1.573135110893e+00       2.128989816235e-03 
       1.698621895119e+00       9.103996235698e-06 
       1.834127512423e+00       3.930233509150e-04 
       1.980444933977e+00       5.803271809014e-07 
       2.138435191130e+00       4.403142913856e-05 
       2.309029198543e+00       1.516874112544e-06 
       2.493232376993e+00       4.167130473161e-06 
       2.692130394536e+00       6.187538873384e-07 
       2.906895533764e+00       1.923340941742e-08 
       3.138793596840e+00       1.172447088503e-07 
       3.389191365541e+00       7.294488276532e-10 
       3.659564656886e+00       1.857421022131e-08 
       3.951507021438e+00       3.733369384318e-09 
       4.266739135513e+00       4.101262756521e-09 
       4.607118942658e+00       2.544901048901e-09 
       4.974652604172e+00       1.937109297448e-09 
       5.371506323193e+00       1.219484044345e-09 
       5.800019112071e+00       8.547064799124e-10 
       6.262716578240e+00       5.744368662524e-10 
       6.762325809881e+00       4.140541842495e-10 
       7.301791449077e+00       2.752491401751e-10 
       7.884293047211e+00       1.809672403495e-10 
       8.513263804891e+00       1.141239323992e-10 
       9.192410806865e+00       7.885656681552e-11 
       9.925736871166e+00       4.775045267579e-11 
       1.071756414128e+01       2.992280557489e-11 
       1.157255956041e+01       1.994854159349e-11 
       1.249576237789e+01       1.224368973070e-11 
       1.349261385000e+01       7.285977881731e-12 
       1.456898931011e+01       4.288837214897e-12 
       1.573123279727e+01       2.181304945013e-12 
       1.698619444729e+01       1.173087313462e-12 
       1.834127086665e+01       6.036741853462e-13 
       1.980444872733e+01       2.972757356307e-13 
       2.138435183937e+01       1.331787381157e-13 
       2.309029197863e+01       6.738443687544e-14 
       2.493232376942e+01       2.468960463811e-14 
       2.692130394533e+01       7.041163359537e-15 
       2.906895533764e+01       1.602370097150e-15 
       3.138793596840e+01       2.904555901058e-16 
       3.389191365541e+01       6.479122785353e-17 
       3.659564656886e+01       9.983584180280e-18 
       3.951507021438e+01       3.755286989284e-18 
       4.266739135513e+01       7.515719791388e-21 
       4.607118942658e+01       7.030076812359e-19 
       4.974652604172e+01       4.366698973978e-18 
       5.371506323193e+01       1.293179560108e-18 
       5.800019112071e+01       9.472190105824e-19 
       6.262716578240e+01       7.335477155524e-19 
       6.762325809881e+01       3.330359472156e-19 
