# Matter power spectrum P(k) at redshift z=99
# for k=1.04775e-05 to 66.1767 h/Mpc,
# number of wavenumbers equal to 130
#    1:k (h/Mpc)              2:P (Mpc/h)^3        
       1.047750691046e-05       7.261927680862e-03 
       1.319039970183e-05       9.069258201849e-03 
       1.660572937635e-05       1.132639106725e-02 
       2.090537469327e-05       1.414527123399e-02 
       2.631830744443e-05       1.766569584058e-02 
       3.313278603720e-05       2.206225515942e-02 
       4.171170630578e-05       2.755297766277e-02 
       5.251192703764e-05       3.441013522947e-02 
       6.610859936996e-05       4.297372172778e-02 
       8.322579568497e-05       5.366826852944e-02 
       1.047750691046e-04       6.702379872775e-02 
       1.319039970183e-04       8.370193441286e-02 
       1.660572937635e-04       1.045283355384e-01 
       2.090537469327e-04       1.305329134104e-01 
       2.631830744443e-04       1.629994506605e-01 
       3.313278603720e-04       2.035264004601e-01 
       4.171170630578e-04       2.541004744243e-01 
       5.251192703764e-04       3.171839528557e-01 
       6.610859936996e-04       3.958147256514e-01 
       8.322579568497e-04       4.937136006271e-01 
       1.047750691046e-03       6.153841636041e-01 
       1.319039970183e-03       7.661720592793e-01 
       1.660572937635e-03       9.522588016483e-01 
       2.090537469327e-03       1.180312991699e+00 
       2.631830744443e-03       1.456802684686e+00 
       3.313278603720e-03       1.786503854045e+00 
       4.171170630578e-03       2.169896197837e+00 
       5.251192703764e-03       2.599430630720e+00 
       6.610859936996e-03       3.055668693026e+00 
       8.322579568497e-03       3.505725598706e+00 
       1.047750691046e-02       3.905490288034e+00 
       1.319039970183e-02       4.200915364926e+00 
       1.660572937633e-02       4.325063185640e+00 
       2.090537453514e-02       4.210206925083e+00 
       2.631818545635e-02       3.825152041544e+00 
       3.311571692125e-02       3.229065350465e+00 
       4.113809243311e-02       2.627725240460e+00 
       4.792590854610e-02       2.280798751797e+00 
       5.284436902701e-02       2.110087048662e+00 
       5.689644391095e-02       2.003541911439e+00 
       6.051252627066e-02       1.923052017760e+00 
       6.388413457411e-02       1.852732565359e+00 
       6.711249296401e-02       1.784565572481e+00 
       7.025823437965e-02       1.714276903590e+00 
       7.336115587705e-02       1.639813680728e+00 
       7.644928796912e-02       1.560659545833e+00 
       7.954353299775e-02       1.477456554410e+00 
       8.266024078725e-02       1.391698497770e+00 
       8.581273398637e-02       1.305462896037e+00 
       8.901225918437e-02       1.221123680930e+00 
       9.226860540985e-02       1.141078904154e+00 
       9.559052048996e-02       1.067454027526e+00 
       9.898599946599e-02       1.001889769728e+00 
       1.024624891378e-01       9.453805433777e-01 
       1.060270359164e-01       8.981508751193e-01 
       1.096863943056e-01       8.596132265437e-01 
       1.134471073830e-01       8.284056487550e-01 
       1.173155669539e-01       8.024669905499e-01 
       1.212980586983e-01       7.792287758615e-01 
       1.254007961065e-01       7.559181081740e-01 
       1.296299459934e-01       7.299831884979e-01 
       1.339916477160e-01       6.995931319855e-01 
       1.384920277736e-01       6.640776588753e-01 
       1.431372111762e-01       6.241470149322e-01 
       1.479333307714e-01       5.817636425321e-01 
       1.528865355934e-01       5.396931854968e-01 
       1.580029992204e-01       5.008146316691e-01 
       1.632889290723e-01       4.673988805162e-01 
       1.687505775527e-01       4.405344081159e-01 
       1.743942559171e-01       4.198660337514e-01 
       1.802263517371e-01       4.036598741222e-01 
       1.862533508214e-01       3.893598362959e-01 
       1.924818644494e-01       3.741340055306e-01 
       1.989186627765e-01       3.558019613053e-01 
       2.055707152847e-01       3.340005896937e-01 
       2.124452391818e-01       3.102646411815e-01 
       2.195497567139e-01       2.871229258344e-01 
       2.268921624510e-01       2.668080275780e-01 
       2.344808017550e-01       2.504839529552e-01 
       2.423245618548e-01       2.378342042803e-01 
       2.504329772620e-01       2.271119633805e-01 
       2.588163516754e-01       2.161174728179e-01 
       2.674858990930e-01       2.035457995699e-01 
       2.764539076010e-01       1.895980701926e-01 
       2.857339303080e-01       1.757573017150e-01 
       2.953410092148e-01       1.636993836124e-01 
       3.052919395542e-01       1.539061734416e-01 
       3.156055844677e-01       1.455310777492e-01 
       3.263032530092e-01       1.372507599555e-01 
       3.374091587054e-01       1.283024385209e-01 
       3.489509817175e-01       1.191712055697e-01 
       3.609605657343e-01       1.108074864114e-01 
       3.734747921333e-01       1.036450502956e-01 
       3.865366902904e-01       9.714119631920e-02 
       4.001968667448e-01       9.061560556520e-02 
       4.145153713076e-01       8.403700025632e-02 
       4.295641718077e-01       7.789114041932e-02 
       4.454304922144e-01       7.234171849953e-02 
       4.622214006969e-01       6.709368691360e-02 
       4.800702491654e-01       6.189193521379e-02 
       4.991459272112e-01       5.692645064926e-02 
       5.196665217302e-01       5.231626679879e-02 
       5.419201087032e-01       4.783265725527e-02 
       5.662975451962e-01       4.348691842292e-02 
       5.933463737275e-01       3.933114025848e-02 
       6.238638458458e-01       3.525351833511e-02 
       6.590669257916e-01       3.126291002516e-02 
       7.009246080454e-01       2.728739483034e-02 
       7.528593308799e-01       2.327833810941e-02 
       8.213469537518e-01       1.914822840577e-02 
       9.196980813302e-01       1.481700386009e-02 
       1.075112183810e+00       1.035092961943e-02 
       1.322697471132e+00       6.379466930063e-03 
       1.662328205042e+00       3.705662950291e-03 
       2.092692408506e+00       2.124529964776e-03 
       2.634543445090e+00       1.207960796556e-03 
       3.316693691389e+00       6.817115270978e-04 
       4.175469971226e+00       3.821156245068e-04 
       5.256605252960e+00       2.128699509520e-04 
       6.617673932723e+00       1.179184117692e-04 
       8.331157880872e+00       6.498205883182e-05 
       1.048830636590e+01       3.563985059211e-05 
       1.320399541071e+01       1.946020661364e-05 
       1.662284535976e+01       1.058138663633e-05 
       2.092692243973e+01       5.730234109929e-06 
       2.634543445002e+01       3.090362169982e-06 
       3.316693691389e+01       1.658958408292e-06 
       4.175469971226e+01       8.853205368678e-07 
       5.256605252960e+01       4.683598489825e-07 
       6.617673932723e+01       2.441608651017e-07 
