# Matter power spectrum P(k) at redshift z=0
# for k=1.04775e-05 to 66.1767 h/Mpc,
# number of wavenumbers equal to 130
#    1:k (h/Mpc)              2:P (Mpc/h)^3        
       1.047750691046e-05       5.020964811307e+01 
       1.319039970183e-05       6.270562594782e+01 
       1.660572937635e-05       7.831147247912e+01 
       2.090537469327e-05       9.780108069295e+01 
       2.631830744443e-05       1.221408203809e+02 
       3.313278603720e-05       1.525374501932e+02 
       4.171170630578e-05       1.904975994009e+02 
       5.251192703764e-05       2.379022224249e+02 
       6.610859936996e-05       2.970989227881e+02 
       8.322579568497e-05       3.710167318946e+02 
       1.047750691046e-04       4.633080766742e+02 
       1.319039970183e-04       5.785234129336e+02 
       1.660572937635e-04       7.223242666092e+02 
       2.090537469327e-04       9.017396271824e+02 
       2.631830744443e-04       1.125468123750e+03 
       3.313278603720e-04       1.404223053681e+03 
       4.171170630578e-04       1.751108028790e+03 
       5.251192703764e-04       2.181998448133e+03 
       6.610859936996e-04       2.715889983592e+03 
       8.322579568497e-04       3.375152337134e+03 
       1.047750691046e-03       4.185552174306e+03 
       1.319039970183e-03       5.175742740036e+03 
       1.660572937635e-03       6.376123051778e+03 
       2.090537469327e-03       7.815671904412e+03 
       2.631830744443e-03       9.517783069112e+03 
       3.313278603720e-03       1.149357460346e+04 
       4.171170630578e-03       1.373266011464e+04 
       5.251192703764e-03       1.619063614559e+04 
       6.610859936996e-03       1.877460411597e+04 
       8.322579568497e-03       2.132607231809e+04 
       1.047750691046e-02       2.360548080633e+04 
       1.319039970183e-02       2.528218809279e+04 
       1.660572937633e-02       2.595028882568e+04 
       2.090537453514e-02       2.520935481276e+04 
       2.631818545635e-02       2.287035051215e+04 
       3.311571692125e-02       1.928625716342e+04 
       4.113809243311e-02       1.568426996030e+04 
       4.792590854610e-02       1.361062788581e+04 
       5.284436902701e-02       1.259129768145e+04 
       5.689644391095e-02       1.195555467501e+04 
       6.051252627066e-02       1.147545521551e+04 
       6.388413457411e-02       1.105590082242e+04 
       6.711249296401e-02       1.064901779162e+04 
       7.025823437965e-02       1.022930414128e+04 
       7.336115587705e-02       9.784527630607e+03 
       7.644928796912e-02       9.311668556948e+03 
       7.954353299775e-02       8.814552384566e+03 
       8.266024078725e-02       8.302132532560e+03 
       8.581273398637e-02       7.786959540093e+03 
       8.901225918437e-02       7.283160365240e+03 
       9.226860540985e-02       6.805152958200e+03 
       9.559052048996e-02       6.365631838308e+03 
       9.898599946599e-02       5.974401766403e+03 
       1.024624891378e-01       5.637325904455e+03 
       1.060270359164e-01       5.355765832525e+03 
       1.096863943056e-01       5.126231707365e+03 
       1.134471073830e-01       4.940482686786e+03 
       1.173155669539e-01       4.786163476306e+03 
       1.212980586983e-01       4.647931075191e+03 
       1.254007961065e-01       4.509154626538e+03 
       1.296299459934e-01       4.354553099146e+03 
       1.339916477160e-01       4.173212042859e+03 
       1.384920277736e-01       3.961176348637e+03 
       1.431372111762e-01       3.722691920329e+03 
       1.479333307714e-01       3.469551447796e+03 
       1.528865355934e-01       3.218339554270e+03 
       1.580029992204e-01       2.986297721472e+03 
       1.632889290723e-01       2.786964109767e+03 
       1.687505775527e-01       2.626822975387e+03 
       1.743942559171e-01       2.503751553342e+03 
       1.802263517371e-01       2.407343969372e+03 
       1.862533508214e-01       2.322252485524e+03 
       1.924818644494e-01       2.231549875756e+03 
       1.989186627765e-01       2.122194795476e+03 
       2.055707152847e-01       1.992026899696e+03 
       2.124452391818e-01       1.850319558221e+03 
       2.195497567139e-01       1.712179683439e+03 
       2.268921624510e-01       1.590987839873e+03 
       2.344808017550e-01       1.493668107779e+03 
       2.423245618548e-01       1.418310875752e+03 
       2.504329772620e-01       1.354468825845e+03 
       2.588163516754e-01       1.288936184766e+03 
       2.674858990930e-01       1.213937943576e+03 
       2.764539076010e-01       1.130690647522e+03 
       2.857339303080e-01       1.048098611892e+03 
       2.953410092148e-01       9.761853447607e+02 
       3.052919395542e-01       9.178078931141e+02 
       3.156055844677e-01       8.678979548804e+02 
       3.263032530092e-01       8.185265326746e+02 
       3.374091587054e-01       7.651446480125e+02 
       3.489509817175e-01       7.106700064651e+02 
       3.609605657343e-01       6.607858818358e+02 
       3.734747921333e-01       6.180880735465e+02 
       3.865366902904e-01       5.793102054482e+02 
       4.001968667448e-01       5.403913630869e+02 
       4.145153713076e-01       5.011491955725e+02 
       4.295641718077e-01       4.644988917250e+02 
       4.454304922144e-01       4.314078592930e+02 
       4.622214006969e-01       4.001132208034e+02 
       4.800702491654e-01       3.690887960543e+02 
       4.991459272112e-01       3.394764927464e+02 
       5.196665217302e-01       3.119855029293e+02 
       5.419201087032e-01       2.852464617976e+02 
       5.662975451962e-01       2.593311767872e+02 
       5.933463737275e-01       2.345470870354e+02 
       6.238638458458e-01       2.102306283684e+02 
       6.590669257916e-01       1.864334785982e+02 
       7.009246080454e-01       1.627251709262e+02 
       7.528593308799e-01       1.388188212172e+02 
       8.213469537518e-01       1.141882960288e+02 
       9.196980813302e-01       8.835925950462e+01 
       1.075112183810e+00       6.172620706316e+01 
       1.322697471132e+00       3.804277162279e+01 
       1.662328205042e+00       2.209804694073e+01 
       2.092692408506e+00       1.266920568239e+01 
       2.634543445090e+00       7.203323452279e+00 
       3.316693691389e+00       4.065153700791e+00 
       4.175469971226e+00       2.278600551125e+00 
       5.256605252960e+00       1.269348948742e+00 
       6.617673932723e+00       7.031380480488e-01 
       8.331157880872e+00       3.874763489998e-01 
       1.048830636590e+01       2.125110220455e-01 
       1.320399541071e+01       1.160356316038e-01 
       1.662284535976e+01       6.309715395567e-02 
       2.092692243973e+01       3.417841506736e-02 
       2.634543445002e+01       1.844456439203e-02 
       3.316693691389e+01       9.917838830071e-03 
       4.175469971226e+01       5.313199220506e-03 
       5.256605252960e+01       2.835372689953e-03 
       6.617673932723e+01       1.506415249750e-03 
