# Matter power spectrum P(k) at redshift z=0
# for k=1.04775e-05 to 66.1767 h/Mpc,
# number of wavenumbers equal to 130
#    1:k (h/Mpc)              2:P (Mpc/h)^3        
       1.047750691046e-05       5.020964811313e+01 
       1.319039970183e-05       6.270562594780e+01 
       1.660572937635e-05       7.831147247912e+01 
       2.090537469327e-05       9.780108069295e+01 
       2.631830744443e-05       1.221408203809e+02 
       3.313278603720e-05       1.525374501932e+02 
       4.171170630578e-05       1.904975994009e+02 
       5.251192703764e-05       2.379022224249e+02 
       6.610859936996e-05       2.970989227880e+02 
       8.322579568497e-05       3.710167318946e+02 
       1.047750691046e-04       4.633080766742e+02 
       1.319039970183e-04       5.785234129335e+02 
       1.660572937635e-04       7.223242666092e+02 
       2.090537469327e-04       9.017396271824e+02 
       2.631830744443e-04       1.125468123750e+03 
       3.313278603720e-04       1.404223053681e+03 
       4.171170630578e-04       1.751108028789e+03 
       5.251192703764e-04       2.181998448133e+03 
       6.610859936996e-04       2.715889983592e+03 
       8.322579568497e-04       3.375152337132e+03 
       1.047750691046e-03       4.185552174310e+03 
       1.319039970183e-03       5.175742740680e+03 
       1.660572937635e-03       6.376123051788e+03 
       2.090537469327e-03       7.815671865224e+03 
       2.631830744443e-03       9.517783069111e+03 
       3.313278603720e-03       1.149357460345e+04 
       4.171170630578e-03       1.373266008741e+04 
       5.251192703764e-03       1.619063614413e+04 
       6.610859936996e-03       1.877460423353e+04 
       8.322579568497e-03       2.132606736094e+04 
       1.047750691046e-02       2.360548560038e+04 
       1.319039970183e-02       2.528218628628e+04 
       1.660572937633e-02       2.595027527623e+04 
       2.090537453514e-02       2.520936571661e+04 
       2.631818545635e-02       2.287033840981e+04 
       3.311571692125e-02       1.928625369902e+04 
       4.113809243311e-02       1.568430278728e+04 
       4.792590854610e-02       1.361062006962e+04 
       5.284436902701e-02       1.259130334655e+04 
       5.689644391095e-02       1.195557201447e+04 
       6.051252627066e-02       1.147546227619e+04 
       6.388413457411e-02       1.105587659230e+04 
       6.711249296401e-02       1.064899792405e+04 
       7.025823437965e-02       1.022929614138e+04 
       7.336115587705e-02       9.784518811539e+03 
       7.644928796912e-02       9.311638073020e+03 
       7.954353299775e-02       8.814546297693e+03 
       8.266024078725e-02       8.302167914758e+03 
       8.581273398637e-02       7.786939103481e+03 
       8.901225918437e-02       7.283231174728e+03 
       9.226860540985e-02       6.805206616244e+03 
       9.559052048996e-02       6.365591148462e+03 
       9.898599946599e-02       5.974397706906e+03 
       1.024624891378e-01       5.637355747983e+03 
       1.060270359164e-01       5.355796365537e+03 
       1.096863943056e-01       5.126259086756e+03 
       1.134471073830e-01       4.940516513350e+03 
       1.173155669539e-01       4.786171141523e+03 
       1.212980586983e-01       4.647943914047e+03 
       1.254007961065e-01       4.509140908718e+03 
       1.296299459934e-01       4.354559736965e+03 
       1.339916477160e-01       4.173220559555e+03 
       1.384920277736e-01       3.961171734766e+03 
       1.431372111762e-01       3.722677193016e+03 
       1.479333307714e-01       3.469561479038e+03 
       1.528865355934e-01       3.218365226269e+03 
       1.580029992204e-01       2.986270073726e+03 
       1.632889290723e-01       2.786952226564e+03 
       1.687505775527e-01       2.626823679185e+03 
       1.743942559171e-01       2.503757758310e+03 
       1.802263517371e-01       2.407322872633e+03 
       1.862533508214e-01       2.322226406352e+03 
       1.924818644494e-01       2.231538472775e+03 
       1.989186627765e-01       2.122169759494e+03 
       2.055707152847e-01       1.992008507814e+03 
       2.124452391818e-01       1.850315371770e+03 
       2.195497567139e-01       1.712169933338e+03 
       2.268921624510e-01       1.590981372644e+03 
       2.344808017550e-01       1.493663874635e+03 
       2.423245618548e-01       1.418318414741e+03 
       2.504329772620e-01       1.354460707287e+03 
       2.588163516754e-01       1.288931001723e+03 
       2.674858990930e-01       1.213932701725e+03 
       2.764539076010e-01       1.130691449531e+03 
       2.857339303080e-01       1.048094889096e+03 
       2.953410092148e-01       9.761752454013e+02 
       3.052919395542e-01       9.178039779291e+02 
       3.156055844677e-01       8.678933972808e+02 
       3.263032530092e-01       8.185217076163e+02 
       3.374091587054e-01       7.651438857815e+02 
       3.489509817175e-01       7.106679917190e+02 
       3.609605657343e-01       6.607832116281e+02 
       3.734747921333e-01       6.180811944863e+02 
       3.865366902904e-01       5.793076246723e+02 
       4.001968667448e-01       5.403903842110e+02 
       4.145153713076e-01       5.011468684918e+02 
       4.295641718077e-01       4.644956403646e+02 
       4.454304922144e-01       4.314024888516e+02 
       4.622214006969e-01       4.001090971273e+02 
       4.800702491654e-01       3.690849816387e+02 
       4.991459272112e-01       3.394729478501e+02 
       5.196665217302e-01       3.119817086714e+02 
       5.419201087032e-01       2.852442450264e+02 
       5.662975451962e-01       2.593298913703e+02 
       5.933463737275e-01       2.345462680129e+02 
       6.238638458458e-01       2.102295129475e+02 
       6.590669257916e-01       1.864323735095e+02 
       7.009246080454e-01       1.627236365082e+02 
       7.528593308799e-01       1.388174328834e+02 
       8.213469537518e-01       1.141880737880e+02 
       9.196980813302e-01       8.835846700160e+01 
       1.075112183810e+00       6.172562966688e+01 
       1.322697471132e+00       3.804284430860e+01 
       1.662328205042e+00       2.209780535820e+01 
       2.092692408506e+00       1.266904002189e+01 
       2.634543445090e+00       7.203216577704e+00 
       3.316693691389e+00       4.065085935078e+00 
       4.175469971226e+00       2.278586227746e+00 
       5.256605252960e+00       1.269336695657e+00 
       6.617673932723e+00       7.031155537663e-01 
       8.331157880872e+00       3.874618661315e-01 
       1.048830636590e+01       2.124967345700e-01 
       1.320399541071e+01       1.160227048943e-01 
       1.662284535976e+01       6.308763330027e-02 
       2.092692243973e+01       3.416877260607e-02 
       2.634543445002e+01       1.843639310223e-02 
       3.316693691389e+01       9.910383952574e-03 
       4.175469971226e+01       5.306681593347e-03 
       5.256605252960e+01       2.829589843962e-03 
       6.617673932723e+01       1.501346754737e-03 
