# Matter power spectrum P(k) at redshift z=0
# for k=1.04775e-05 to 66.1767 h/Mpc,
# number of wavenumbers equal to 130
#    1:k (h/Mpc)              2:P (Mpc/h)^3        
       1.047750691046e-05       5.020964811307e+01 
       1.319039970183e-05       6.270562594775e+01 
       1.660572937635e-05       7.831147247912e+01 
       2.090537469327e-05       9.780108069296e+01 
       2.631830744443e-05       1.221408203809e+02 
       3.313278603720e-05       1.525374501932e+02 
       4.171170630578e-05       1.904975994010e+02 
       5.251192703764e-05       2.379022224249e+02 
       6.610859936996e-05       2.970989227881e+02 
       8.322579568497e-05       3.710167318945e+02 
       1.047750691046e-04       4.633080766742e+02 
       1.319039970183e-04       5.785234129330e+02 
       1.660572937635e-04       7.223242666092e+02 
       2.090537469327e-04       9.017396271824e+02 
       2.631830744443e-04       1.125468123750e+03 
       3.313278603720e-04       1.404223053681e+03 
       4.171170630578e-04       1.751108028790e+03 
       5.251192703764e-04       2.181998448133e+03 
       6.610859936996e-04       2.715889983591e+03 
       8.322579568497e-04       3.375152337134e+03 
       1.047750691046e-03       4.185552174304e+03 
       1.319039970183e-03       5.175742739170e+03 
       1.660572937635e-03       6.376123051777e+03 
       2.090537469327e-03       7.815671915426e+03 
       2.631830744443e-03       9.517783069109e+03 
       3.313278603720e-03       1.149357460346e+04 
       4.171170630578e-03       1.373266010374e+04 
       5.251192703764e-03       1.619063614222e+04 
       6.610859936996e-03       1.877460420660e+04 
       8.322579568497e-03       2.132607234517e+04 
       1.047750691046e-02       2.360547757268e+04 
       1.319039970183e-02       2.528218719148e+04 
       1.660572937633e-02       2.595025323485e+04 
       2.090537453514e-02       2.520934014456e+04 
       2.631818545635e-02       2.287038274166e+04 
       3.311571692125e-02       1.928625818405e+04 
       4.113809243311e-02       1.568429291236e+04 
       4.792590854610e-02       1.361062209362e+04 
       5.284436902701e-02       1.259129322645e+04 
       5.689644391095e-02       1.195561779965e+04 
       6.051252627066e-02       1.147549533312e+04 
       6.388413457411e-02       1.105586668446e+04 
       6.711249296401e-02       1.064898254488e+04 
       7.025823437965e-02       1.022932320391e+04 
       7.336115587705e-02       9.784546067464e+03 
       7.644928796912e-02       9.311675017631e+03 
       7.954353299775e-02       8.814582066055e+03 
       8.266024078725e-02       8.302202074881e+03 
       8.581273398637e-02       7.786949822619e+03 
       8.901225918437e-02       7.283259747227e+03 
       9.226860540985e-02       6.805245199397e+03 
       9.559052048996e-02       6.365646380701e+03 
       9.898599946599e-02       5.974398187591e+03 
       1.024624891378e-01       5.637379834678e+03 
       1.060270359164e-01       5.355807083940e+03 
       1.096863943056e-01       5.126261721849e+03 
       1.134471073830e-01       4.940497920227e+03 
       1.173155669539e-01       4.786193325643e+03 
       1.212980586983e-01       4.647951452209e+03 
       1.254007961065e-01       4.509169013758e+03 
       1.296299459934e-01       4.354568212773e+03 
       1.339916477160e-01       4.173233192549e+03 
       1.384920277736e-01       3.961178724514e+03 
       1.431372111762e-01       3.722686862036e+03 
       1.479333307714e-01       3.469549391419e+03 
       1.528865355934e-01       3.218338145879e+03 
       1.580029992204e-01       2.986270754065e+03 
       1.632889290723e-01       2.786959517495e+03 
       1.687505775527e-01       2.626823488341e+03 
       1.743942559171e-01       2.503772037876e+03 
       1.802263517371e-01       2.407321925805e+03 
       1.862533508214e-01       2.322230899679e+03 
       1.924818644494e-01       2.231534626280e+03 
       1.989186627765e-01       2.122173072274e+03 
       2.055707152847e-01       1.992020449408e+03 
       2.124452391818e-01       1.850323436728e+03 
       2.195497567139e-01       1.712158780277e+03 
       2.268921624510e-01       1.590974333263e+03 
       2.344808017550e-01       1.493655693767e+03 
       2.423245618548e-01       1.418311366357e+03 
       2.504329772620e-01       1.354458188759e+03 
       2.588163516754e-01       1.288938749881e+03 
       2.674858990930e-01       1.213929988704e+03 
       2.764539076010e-01       1.130696892760e+03 
       2.857339303080e-01       1.048090142027e+03 
       2.953410092148e-01       9.761705808527e+02 
       3.052919395542e-01       9.178006222925e+02 
       3.156055844677e-01       8.678888289749e+02 
       3.263032530092e-01       8.185063974986e+02 
       3.374091587054e-01       7.651416265087e+02 
       3.489509817175e-01       7.106672760931e+02 
       3.609605657343e-01       6.607783754347e+02 
       3.734747921333e-01       6.180807611862e+02 
       3.865366902904e-01       5.793078645020e+02 
       4.001968667448e-01       5.403847069727e+02 
       4.145153713076e-01       5.011463625150e+02 
       4.295641718077e-01       4.644950284799e+02 
       4.454304922144e-01       4.314048987422e+02 
       4.622214006969e-01       4.001076970145e+02 
       4.800702491654e-01       3.690844476353e+02 
       4.991459272112e-01       3.394709028725e+02 
       5.196665217302e-01       3.119802792716e+02 
       5.419201087032e-01       2.852422606210e+02 
       5.662975451962e-01       2.593268348336e+02 
       5.933463737275e-01       2.345443449464e+02 
       6.238638458458e-01       2.102287285064e+02 
       6.590669257916e-01       1.864320732665e+02 
       7.009246080454e-01       1.627241209503e+02 
       7.528593308799e-01       1.388169921780e+02 
       8.213469537518e-01       1.141878018888e+02 
       9.196980813302e-01       8.835839316585e+01 
       1.075112183810e+00       6.172565780431e+01 
       1.322697471132e+00       3.804284772620e+01 
       1.662328205042e+00       2.209784178618e+01 
       2.092692408506e+00       1.266900032108e+01 
       2.634543445090e+00       7.203208575617e+00 
       3.316693691389e+00       4.065012239184e+00 
       4.175469971226e+00       2.278508320476e+00 
       5.256605252960e+00       1.269249668974e+00 
       6.617673932723e+00       7.030413234665e-01 
       8.331157880872e+00       3.873698965307e-01 
       1.048830636590e+01       2.123882122408e-01 
       1.320399541071e+01       1.158990571371e-01 
       1.662284535976e+01       6.294513533313e-02 
       2.092692243973e+01       3.400537217388e-02 
       2.634543445002e+01       1.824990271271e-02 
       3.316693691389e+01       9.700190920386e-03 
       4.175469971226e+01       5.073743157035e-03 
       5.256605252960e+01       2.577979190857e-03 
       6.617673932723e+01       1.240020260782e-03 
