# Matter power spectrum P(k) at redshift z=0
# for k=1.04775e-05 to 66.1767 h/Mpc,
# number of wavenumbers equal to 130
#    1:k (h/Mpc)              2:P (Mpc/h)^3        
       1.047750691046e-05       5.020964811307e+01 
       1.319039970183e-05       6.270562594778e+01 
       1.660572937635e-05       7.831147247912e+01 
       2.090537469327e-05       9.780108069297e+01 
       2.631830744443e-05       1.221408203809e+02 
       3.313278603720e-05       1.525374501932e+02 
       4.171170630578e-05       1.904975994010e+02 
       5.251192703764e-05       2.379022224249e+02 
       6.610859936996e-05       2.970989227881e+02 
       8.322579568497e-05       3.710167318946e+02 
       1.047750691046e-04       4.633080766742e+02 
       1.319039970183e-04       5.785234129338e+02 
       1.660572937635e-04       7.223242666092e+02 
       2.090537469327e-04       9.017396271824e+02 
       2.631830744443e-04       1.125468123750e+03 
       3.313278603720e-04       1.404223053681e+03 
       4.171170630578e-04       1.751108028790e+03 
       5.251192703764e-04       2.181998448133e+03 
       6.610859936996e-04       2.715889983593e+03 
       8.322579568497e-04       3.375152337134e+03 
       1.047750691046e-03       4.185552174309e+03 
       1.319039970183e-03       5.175742743426e+03 
       1.660572937635e-03       6.376123051780e+03 
       2.090537469327e-03       7.815671905133e+03 
       2.631830744443e-03       9.517783069112e+03 
       3.313278603720e-03       1.149357460344e+04 
       4.171170630578e-03       1.373266011082e+04 
       5.251192703764e-03       1.619063614561e+04 
       6.610859936996e-03       1.877460424292e+04 
       8.322579568497e-03       2.132606929223e+04 
       1.047750691046e-02       2.360547523449e+04 
       1.319039970183e-02       2.528218678568e+04 
       1.660572937633e-02       2.595028037051e+04 
       2.090537453514e-02       2.520934407089e+04 
       2.631818545635e-02       2.287034142277e+04 
       3.311571692125e-02       1.928624253708e+04 
       4.113809243311e-02       1.568426435431e+04 
       4.792590854610e-02       1.361063457507e+04 
       5.284436902701e-02       1.259129541703e+04 
       5.689644391095e-02       1.195557039072e+04 
       6.051252627066e-02       1.147549206027e+04 
       6.388413457411e-02       1.105589710872e+04 
       6.711249296401e-02       1.064902513011e+04 
       7.025823437965e-02       1.022928813406e+04 
       7.336115587705e-02       9.784543090724e+03 
       7.644928796912e-02       9.311672986808e+03 
       7.954353299775e-02       8.814514742171e+03 
       8.266024078725e-02       8.302115656995e+03 
       8.581273398637e-02       7.786953994589e+03 
       8.901225918437e-02       7.283167409071e+03 
       9.226860540985e-02       6.805159440066e+03 
       9.559052048996e-02       6.365652513407e+03 
       9.898599946599e-02       5.974410220958e+03 
       1.024624891378e-01       5.637341927989e+03 
       1.060270359164e-01       5.355773600065e+03 
       1.096863943056e-01       5.126239329801e+03 
       1.134471073830e-01       4.940488037593e+03 
       1.173155669539e-01       4.786159353230e+03 
       1.212980586983e-01       4.647942226499e+03 
       1.254007961065e-01       4.509156325335e+03 
       1.296299459934e-01       4.354563426724e+03 
       1.339916477160e-01       4.173219653493e+03 
       1.384920277736e-01       3.961166995133e+03 
       1.431372111762e-01       3.722682409151e+03 
       1.479333307714e-01       3.469555369529e+03 
       1.528865355934e-01       3.218338717441e+03 
       1.580029992204e-01       2.986293837749e+03 
       1.632889290723e-01       2.786966698353e+03 
       1.687505775527e-01       2.626835029678e+03 
       1.743942559171e-01       2.503762225346e+03 
       1.802263517371e-01       2.407341411736e+03 
       1.862533508214e-01       2.322254822271e+03 
       1.924818644494e-01       2.231556113716e+03 
       1.989186627765e-01       2.122187879597e+03 
       2.055707152847e-01       1.992026937754e+03 
       2.124452391818e-01       1.850325830399e+03 
       2.195497567139e-01       1.712184787148e+03 
       2.268921624510e-01       1.590991597269e+03 
       2.344808017550e-01       1.493671498116e+03 
       2.423245618548e-01       1.418310571684e+03 
       2.504329772620e-01       1.354465432725e+03 
       2.588163516754e-01       1.288933159696e+03 
       2.674858990930e-01       1.213936181280e+03 
       2.764539076010e-01       1.130694934545e+03 
       2.857339303080e-01       1.048097779985e+03 
       2.953410092148e-01       9.761833505822e+02 
       3.052919395542e-01       9.178103265541e+02 
       3.156055844677e-01       8.678992427816e+02 
       3.263032530092e-01       8.185248356199e+02 
       3.374091587054e-01       7.651496873420e+02 
       3.489509817175e-01       7.106693672484e+02 
       3.609605657343e-01       6.607874005296e+02 
       3.734747921333e-01       6.180867807268e+02 
       3.865366902904e-01       5.793119665328e+02 
       4.001968667448e-01       5.403902266393e+02 
       4.145153713076e-01       5.011512646686e+02 
       4.295641718077e-01       4.644992173280e+02 
       4.454304922144e-01       4.314090474034e+02 
       4.622214006969e-01       4.001146329676e+02 
       4.800702491654e-01       3.690896896665e+02 
       4.991459272112e-01       3.394761618886e+02 
       5.196665217302e-01       3.119861506695e+02 
       5.419201087032e-01       2.852476733162e+02 
       5.662975451962e-01       2.593304472234e+02 
       5.933463737275e-01       2.345483973936e+02 
       6.238638458458e-01       2.102307226983e+02 
       6.590669257916e-01       1.864337437025e+02 
       7.009246080454e-01       1.627253123941e+02 
       7.528593308799e-01       1.388183125988e+02 
       8.213469537518e-01       1.141882160998e+02 
       9.196980813302e-01       8.835934095169e+01 
       1.075112183810e+00       6.172619992486e+01 
       1.322697471132e+00       3.804277063544e+01 
       1.662328205042e+00       2.209794467027e+01 
       2.092692408506e+00       1.266927268581e+01 
       2.634543445090e+00       7.203354507910e+00 
       3.316693691389e+00       4.065161524014e+00 
       4.175469971226e+00       2.278619834830e+00 
       5.256605252960e+00       1.269354946928e+00 
       6.617673932723e+00       7.031384885174e-01 
       8.331157880872e+00       3.874789370935e-01 
       1.048830636590e+01       2.125108666009e-01 
       1.320399541071e+01       1.160370960584e-01 
       1.662284535976e+01       6.309954954658e-02 
       2.092692243973e+01       3.417994475451e-02 
       2.634543445002e+01       1.844627271397e-02 
       3.316693691389e+01       9.919303338155e-03 
       4.175469971226e+01       5.314644528966e-03 
       5.256605252960e+01       2.836684445749e-03 
       6.617673932723e+01       1.507672962509e-03 
