# Matter power spectrum P(k) at redshift z=0
# for k=1.04775e-05 to 67.6233 h/Mpc,
# number of wavenumbers equal to 246
#    1:k (h/Mpc)              2:P (Mpc/h)^3        
       1.047750691046e-05       5.020964811306e+01 
       1.131335172503e-05       5.407050701925e+01 
       1.221587619537e-05       5.822819068727e+01 
       1.319039970183e-05       6.270562594786e+01 
       1.424266597921e-05       6.752732240880e+01 
       1.537887696968e-05       7.271977206173e+01 
       1.660572937635e-05       7.831147247912e+01 
       1.793045413292e-05       8.433311821988e+01 
       1.936085902198e-05       9.081778249833e+01 
       2.090537469327e-05       9.780108069295e+01 
       2.257310435294e-05       1.053213197893e+02 
       2.437387741694e-05       1.134197377890e+02 
       2.631830744443e-05       1.221408203809e+02 
       2.841785469300e-05       1.315324642459e+02 
       3.068489366414e-05       1.416462094880e+02 
       3.313278603720e-05       1.525374501932e+02 
       3.577595942169e-05       1.642660688414e+02 
       3.862999239199e-05       1.768963506307e+02 
       4.171170630578e-05       1.904975994010e+02 
       4.503926444729e-05       2.051444491973e+02 
       4.863227907969e-05       2.209171465549e+02 
       5.251192703764e-05       2.379022224249e+02 
       5.670107454120e-05       2.561927927616e+02 
       6.122441196689e-05       2.758890444041e+02 
       6.610859936996e-05       2.970989227882e+02 
       7.138242361596e-05       3.199385560802e+02 
       7.707696804727e-05       3.445329783680e+02 
       8.322579568497e-05       3.710167318945e+02 
       8.986514704559e-05       3.995346444203e+02 
       9.703415373875e-05       4.302425407383e+02 
       1.047750691046e-04       4.633080766742e+02 
       1.131335172503e-04       4.989116271564e+02 
       1.221587619537e-04       5.372471950930e+02 
       1.319039970183e-04       5.785234129332e+02 
       1.424266597921e-04       6.229645936045e+02 
       1.537887696968e-04       6.708118490405e+02 
       1.660572937635e-04       7.223242666092e+02 
       1.793045413292e-04       7.777801559231e+02 
       1.936085902198e-04       8.374783614140e+02 
       2.090537469327e-04       9.017396271824e+02 
       2.257310435294e-04       9.709080268041e+02 
       2.437387741694e-04       1.045352449493e+03 
       2.631830744443e-04       1.125468123750e+03 
       2.841785469300e-04       1.211678180495e+03 
       3.068489366414e-04       1.304435250150e+03 
       3.313278603720e-04       1.404223053681e+03 
       3.577595942169e-04       1.511558014616e+03 
       3.862999239199e-04       1.626990837780e+03 
       4.171170630578e-04       1.751108028790e+03 
       4.503926444729e-04       1.884533382871e+03 
       4.863227907969e-04       2.027929378112e+03 
       5.251192703764e-04       2.181998448133e+03 
       5.670107454121e-04       2.347484102755e+03 
       6.122441196689e-04       2.525171871365e+03 
       6.610859936996e-04       2.715889983593e+03 
       7.138242361596e-04       2.920509688384e+03 
       7.707696804727e-04       3.139945100279e+03 
       8.322579568497e-04       3.375152337580e+03 
       8.986514704559e-04       3.627127831140e+03 
       9.703415373875e-04       3.896905453136e+03 
       1.047750691046e-03       4.185552174301e+03 
       1.131335172503e-03       4.494162430373e+03 
       1.221587619537e-03       4.823850706488e+03 
       1.319039970183e-03       5.175742743356e+03 
       1.424266597921e-03       5.551019596898e+03 
       1.537887696968e-03       5.950788340550e+03 
       1.660572937635e-03       6.376123051792e+03 
       1.793045413292e-03       6.828073901451e+03 
       1.936085902198e-03       7.307625381066e+03 
       2.090537469327e-03       7.815671915167e+03 
       2.257310435294e-03       8.352990375816e+03 
       2.437387741694e-03       8.920211064341e+03 
       2.631830744443e-03       9.517783069112e+03 
       2.841785469300e-03       1.014593704435e+04 
       3.068489366414e-03       1.080464502790e+04 
       3.313278603720e-03       1.149357460345e+04 
       3.577595942169e-03       1.221203621722e+04 
       3.862999239199e-03       1.295892539446e+04 
       4.171170630578e-03       1.373266014028e+04 
       4.503926444729e-03       1.453111835625e+04 
       4.863227907969e-03       1.535154985300e+04 
       5.251192703764e-03       1.619063614558e+04 
       5.670107454120e-03       1.704431257740e+04 
       6.122441196689e-03       1.790755939653e+04 
       6.610859936996e-03       1.877460419701e+04 
       7.138242361596e-03       1.963872430355e+04 
       7.707696804727e-03       2.049215714700e+04 
       8.322579568496e-03       2.132606790365e+04 
       8.986514704559e-03       2.213055152258e+04 
       9.703415373875e-03       2.289445472139e+04 
       1.047750691046e-02       2.360548687176e+04 
       1.131335172503e-02       2.425022858120e+04 
       1.221587619537e-02       2.481423922501e+04 
       1.319039970183e-02       2.528218807338e+04 
       1.424266597920e-02       2.563814462517e+04 
       1.537887696964e-02       2.586607314557e+04 
       1.660572937560e-02       2.595026545222e+04 
       1.793045412207e-02       2.587635549080e+04 
       1.936085889642e-02       2.563220496032e+04 
       2.090537351881e-02       2.520935038698e+04 
       2.257309534705e-02       2.460446710139e+04 
       2.437382002240e-02       2.382090092631e+04 
       2.631799943729e-02       2.287050406059e+04 
       2.841644544598e-02       2.177453829407e+04 
       3.067933354524e-02       2.056553271012e+04 
       3.311368469821e-02       1.928726452675e+04 
       3.571840442514e-02       1.799402141722e+04 
       3.847720347390e-02       1.674682147092e+04 
       4.135335537314e-02       1.560462281691e+04 
       4.429361666563e-02       1.461042782306e+04 
       4.724366437916e-02       1.378054163205e+04 
       5.016480834039e-02       1.310508797423e+04 
       5.303989618930e-02       1.255717352579e+04 
       5.586870668205e-02       1.210425988132e+04 
       5.866042679206e-02       1.171465323221e+04 
       6.142798931504e-02       1.136047996361e+04 
       6.418496438662e-02       1.101858821177e+04 
       6.694418832236e-02       1.067070100361e+04 
       6.971731104453e-02       1.030358239008e+04 
       7.251476154108e-02       9.908995669261e+03 
       7.534587669814e-02       9.483783958737e+03 
       7.821907664495e-02       9.029502150162e+03 
       8.114203771084e-02       8.552322280289e+03 
       8.412184533139e-02       8.061965375150e+03 
       8.716512277352e-02       7.570772919089e+03 
       9.027813693913e-02       7.092495583428e+03 
       9.346688429613e-02       6.640516847935e+03 
       9.673716026122e-02       6.226696370871e+03 
       1.000946150608e-01       5.859931099587e+03 
       1.035447986307e-01       5.545251669977e+03 
       1.070931966524e-01       5.283123554816e+03 
       1.107452594180e-01       5.069416153490e+03 
       1.145064248899e-01       4.895241734065e+03 
       1.183821370656e-01       4.747844645865e+03 
       1.223778605591e-01       4.611743279900e+03 
       1.264990921707e-01       4.470627293515e+03 
       1.307513701078e-01       4.310281842539e+03 
       1.351402814485e-01       4.121391515425e+03 
       1.396714683894e-01       3.902072499514e+03 
       1.443506337875e-01       3.658637530101e+03 
       1.491835464900e-01       3.404480239668e+03 
       1.541760469368e-01       3.156663064415e+03 
       1.593340535209e-01       2.931979268755e+03 
       1.646635701934e-01       2.742366864340e+03 
       1.701706958081e-01       2.592261009197e+03 
       1.758616357070e-01       2.477241101746e+03 
       1.817427160581e-01       2.385183133357e+03 
       1.878204014651e-01       2.300361647822e+03 
       1.941013163855e-01       2.205762642395e+03 
       2.005922709060e-01       2.090812430289e+03 
       2.073002914514e-01       1.956470989548e+03 
       2.142326570343e-01       1.814193261557e+03 
       2.213969417044e-01       1.679295201456e+03 
       2.288010639201e-01       1.563844943322e+03 
       2.364533436625e-01       1.472685715945e+03 
       2.443625682390e-01       1.401510742410e+03 
       2.525380678946e-01       1.338416095623e+03 
       2.609898025770e-01       1.270902551402e+03 
       2.697284614969e-01       1.193382070431e+03 
       2.787655775073e-01       1.109339096619e+03 
       2.881136588192e-01       1.028772361543e+03 
       2.977863412019e-01       9.604809750750e+02 
       3.077985646248e-01       9.050249814323e+02 
       3.181667793367e-01       8.561446069758e+02 
       3.289091877084e-01       8.061889912479e+02 
       3.400460298905e-01       7.523920582083e+02 
       3.515999235695e-01       6.989241942125e+02 
       3.635962710278e-01       6.510641346772e+02 
       3.760637505499e-01       6.101242338750e+02 
       3.890349143014e-01       5.721326858211e+02 
       4.025469215929e-01       5.337833242188e+02 
       4.166424455447e-01       4.956336218897e+02 
       4.313708034899e-01       4.604691465514e+02 
       4.467893781976e-01       4.287790285661e+02 
       4.629654198623e-01       3.987736113722e+02 
       4.799783500912e-01       3.692424925486e+02 
       4.979227318246e-01       3.412399459667e+02 
       5.169121269689e-01       3.154838297883e+02 
       5.370841403262e-01       2.908364845258e+02 
       5.586070463286e-01       2.671068214281e+02 
       5.816885093582e-01       2.448099217796e+02 
       6.065870143577e-01       2.235676762665e+02 
       6.336266466978e-01       2.032110378013e+02 
       6.632156057925e-01       1.838788698774e+02 
       6.958678637575e-01       1.653555266733e+02 
       7.322247983784e-01       1.476953056132e+02 
       7.730680193171e-01       1.308341895783e+02 
       8.193049551574e-01       1.148317909728e+02 
       8.718988013754e-01       9.976254025374e+01 
       9.317218028590e-01       8.577801763398e+01 
       9.993660906273e-01       7.305508720369e+01 
       1.075037109879e+00       6.173626540699e+01 
       1.158653485387e+00       5.187935818330e+01 
       1.250099156961e+00       4.344036448930e+01 
       1.349432400897e+00       3.628945724338e+01 
       1.456947456991e+00       3.026789918412e+01 
       1.573135110893e+00       2.521460918254e+01 
       1.698621895119e+00       2.098211326735e+01 
       1.834127512423e+00       1.744234439661e+01 
       1.980444933977e+00       1.448570727410e+01 
       2.138435191130e+00       1.201897683836e+01 
       2.309029198543e+00       9.963189265219e+00 
       2.493232376993e+00       8.251874929225e+00 
       2.692130394536e+00       6.828612637541e+00 
       2.906895533764e+00       5.646248707266e+00 
       3.138793596840e+00       4.664889675803e+00 
       3.389191365541e+00       3.851119688944e+00 
       3.659564656886e+00       3.176967277626e+00 
       3.951507021438e+00       2.618886182379e+00 
       4.266739135513e+00       2.157342228647e+00 
       4.607118942658e+00       1.775940800097e+00 
       4.974652604172e+00       1.460996630494e+00 
       5.371506323193e+00       1.201126021904e+00 
       5.800019112071e+00       9.868832624849e-01 
       6.262716578240e+00       8.103516966532e-01 
       6.762325809881e+00       6.650126546129e-01 
       7.301791449077e+00       5.454238416152e-01 
       7.884293047211e+00       4.471012387617e-01 
       8.513263804891e+00       3.662978470047e-01 
       9.192410806865e+00       2.999414147497e-01 
       9.925736871166e+00       2.454809144226e-01 
       1.071756414128e+01       2.008075115491e-01 
       1.157255956041e+01       1.641845777924e-01 
       1.249576237789e+01       1.341772663884e-01 
       1.349261385000e+01       1.096028467423e-01 
       1.456898931011e+01       8.948910062467e-02 
       1.573123279727e+01       7.303388821480e-02 
       1.698619444729e+01       5.957828173113e-02 
       1.834127086665e+01       4.858101142822e-02 
       1.980444872733e+01       3.959725650222e-02 
       2.138435183937e+01       3.226102928302e-02 
       2.309029197863e+01       2.627365514247e-02 
       2.493232376942e+01       2.138857955243e-02 
       2.692130394533e+01       1.740481591058e-02 
       2.906895533764e+01       1.415743521110e-02 
       3.138793596840e+01       1.151134864645e-02 
       3.389191365541e+01       9.356104553912e-03 
       3.659564656886e+01       7.601273396517e-03 
       3.951507021438e+01       6.173151896612e-03 
       4.266739135513e+01       5.011099210687e-03 
       4.607118942658e+01       4.066200264095e-03 
       4.974652604172e+01       3.298008037857e-03 
       5.371506323193e+01       2.673731172162e-03 
       5.800019112071e+01       2.166567887354e-03 
       6.262716578240e+01       1.754723647532e-03 
       6.762325809881e+01       1.420444090295e-03 
