# Matter power spectrum P(k) at redshift z=0
# for k=1.04775e-05 to 66.1767 h/Mpc,
# number of wavenumbers equal to 130
#    1:k (h/Mpc)              2:P (Mpc/h)^3        
       1.047750691046e-05       5.020964811308e+01 
       1.319039970183e-05       6.270562594777e+01 
       1.660572937635e-05       7.831147247912e+01 
       2.090537469327e-05       9.780108069294e+01 
       2.631830744443e-05       1.221408203809e+02 
       3.313278603720e-05       1.525374501932e+02 
       4.171170630578e-05       1.904975994010e+02 
       5.251192703764e-05       2.379022224249e+02 
       6.610859936996e-05       2.970989227881e+02 
       8.322579568497e-05       3.710167318946e+02 
       1.047750691046e-04       4.633080766742e+02 
       1.319039970183e-04       5.785234129337e+02 
       1.660572937635e-04       7.223242666092e+02 
       2.090537469327e-04       9.017396271824e+02 
       2.631830744443e-04       1.125468123749e+03 
       3.313278603720e-04       1.404223053681e+03 
       4.171170630578e-04       1.751108028790e+03 
       5.251192703764e-04       2.181998448133e+03 
       6.610859936996e-04       2.715889983593e+03 
       8.322579568497e-04       3.375152337134e+03 
       1.047750691046e-03       4.185552174306e+03 
       1.319039970183e-03       5.175742739737e+03 
       1.660572937635e-03       6.376123051782e+03 
       2.090537469327e-03       7.815671859117e+03 
       2.631830744443e-03       9.517783069112e+03 
       3.313278603720e-03       1.149357460345e+04 
       4.171170630578e-03       1.373266011924e+04 
       5.251192703764e-03       1.619063614560e+04 
       6.610859936996e-03       1.877460426108e+04 
       8.322579568497e-03       2.132607231805e+04 
       1.047750691046e-02       2.360548188723e+04 
       1.319039970183e-02       2.528218646092e+04 
       1.660572937633e-02       2.595027625558e+04 
       2.090537453514e-02       2.520935362738e+04 
       2.631818545635e-02       2.287034337533e+04 
       3.311571692125e-02       1.928623141035e+04 
       4.113809243311e-02       1.568427419029e+04 
       4.792590854610e-02       1.361063683292e+04 
       5.284436902701e-02       1.259130416065e+04 
       5.689644391095e-02       1.195555088755e+04 
       6.051252627066e-02       1.147548220531e+04 
       6.388413457411e-02       1.105591132945e+04 
       6.711249296401e-02       1.064899975692e+04 
       7.025823437965e-02       1.022929318632e+04 
       7.336115587705e-02       9.784523563655e+03 
       7.644928796912e-02       9.311682417831e+03 
       7.954353299775e-02       8.814527871307e+03 
       8.266024078725e-02       8.302133636118e+03 
       8.581273398637e-02       7.786962289666e+03 
       8.901225918437e-02       7.283164708865e+03 
       9.226860540985e-02       6.805161863741e+03 
       9.559052048996e-02       6.365624156327e+03 
       9.898599946599e-02       5.974385316087e+03 
       1.024624891378e-01       5.637314537445e+03 
       1.060270359164e-01       5.355783932627e+03 
       1.096863943056e-01       5.126237230596e+03 
       1.134471073830e-01       4.940481460624e+03 
       1.173155669539e-01       4.786163704850e+03 
       1.212980586983e-01       4.647935016139e+03 
       1.254007961065e-01       4.509137061936e+03 
       1.296299459934e-01       4.354548793011e+03 
       1.339916477160e-01       4.173216475814e+03 
       1.384920277736e-01       3.961165907394e+03 
       1.431372111762e-01       3.722683957999e+03 
       1.479333307714e-01       3.469549882587e+03 
       1.528865355934e-01       3.218343047435e+03 
       1.580029992204e-01       2.986296574815e+03 
       1.632889290723e-01       2.786968980766e+03 
       1.687505775527e-01       2.626826726086e+03 
       1.743942559171e-01       2.503752837799e+03 
       1.802263517371e-01       2.407347185866e+03 
       1.862533508214e-01       2.322249007131e+03 
       1.924818644494e-01       2.231550812562e+03 
       1.989186627765e-01       2.122190402089e+03 
       2.055707152847e-01       1.992020519161e+03 
       2.124452391818e-01       1.850327093882e+03 
       2.195497567139e-01       1.712186838389e+03 
       2.268921624510e-01       1.590989493698e+03 
       2.344808017550e-01       1.493670397982e+03 
       2.423245618548e-01       1.418313188780e+03 
       2.504329772620e-01       1.354466762880e+03 
       2.588163516754e-01       1.288934899893e+03 
       2.674858990930e-01       1.213936160039e+03 
       2.764539076010e-01       1.130692212073e+03 
       2.857339303080e-01       1.048098839715e+03 
       2.953410092148e-01       9.761834387903e+02 
       3.052919395542e-01       9.178109577651e+02 
       3.156055844677e-01       8.678993591541e+02 
       3.263032530092e-01       8.185254795679e+02 
       3.374091587054e-01       7.651452262850e+02 
       3.489509817175e-01       7.106714584951e+02 
       3.609605657343e-01       6.607844437055e+02 
       3.734747921333e-01       6.180846521935e+02 
       3.865366902904e-01       5.793106572460e+02 
       4.001968667448e-01       5.403913892418e+02 
       4.145153713076e-01       5.011519301204e+02 
       4.295641718077e-01       4.644982645405e+02 
       4.454304922144e-01       4.314081182736e+02 
       4.622214006969e-01       4.001139918350e+02 
       4.800702491654e-01       3.690885196701e+02 
       4.991459272112e-01       3.394763611110e+02 
       5.196665217302e-01       3.119848798059e+02 
       5.419201087032e-01       2.852473049965e+02 
       5.662975451962e-01       2.593310011726e+02 
       5.933463737275e-01       2.345479358067e+02 
       6.238638458458e-01       2.102308143228e+02 
       6.590669257916e-01       1.864343239767e+02 
       7.009246080454e-01       1.627256837510e+02 
       7.528593308799e-01       1.388183224270e+02 
       8.213469537518e-01       1.141879029752e+02 
       9.196980813302e-01       8.835907033062e+01 
       1.075112183810e+00       6.172637445930e+01 
       1.322697471132e+00       3.804287779793e+01 
       1.662328205042e+00       2.209797736361e+01 
       2.092692408506e+00       1.266924869929e+01 
       2.634543445090e+00       7.203343711956e+00 
       3.316693691389e+00       4.065160569410e+00 
       4.175469971226e+00       2.278606399335e+00 
       5.256605252960e+00       1.269346914572e+00 
       6.617673932723e+00       7.031361071765e-01 
       8.331157880872e+00       3.874737391165e-01 
       1.048830636590e+01       2.125094123097e-01 
       1.320399541071e+01       1.160375469539e-01 
       1.662284535976e+01       6.309904527142e-02 
       2.092692243973e+01       3.417959267796e-02 
       2.634543445002e+01       1.844594707718e-02 
       3.316693691389e+01       9.919141173299e-03 
       4.175469971226e+01       5.314517947876e-03 
       5.256605252960e+01       2.836594556140e-03 
       6.617673932723e+01       1.507575992037e-03 
