# Matter power spectrum P(k) at redshift z=0
# for k=1.04775e-05 to 66.1767 h/Mpc,
# number of wavenumbers equal to 130
#    1:k (h/Mpc)              2:P (Mpc/h)^3        
       1.047750691046e-05       5.020964811312e+01 
       1.319039970183e-05       6.270562594785e+01 
       1.660572937635e-05       7.831147247912e+01 
       2.090537469327e-05       9.780108069294e+01 
       2.631830744443e-05       1.221408203809e+02 
       3.313278603720e-05       1.525374501932e+02 
       4.171170630578e-05       1.904975994009e+02 
       5.251192703764e-05       2.379022224249e+02 
       6.610859936996e-05       2.970989227882e+02 
       8.322579568497e-05       3.710167318946e+02 
       1.047750691046e-04       4.633080766742e+02 
       1.319039970183e-04       5.785234129331e+02 
       1.660572937635e-04       7.223242666092e+02 
       2.090537469327e-04       9.017396271824e+02 
       2.631830744443e-04       1.125468123750e+03 
       3.313278603720e-04       1.404223053681e+03 
       4.171170630578e-04       1.751108028789e+03 
       5.251192703764e-04       2.181998448133e+03 
       6.610859936996e-04       2.715889983592e+03 
       8.322579568497e-04       3.375152337134e+03 
       1.047750691046e-03       4.185552174307e+03 
       1.319039970183e-03       5.175742739531e+03 
       1.660572937635e-03       6.376123051777e+03 
       2.090537469327e-03       7.815671868446e+03 
       2.631830744443e-03       9.517783069112e+03 
       3.313278603720e-03       1.149357460346e+04 
       4.171170630578e-03       1.373265988990e+04 
       5.251192703764e-03       1.619063614560e+04 
       6.610859936996e-03       1.877460422027e+04 
       8.322579568497e-03       2.132607231916e+04 
       1.047750691046e-02       2.360548163891e+04 
       1.319039970183e-02       2.528218610229e+04 
       1.660572937633e-02       2.595027240431e+04 
       2.090537453514e-02       2.520935693382e+04 
       2.631818545635e-02       2.287034222962e+04 
       3.311571692125e-02       1.928621432960e+04 
       4.113809243311e-02       1.568428233372e+04 
       4.792590854610e-02       1.361065509176e+04 
       5.284436902701e-02       1.259131037480e+04 
       5.689644391095e-02       1.195556691134e+04 
       6.051252627066e-02       1.147547202171e+04 
       6.388413457411e-02       1.105589471046e+04 
       6.711249296401e-02       1.064900180312e+04 
       7.025823437965e-02       1.022929354003e+04 
       7.336115587705e-02       9.784529883062e+03 
       7.644928796912e-02       9.311652011725e+03 
       7.954353299775e-02       8.814533162885e+03 
       8.266024078725e-02       8.302106883815e+03 
       8.581273398637e-02       7.786951510138e+03 
       8.901225918437e-02       7.283182916539e+03 
       9.226860540985e-02       6.805168304089e+03 
       9.559052048996e-02       6.365632711354e+03 
       9.898599946599e-02       5.974394657378e+03 
       1.024624891378e-01       5.637321742192e+03 
       1.060270359164e-01       5.355764719542e+03 
       1.096863943056e-01       5.126242015952e+03 
       1.134471073830e-01       4.940477016989e+03 
       1.173155669539e-01       4.786160433348e+03 
       1.212980586983e-01       4.647944544959e+03 
       1.254007961065e-01       4.509150533914e+03 
       1.296299459934e-01       4.354561522862e+03 
       1.339916477160e-01       4.173217105631e+03 
       1.384920277736e-01       3.961163535851e+03 
       1.431372111762e-01       3.722680515662e+03 
       1.479333307714e-01       3.469561316620e+03 
       1.528865355934e-01       3.218343790476e+03 
       1.580029992204e-01       2.986292073867e+03 
       1.632889290723e-01       2.786965754332e+03 
       1.687505775527e-01       2.626827635003e+03 
       1.743942559171e-01       2.503757429600e+03 
       1.802263517371e-01       2.407345748947e+03 
       1.862533508214e-01       2.322252291834e+03 
       1.924818644494e-01       2.231553129220e+03 
       1.989186627765e-01       2.122190112932e+03 
       2.055707152847e-01       1.992028150990e+03 
       2.124452391818e-01       1.850323689773e+03 
       2.195497567139e-01       1.712187189417e+03 
       2.268921624510e-01       1.590991241410e+03 
       2.344808017550e-01       1.493666585464e+03 
       2.423245618548e-01       1.418305790643e+03 
       2.504329772620e-01       1.354467818898e+03 
       2.588163516754e-01       1.288932564316e+03 
       2.674858990930e-01       1.213939656139e+03 
       2.764539076010e-01       1.130694734183e+03 
       2.857339303080e-01       1.048100888806e+03 
       2.953410092148e-01       9.761843820647e+02 
       3.052919395542e-01       9.178093455373e+02 
       3.156055844677e-01       8.678996480982e+02 
       3.263032530092e-01       8.185249342084e+02 
       3.374091587054e-01       7.651474887932e+02 
       3.489509817175e-01       7.106700131488e+02 
       3.609605657343e-01       6.607859572172e+02 
       3.734747921333e-01       6.180855871458e+02 
       3.865366902904e-01       5.793108898205e+02 
       4.001968667448e-01       5.403924166493e+02 
       4.145153713076e-01       5.011525040803e+02 
       4.295641718077e-01       4.644996561996e+02 
       4.454304922144e-01       4.314098740904e+02 
       4.622214006969e-01       4.001152426807e+02 
       4.800702491654e-01       3.690896195620e+02 
       4.991459272112e-01       3.394761827447e+02 
       5.196665217302e-01       3.119858933008e+02 
       5.419201087032e-01       2.852465556546e+02 
       5.662975451962e-01       2.593304826885e+02 
       5.933463737275e-01       2.345488710500e+02 
       6.238638458458e-01       2.102304032409e+02 
       6.590669257916e-01       1.864336420471e+02 
       7.009246080454e-01       1.627247152845e+02 
       7.528593308799e-01       1.388180010536e+02 
       8.213469537518e-01       1.141881445711e+02 
       9.196980813302e-01       8.835946785416e+01 
       1.075112183810e+00       6.172595113244e+01 
       1.322697471132e+00       3.804254035142e+01 
       1.662328205042e+00       2.209801664574e+01 
       2.092692408506e+00       1.266923100487e+01 
       2.634543445090e+00       7.203372178003e+00 
       3.316693691389e+00       4.065145055733e+00 
       4.175469971226e+00       2.278619488157e+00 
       5.256605252960e+00       1.269364129794e+00 
       6.617673932723e+00       7.031422582704e-01 
       8.331157880872e+00       3.874778297713e-01 
       1.048830636590e+01       2.125120602218e-01 
       1.320399541071e+01       1.160374534827e-01 
       1.662284535976e+01       6.309916749456e-02 
       2.092692243973e+01       3.417994771698e-02 
       2.634543445002e+01       1.844613167871e-02 
       3.316693691389e+01       9.919299915384e-03 
       4.175469971226e+01       5.314585421883e-03 
       5.256605252960e+01       2.836716029006e-03 
       6.617673932723e+01       1.507715226175e-03 
