# Matter power spectrum P(k) at redshift z=0
# for k=1.04775e-05 to 67.6233 h/Mpc,
# number of wavenumbers equal to 246
#    1:k (h/Mpc)              2:P (Mpc/h)^3        
       1.047750691046e-05       5.020964811307e+01 
       1.131335172503e-05       5.407050701922e+01 
       1.221587619537e-05       5.822819068373e+01 
       1.319039970183e-05       6.270562594775e+01 
       1.424266597921e-05       6.752732240880e+01 
       1.537887696968e-05       7.271977206173e+01 
       1.660572937635e-05       7.831147247911e+01 
       1.793045413292e-05       8.433311821988e+01 
       1.936085902198e-05       9.081778249833e+01 
       2.090537469327e-05       9.780108069296e+01 
       2.257310435294e-05       1.053213197893e+02 
       2.437387741694e-05       1.134197377890e+02 
       2.631830744443e-05       1.221408203809e+02 
       2.841785469300e-05       1.315324642467e+02 
       3.068489366414e-05       1.416462094881e+02 
       3.313278603720e-05       1.525374501932e+02 
       3.577595942169e-05       1.642660688414e+02 
       3.862999239199e-05       1.768963506307e+02 
       4.171170630578e-05       1.904975994010e+02 
       4.503926444729e-05       2.051444491973e+02 
       4.863227907969e-05       2.209171465549e+02 
       5.251192703764e-05       2.379022224249e+02 
       5.670107454120e-05       2.561927927753e+02 
       6.122441196689e-05       2.758890444040e+02 
       6.610859936996e-05       2.970989227882e+02 
       7.138242361596e-05       3.199385560802e+02 
       7.707696804727e-05       3.445329783680e+02 
       8.322579568497e-05       3.710167318945e+02 
       8.986514704559e-05       3.995346444203e+02 
       9.703415373875e-05       4.302425407383e+02 
       1.047750691046e-04       4.633080766742e+02 
       1.131335172503e-04       4.989116271564e+02 
       1.221587619537e-04       5.372471950929e+02 
       1.319039970183e-04       5.785234129337e+02 
       1.424266597921e-04       6.229645934871e+02 
       1.537887696968e-04       6.708118490404e+02 
       1.660572937635e-04       7.223242666091e+02 
       1.793045413292e-04       7.777801558972e+02 
       1.936085902198e-04       8.374783614139e+02 
       2.090537469327e-04       9.017396271822e+02 
       2.257310435294e-04       9.709080268039e+02 
       2.437387741694e-04       1.045352449493e+03 
       2.631830744443e-04       1.125468123750e+03 
       2.841785469300e-04       1.211678180494e+03 
       3.068489366414e-04       1.304435250149e+03 
       3.313278603720e-04       1.404223053680e+03 
       3.577595942169e-04       1.511558014615e+03 
       3.862999239199e-04       1.626990837773e+03 
       4.171170630578e-04       1.751108028789e+03 
       4.503926444729e-04       1.884533382870e+03 
       4.863227907969e-04       2.027929378110e+03 
       5.251192703764e-04       2.181998448130e+03 
       5.670107454121e-04       2.347484102751e+03 
       6.122441196689e-04       2.525171871361e+03 
       6.610859936996e-04       2.715889983588e+03 
       7.138242361596e-04       2.920509688376e+03 
       7.707696804727e-04       3.139945100270e+03 
       8.322579568497e-04       3.375152337566e+03 
       8.986514704559e-04       3.627127831127e+03 
       9.703415373875e-04       3.896905453119e+03 
       1.047750691046e-03       4.185552174276e+03 
       1.131335172503e-03       4.494162430346e+03 
       1.221587619537e-03       4.823850706457e+03 
       1.319039970183e-03       5.175742744451e+03 
       1.424266597921e-03       5.551019596877e+03 
       1.537887696968e-03       5.950788340490e+03 
       1.660572937635e-03       6.376123051717e+03 
       1.793045413292e-03       6.828073901331e+03 
       1.936085902198e-03       7.307625380916e+03 
       2.090537469327e-03       7.815671865256e+03 
       2.257310435294e-03       8.352990375573e+03 
       2.437387741694e-03       8.920211064044e+03 
       2.631830744443e-03       9.517783068714e+03 
       2.841785469300e-03       1.014593704385e+04 
       3.068489366414e-03       1.080464502722e+04 
       3.313278603720e-03       1.149357460265e+04 
       3.577595942169e-03       1.221203621619e+04 
       3.862999239199e-03       1.295892539317e+04 
       4.171170630578e-03       1.373266010435e+04 
       4.503926444729e-03       1.453111835421e+04 
       4.863227907969e-03       1.535154978018e+04 
       5.251192703764e-03       1.619063571308e+04 
       5.670107454120e-03       1.704431255254e+04 
       6.122441196689e-03       1.790755964410e+04 
       6.610859936996e-03       1.877460432033e+04 
       7.138242361596e-03       1.963872507728e+04 
       7.707696804727e-03       2.049215707806e+04 
       8.322579568496e-03       2.132611368866e+04 
       8.986514704559e-03       2.213054896586e+04 
       9.703415373875e-03       2.289445689253e+04 
       1.047750691046e-02       2.360549173362e+04 
       1.131335172503e-02       2.425022194041e+04 
       1.221587619537e-02       2.481423764094e+04 
       1.319039970183e-02       2.528219770148e+04 
       1.424266597920e-02       2.563814330914e+04 
       1.537887696964e-02       2.586610557606e+04 
       1.660572937560e-02       2.595031384433e+04 
       1.793045412207e-02       2.587640522145e+04 
       1.936085889642e-02       2.563230317381e+04 
       2.090537351881e-02       2.520936787254e+04 
       2.257309534705e-02       2.460443720781e+04 
       2.437382002240e-02       2.382086313059e+04 
       2.631799943729e-02       2.287033916420e+04 
       2.841644544598e-02       2.177445198970e+04 
       3.067933354524e-02       2.056551358454e+04 
       3.311368469821e-02       1.928722790239e+04 
       3.571840442514e-02       1.799390027938e+04 
       3.847720347390e-02       1.674669531703e+04 
       4.135335537314e-02       1.560451795479e+04 
       4.429361666563e-02       1.461037410197e+04 
       4.724366437916e-02       1.378044109064e+04 
       5.016480834039e-02       1.310498477305e+04 
       5.303989618930e-02       1.255715565630e+04 
       5.586870668205e-02       1.210426268962e+04 
       5.866042679206e-02       1.171465355179e+04 
       6.142798931504e-02       1.136019696817e+04 
       6.418496438662e-02       1.101858680917e+04 
       6.694418832236e-02       1.067066728611e+04 
       6.971731104453e-02       1.030343899557e+04 
       7.251476154108e-02       9.909054677443e+03 
       7.534587669814e-02       9.483635166515e+03 
       7.821907664495e-02       9.029327359269e+03 
       8.114203771084e-02       8.552134340516e+03 
       8.412184533139e-02       8.061952019548e+03 
       8.716512277352e-02       7.570784306633e+03 
       9.027813693913e-02       7.092488270717e+03 
       9.346688429613e-02       6.640525866469e+03 
       9.673716026122e-02       6.226713819543e+03 
       1.000946150608e-01       5.859934439097e+03 
       1.035447986307e-01       5.545267563306e+03 
       1.070931966524e-01       5.283156052773e+03 
       1.107452594180e-01       5.069453399972e+03 
       1.145064248899e-01       4.895265074547e+03 
       1.183821370656e-01       4.747840824014e+03 
       1.223778605591e-01       4.611730513455e+03 
       1.264990921707e-01       4.470612937429e+03 
       1.307513701078e-01       4.310287748445e+03 
       1.351402814485e-01       4.121395140570e+03 
       1.396714683894e-01       3.902054465813e+03 
       1.443506337875e-01       3.658655974649e+03 
       1.491835464900e-01       3.404466228841e+03 
       1.541760469368e-01       3.156638688343e+03 
       1.593340535209e-01       2.931933815422e+03 
       1.646635701934e-01       2.742355556810e+03 
       1.701706958081e-01       2.592232811613e+03 
       1.758616357070e-01       2.477216600331e+03 
       1.817427160581e-01       2.385159856207e+03 
       1.878204014651e-01       2.300345494918e+03 
       1.941013163855e-01       2.205775772925e+03 
       2.005922709060e-01       2.090839099642e+03 
       2.073002914514e-01       1.956459013382e+03 
       2.142326570343e-01       1.814173762179e+03 
       2.213969417044e-01       1.679269168261e+03 
       2.288010639201e-01       1.563846645830e+03 
       2.364533436625e-01       1.472665976928e+03 
       2.443625682390e-01       1.401510948597e+03 
       2.525380678946e-01       1.338417667539e+03 
       2.609898025770e-01       1.270899496773e+03 
       2.697284614969e-01       1.193354936257e+03 
       2.787655775073e-01       1.109326615528e+03 
       2.881136588192e-01       1.028758195119e+03 
       2.977863412019e-01       9.604717426304e+02 
       3.077985646248e-01       9.050121488558e+02 
       3.181667793367e-01       8.561334430538e+02 
       3.289091877084e-01       8.061776913753e+02 
       3.400460298905e-01       7.523806347167e+02 
       3.515999235695e-01       6.989085035797e+02 
       3.635962710278e-01       6.510547729910e+02 
       3.760637505499e-01       6.101144999970e+02 
       3.890349143014e-01       5.721236819406e+02 
       4.025469215929e-01       5.337725487285e+02 
       4.166424455447e-01       4.956204933335e+02 
       4.313708034899e-01       4.604622292065e+02 
       4.467893781976e-01       4.287663430380e+02 
       4.629654198623e-01       3.987646357705e+02 
       4.799783500912e-01       3.692315404558e+02 
       4.979227318246e-01       3.412323145886e+02 
       5.169121269689e-01       3.154736040686e+02 
       5.370841403262e-01       2.908265649962e+02 
       5.586070463286e-01       2.670973442859e+02 
       5.816885093582e-01       2.448012027989e+02 
       6.065870143577e-01       2.235614472400e+02 
       6.336266466978e-01       2.032034972412e+02 
       6.632156057925e-01       1.838732843243e+02 
       6.958678637575e-01       1.653480060305e+02 
       7.322247983784e-01       1.476895820483e+02 
       7.730680193171e-01       1.308284085526e+02 
       8.193049551574e-01       1.148259595465e+02 
       8.718988013754e-01       9.975752446111e+01 
       9.317218028590e-01       8.577245664270e+01 
       9.993660906273e-01       7.304924599061e+01 
       1.075037109879e+00       6.173032141660e+01 
       1.158653485387e+00       5.187353737571e+01 
       1.250099156961e+00       4.343444259729e+01 
       1.349432400897e+00       3.628366693980e+01 
       1.456947456991e+00       3.026234325797e+01 
       1.573135110893e+00       2.520894220013e+01 
       1.698621895119e+00       2.097644516729e+01 
       1.834127512423e+00       1.743683314134e+01 
       1.980444933977e+00       1.448016941406e+01 
       2.138435191130e+00       1.201335071774e+01 
       2.309029198543e+00       9.957666415644e+00 
       2.493232376993e+00       8.246421128114e+00 
       2.692130394536e+00       6.823154117349e+00 
       2.906895533764e+00       5.640900130234e+00 
       3.138793596840e+00       4.659530117016e+00 
       3.389191365541e+00       3.845865992616e+00 
       3.659564656886e+00       3.171748374143e+00 
       3.951507021438e+00       2.613710546900e+00 
       4.266739135513e+00       2.152255649035e+00 
       4.607118942658e+00       1.770909047264e+00 
       4.974652604172e+00       1.456025539570e+00 
       5.371506323193e+00       1.196237623244e+00 
       5.800019112071e+00       9.820474359661e-01 
       6.262716578240e+00       8.055985828730e-01 
       6.762325809881e+00       6.603196739562e-01 
       7.301791449077e+00       5.408100178367e-01 
       7.884293047211e+00       4.425561778968e-01 
       8.513263804891e+00       3.618244419656e-01 
       9.192410806865e+00       2.955372544249e-01 
       9.925736871166e+00       2.411507261756e-01 
       1.071756414128e+01       1.965479410438e-01 
       1.157255956041e+01       1.599946349268e-01 
       1.249576237789e+01       1.300558603235e-01 
       1.349261385000e+01       1.055501063575e-01 
       1.456898931011e+01       8.550293642991e-02 
       1.573123279727e+01       6.911519489647e-02 
       1.698619444729e+01       5.572630441513e-02 
       1.834127086665e+01       4.479510949571e-02 
       1.980444872733e+01       3.587928048642e-02 
       2.138435183937e+01       2.861240494695e-02 
       2.309029197863e+01       2.269644994582e-02 
       2.493232376942e+01       1.788765071631e-02 
       2.692130394533e+01       1.398585512052e-02 
       2.906895533764e+01       1.082784839666e-02 
       3.138793596840e+01       8.280865569390e-03 
       3.389191365541e+01       6.236737699822e-03 
       3.659564656886e+01       4.607632352541e-03 
       3.951507021438e+01       3.321920870843e-03 
       4.266739135513e+01       2.321227335673e-03 
       4.607118942658e+01       1.557420841818e-03 
       4.974652604172e+01       9.903031017218e-04 
       5.371506323193e+01       5.853139417305e-04 
       5.800019112071e+01       3.118498508331e-04 
       6.262716578240e+01       1.418448823218e-04 
       6.762325809881e+01       4.906342641511e-05 
