# Matter power spectrum P(k) at redshift z=99
# for k=1.04775e-05 to 67.6233 h/Mpc,
# number of wavenumbers equal to 246
#    1:k (h/Mpc)              2:P (Mpc/h)^3        
       1.047750691046e-05       7.261927680864e-03 
       1.131335172503e-05       7.820331652434e-03 
       1.221587619537e-05       8.421675995456e-03 
       1.319039970183e-05       9.069258201852e-03 
       1.424266597921e-05       9.766638412136e-03 
       1.537887696968e-05       1.051764070801e-02 
       1.660572937635e-05       1.132639106726e-02 
       1.793045413292e-05       1.219733232715e-02 
       1.936085902198e-05       1.313524225779e-02 
       2.090537469327e-05       1.414527123400e-02 
       2.257310435294e-05       1.523296273824e-02 
       2.437387741694e-05       1.640429446289e-02 
       2.631830744443e-05       1.766569584059e-02 
       2.841785469300e-05       1.902408737006e-02 
       3.068489366414e-05       2.048692972773e-02 
       3.313278603720e-05       2.206225515943e-02 
       3.577595942169e-05       2.375870707439e-02 
       3.862999239199e-05       2.558560730203e-02 
       4.171170630578e-05       2.755297766278e-02 
       4.503926444729e-05       2.967161930474e-02 
       4.863227907969e-05       3.195316454234e-02 
       5.251192703764e-05       3.441013522948e-02 
       5.670107454120e-05       3.705601726472e-02 
       6.122441196689e-05       3.990533417798e-02 
       6.610859936996e-05       4.297372172779e-02 
       7.138242361596e-05       4.627802146616e-02 
       7.707696804727e-05       4.983636199466e-02 
       8.322579568497e-05       5.366826852946e-02 
       8.986514704559e-05       5.779476400723e-02 
       9.703415373875e-05       6.223848250512e-02 
       1.047750691046e-04       6.702379872777e-02 
       1.131335172503e-04       7.217695161066e-02 
       1.221587619537e-04       7.772619081848e-02 
       1.319039970183e-04       8.370193441289e-02 
       1.424266597921e-04       9.013692517143e-02 
       1.537887696968e-04       9.706641252906e-02 
       1.660572937635e-04       1.045283355384e-01 
       1.793045413292e-04       1.125635350267e-01 
       1.936085902198e-04       1.212159616259e-01 
       2.090537469327e-04       1.305329134104e-01 
       2.257310435294e-04       1.405652847711e-01 
       2.437387741694e-04       1.513678304152e-01 
       2.631830744443e-04       1.629994506606e-01 
       2.841785469300e-04       1.755234923093e-01 
       3.068489366414e-04       1.890080672425e-01 
       3.313278603720e-04       2.035264004602e-01 
       3.577595942169e-04       2.191571806014e-01 
       3.862999239199e-04       2.359849440105e-01 
       4.171170630578e-04       2.541004744244e-01 
       4.503926444729e-04       2.736012083190e-01 
       4.863227907969e-04       2.945916794100e-01 
       5.251192703764e-04       3.171839528559e-01 
       5.670107454121e-04       3.414980767636e-01 
       6.122441196689e-04       3.676625417013e-01 
       6.610859936996e-04       3.958147256514e-01 
       7.138242361596e-04       4.261013289362e-01 
       7.707696804727e-04       4.586787797353e-01 
       8.322579568497e-04       4.937136006300e-01 
       8.986514704559e-04       5.313826807050e-01 
       9.703415373875e-04       5.718734978235e-01 
       1.047750691046e-03       6.153841636043e-01 
       1.131335172503e-03       6.621233246497e-01 
       1.221587619537e-03       7.123098227994e-01 
       1.319039970183e-03       7.661720592315e-01 
       1.424266597921e-03       8.239546306458e-01 
       1.537887696968e-03       8.859011182851e-01 
       1.660572937635e-03       9.522588016447e-01 
       1.793045413292e-03       1.023280100901e+00 
       1.936085902198e-03       1.099216305740e+00 
       2.090537469327e-03       1.180312991699e+00 
       2.257310435294e-03       1.266804117183e+00 
       2.437387741694e-03       1.358904854832e+00 
       2.631830744443e-03       1.456802684684e+00 
       2.841785469300e-03       1.560646892155e+00 
       3.068489366414e-03       1.670536064242e+00 
       3.313278603720e-03       1.786503854032e+00 
       3.577595942169e-03       1.908502932766e+00 
       3.862999239199e-03       2.036387732809e+00 
       4.171170630578e-03       2.169896195151e+00 
       4.503926444729e-03       2.308631881349e+00 
       4.863227907969e-03       2.452047293447e+00 
       5.251192703764e-03       2.599430630705e+00 
       5.670107454120e-03       2.749896934593e+00 
       6.122441196689e-03       2.902386516248e+00 
       6.610859936996e-03       3.055668692073e+00 
       7.138242361596e-03       3.208356464620e+00 
       7.707696804727e-03       3.358923896066e+00 
       8.322579568496e-03       3.505725598568e+00 
       8.986514704559e-03       3.647009704361e+00 
       9.703415373875e-03       3.780923307655e+00 
       1.047750691046e-02       3.905490218331e+00 
       1.131335172503e-02       4.018587644755e+00 
       1.221587619537e-02       4.117901592151e+00 
       1.319039970183e-02       4.200915243136e+00 
       1.424266597920e-02       4.264942387244e+00 
       1.537887696964e-02       4.307218867549e+00 
       1.660572937560e-02       4.325061285488e+00 
       1.793045412207e-02       4.316058312354e+00 
       1.936085889642e-02       4.278230094378e+00 
       2.090537351881e-02       4.210199173756e+00 
       2.257309534705e-02       4.111423116799e+00 
       2.437382002240e-02       3.982417065276e+00 
       2.631799943729e-02       3.825161047340e+00 
       2.841644544598e-02       3.643275285700e+00 
       3.067933354524e-02       3.442198127983e+00 
       3.311368469821e-02       3.229239027170e+00 
       3.571840442514e-02       3.013514970881e+00 
       3.847720347390e-02       2.805286939375e+00 
       4.135335537314e-02       2.614410908502e+00 
       4.429361666563e-02       2.448131787262e+00 
       4.724366437916e-02       2.309234031810e+00 
       5.016480834039e-02       2.196111838693e+00 
       5.303989618930e-02       2.104365791264e+00 
       5.586870668205e-02       2.028463225945e+00 
       5.866042679206e-02       1.963154684294e+00 
       6.142798931504e-02       1.903779119013e+00 
       6.418496438662e-02       1.846480473458e+00 
       6.694418832236e-02       1.788198093560e+00 
       6.971731104453e-02       1.726716506907e+00 
       7.251476154108e-02       1.660652338156e+00 
       7.534587669814e-02       1.589471817977e+00 
       7.821907664495e-02       1.513429672324e+00 
       8.114203771084e-02       1.433569807812e+00 
       8.412184533139e-02       1.351493769043e+00 
       8.716512277352e-02       1.269274953359e+00 
       9.027813693913e-02       1.189192263087e+00 
       9.346688429613e-02       1.113502488901e+00 
       9.673716026122e-02       1.044175754115e+00 
       1.000946150608e-01       9.827060735236e-01 
       1.035447986307e-01       9.299377142284e-01 
       1.070931966524e-01       8.859609040332e-01 
       1.107452594180e-01       8.500707201608e-01 
       1.145064248899e-01       8.208029653033e-01 
       1.183821370656e-01       7.960249193031e-01 
       1.223778605591e-01       7.731476867629e-01 
       1.264990921707e-01       7.494507630348e-01 
       1.307513701078e-01       7.225571434494e-01 
       1.351402814485e-01       6.909080099708e-01 
       1.396714683894e-01       6.541806636930e-01 
       1.443506337875e-01       6.134263452374e-01 
       1.491835464900e-01       5.708680925613e-01 
       1.541760469368e-01       5.293649211220e-01 
       1.593340535209e-01       4.917110383640e-01 
       1.646635701934e-01       4.599203859571e-01 
       1.701706958081e-01       4.347279846871e-01 
       1.758616357070e-01       4.154077450634e-01 
       1.817427160581e-01       3.999355416737e-01 
       1.878204014651e-01       3.856846843165e-01 
       1.941013163855e-01       3.698117931016e-01 
       2.005922709060e-01       3.505483101576e-01 
       2.073002914514e-01       3.280461806484e-01 
       2.142326570343e-01       3.042143515039e-01 
       2.213969417044e-01       2.816117118510e-01 
       2.288010639201e-01       2.622564015324e-01 
       2.364533436625e-01       2.469622407768e-01 
       2.443625682390e-01       2.350128275891e-01 
       2.525380678946e-01       2.244200541946e-01 
       2.609898025770e-01       2.130959132384e-01 
       2.697284614969e-01       2.001020658754e-01 
       2.787655775073e-01       1.860196090092e-01 
       2.881136588192e-01       1.725168346242e-01 
       2.977863412019e-01       1.610663788277e-01 
       3.077985646248e-01       1.517608718727e-01 
       3.181667793367e-01       1.435594266560e-01 
       3.289091877084e-01       1.351815592591e-01 
       3.400460298905e-01       1.261643669940e-01 
       3.515999235695e-01       1.172016940105e-01 
       3.635962710278e-01       1.091766612039e-01 
       3.760637505499e-01       1.023091950132e-01 
       3.890349143014e-01       9.593724656369e-02 
       4.025469215929e-01       8.950768987851e-02 
       4.166424455447e-01       8.311177778914e-02 
       4.313708034899e-01       7.721541741746e-02 
       4.467893781976e-01       7.190058318672e-02 
       4.629654198623e-01       6.686904217864e-02 
       4.799783500912e-01       6.191743795407e-02 
       4.979227318246e-01       5.722208015772e-02 
       5.169121269689e-01       5.290282136446e-02 
       5.370841403262e-01       4.876985697088e-02 
       5.586070463286e-01       4.479072335073e-02 
       5.816885093582e-01       4.105181495895e-02 
       6.065870143577e-01       3.748986727371e-02 
       6.336266466978e-01       3.407626328248e-02 
       6.632156057925e-01       3.083448959784e-02 
       6.958678637575e-01       2.772817719809e-02 
       7.322247983784e-01       2.476702915406e-02 
       7.730680193171e-01       2.193951565089e-02 
       8.193049551574e-01       1.925603783304e-02 
       8.718988013754e-01       1.672922205177e-02 
       9.317218028590e-01       1.438417263375e-02 
       9.993660906273e-01       1.225060670910e-02 
       1.075037109879e+00       1.035252466057e-02 
       1.158653485387e+00       8.699651732747e-03 
       1.250099156961e+00       7.284538346917e-03 
       1.349432400897e+00       6.085408738990e-03 
       1.456947456991e+00       5.075654123835e-03 
       1.573135110893e+00       4.228213897225e-03 
       1.698621895119e+00       3.518450385865e-03 
       1.834127512423e+00       2.924899332479e-03 
       1.980444933977e+00       2.429069443263e-03 
       2.138435191130e+00       2.015407767665e-03 
       2.309029198543e+00       1.670665392917e-03 
       2.493232376993e+00       1.383679756536e-03 
       2.692130394536e+00       1.145005007707e-03 
       2.906895533764e+00       9.467250952457e-04 
       3.138793596840e+00       7.821454624719e-04 
       3.389191365541e+00       6.456689993103e-04 
       3.659564656886e+00       5.326057654926e-04 
       3.951507021438e+00       4.390082197987e-04 
       4.266739135513e+00       3.615987569454e-04 
       4.607118942658e+00       2.976212712569e-04 
       4.974652604172e+00       2.447903635869e-04 
       5.371506323193e+00       2.011943314629e-04 
       5.800019112071e+00       1.652454939114e-04 
       6.262716578240e+00       1.356224259755e-04 
       6.762325809881e+00       1.112258551009e-04 
       7.301791449077e+00       9.114758422214e-05 
       7.884293047211e+00       7.463220386477e-05 
       8.513263804891e+00       6.105361288073e-05 
       9.192410806865e+00       4.989565226034e-05 
       9.925736871166e+00       4.073001167835e-05 
       1.071756414128e+01       3.320447248718e-05 
       1.157255956041e+01       2.702621469463e-05 
       1.249576237789e+01       2.195597530457e-05 
       1.349261385000e+01       1.779498650792e-05 
       1.456898931011e+01       1.438060148289e-05 
       1.573123279727e+01       1.157883175255e-05 
       1.698619444729e+01       9.279882515756e-06 
       1.834127086665e+01       7.393267866405e-06 
       1.980444872733e+01       5.845599181025e-06 
       2.138435183937e+01       4.576781861654e-06 
       2.309029197863e+01       3.538038496872e-06 
       2.493232376942e+01       2.689909949827e-06 
       2.692130394533e+01       2.000715411659e-06 
       2.906895533764e+01       1.445160863037e-06 
       3.138793596840e+01       1.003074723808e-06 
       3.389191365541e+01       6.584283216142e-07 
       3.659564656886e+01       3.983361582681e-07 
       3.951507021438e+01       2.120219492656e-07 
       4.266739135513e+01       8.989154559081e-08 
       4.607118942658e+01       2.259640750331e-08 
       4.974652604172e+01       1.891716654694e-10 
       5.371506323193e+01       1.153768400050e-08 
       5.800019112071e+01       4.415478925047e-08 
       6.262716578240e+01       8.468293312994e-08 
       6.762325809881e+01       1.201312406393e-07 
