# Matter power spectrum P(k) at redshift z=99
# for k=1.04775e-05 to 66.1767 h/Mpc,
# number of wavenumbers equal to 130
#    1:k (h/Mpc)              2:P (Mpc/h)^3        
       1.047750691046e-05       7.261927680862e-03 
       1.319039970183e-05       9.069258201849e-03 
       1.660572937635e-05       1.132639106725e-02 
       2.090537469327e-05       1.414527123399e-02 
       2.631830744443e-05       1.766569584058e-02 
       3.313278603720e-05       2.206225515943e-02 
       4.171170630578e-05       2.755297766277e-02 
       5.251192703764e-05       3.441013522947e-02 
       6.610859936996e-05       4.297372172778e-02 
       8.322579568497e-05       5.366826852944e-02 
       1.047750691046e-04       6.702379872775e-02 
       1.319039970183e-04       8.370193441287e-02 
       1.660572937635e-04       1.045283355384e-01 
       2.090537469327e-04       1.305329134104e-01 
       2.631830744443e-04       1.629994506606e-01 
       3.313278603720e-04       2.035264004601e-01 
       4.171170630578e-04       2.541004744243e-01 
       5.251192703764e-04       3.171839528557e-01 
       6.610859936996e-04       3.958147256513e-01 
       8.322579568497e-04       4.937136006255e-01 
       1.047750691046e-03       6.153841636041e-01 
       1.319039970183e-03       7.661720592920e-01 
       1.660572937635e-03       9.522588016467e-01 
       2.090537469327e-03       1.180312991699e+00 
       2.631830744443e-03       1.456802684686e+00 
       3.313278603720e-03       1.786503854040e+00 
       4.171170630578e-03       2.169896192958e+00 
       5.251192703764e-03       2.599430630719e+00 
       6.610859936996e-03       3.055668698829e+00 
       8.322579568497e-03       3.505725598462e+00 
       1.047750691046e-02       3.905490826703e+00 
       1.319039970183e-02       4.200915291213e+00 
       1.660572937633e-02       4.325063388530e+00 
       2.090537453514e-02       4.210198352270e+00 
       2.631818545635e-02       3.825154896994e+00 
       3.311571692125e-02       3.229063940807e+00 
       4.113809243311e-02       2.627727316838e+00 
       4.792590854610e-02       2.280787901352e+00 
       5.284436902701e-02       2.110084090771e+00 
       5.689644391095e-02       2.003538833363e+00 
       6.051252627066e-02       1.923057799482e+00 
       6.388413457411e-02       1.852729819877e+00 
       6.711249296401e-02       1.784565362694e+00 
       7.025823437965e-02       1.714275346709e+00 
       7.336115587705e-02       1.639816626699e+00 
       7.644928796912e-02       1.560662595783e+00 
       7.954353299775e-02       1.477457766746e+00 
       8.266024078725e-02       1.391700563303e+00 
       8.581273398637e-02       1.305465150586e+00 
       8.901225918437e-02       1.221128182197e+00 
       9.226860540985e-02       1.141079711313e+00 
       9.559052048996e-02       1.067449783089e+00 
       9.898599946599e-02       1.001887890519e+00 
       1.024624891378e-01       9.453768446586e-01 
       1.060270359164e-01       8.981507865505e-01 
       1.096863943056e-01       8.596134246424e-01 
       1.134471073830e-01       8.284058544301e-01 
       1.173155669539e-01       8.024674131217e-01 
       1.212980586983e-01       7.792301252926e-01 
       1.254007961065e-01       7.559183689398e-01 
       1.296299459934e-01       7.299829128660e-01 
       1.339916477160e-01       6.995925087638e-01 
       1.384920277736e-01       6.640779605126e-01 
       1.431372111762e-01       6.241472655302e-01 
       1.479333307714e-01       5.817636168944e-01 
       1.528865355934e-01       5.396939347471e-01 
       1.580029992204e-01       5.008147513479e-01 
       1.632889290723e-01       4.673985874908e-01 
       1.687505775527e-01       4.405341299821e-01 
       1.743942559171e-01       4.198659212373e-01 
       1.802263517371e-01       4.036598666336e-01 
       1.862533508214e-01       3.893590217318e-01 
       1.924818644494e-01       3.741348222927e-01 
       1.989186627765e-01       3.558022531451e-01 
       2.055707152847e-01       3.340000575292e-01 
       2.124452391818e-01       3.102659800370e-01 
       2.195497567139e-01       2.871225531231e-01 
       2.268921624510e-01       2.668079355480e-01 
       2.344808017550e-01       2.504833876370e-01 
       2.423245618548e-01       2.378332911023e-01 
       2.504329772620e-01       2.271125521772e-01 
       2.588163516754e-01       2.161187946279e-01 
       2.674858990930e-01       2.035461321523e-01 
       2.764539076010e-01       1.895983146945e-01 
       2.857339303080e-01       1.757572454292e-01 
       2.953410092148e-01       1.636991882717e-01 
       3.052919395542e-01       1.539060234035e-01 
       3.156055844677e-01       1.455310911627e-01 
       3.263032530092e-01       1.372506510708e-01 
       3.374091587054e-01       1.283019962602e-01 
       3.489509817175e-01       1.191713154299e-01 
       3.609605657343e-01       1.108073846403e-01 
       3.734747921333e-01       1.036451566128e-01 
       3.865366902904e-01       9.714144217762e-02 
       4.001968667448e-01       9.061541638038e-02 
       4.145153713076e-01       8.403712193681e-02 
       4.295641718077e-01       7.789122182556e-02 
       4.454304922144e-01       7.234155401288e-02 
       4.622214006969e-01       6.709356370979e-02 
       4.800702491654e-01       6.189182707779e-02 
       4.991459272112e-01       5.692639953347e-02 
       5.196665217302e-01       5.231613464256e-02 
       5.419201087032e-01       4.783264218058e-02 
       5.662975451962e-01       4.348684490885e-02 
       5.933463737275e-01       3.933097898572e-02 
       6.238638458458e-01       3.525338548381e-02 
       6.590669257916e-01       3.126288067458e-02 
       7.009246080454e-01       2.728735443444e-02 
       7.528593308799e-01       2.327844706927e-02 
       8.213469537518e-01       1.914822777426e-02 
       9.196980813302e-01       1.481696828773e-02 
       1.075112183810e+00       1.035089381118e-02 
       1.322697471132e+00       6.379468023923e-03 
       1.662328205042e+00       3.705668659278e-03 
       2.092692408506e+00       2.124541605796e-03 
       2.634543445090e+00       1.207959995683e-03 
       3.316693691389e+00       6.817052090693e-04 
       4.175469971226e+00       3.821147048858e-04 
       5.256605252960e+00       2.128685676671e-04 
       6.617673932723e+00       1.179167470241e-04 
       8.331157880872e+00       6.498172706602e-05 
       1.048830636590e+01       3.563997077455e-05 
       1.320399541071e+01       1.946094367126e-05 
       1.662284535976e+01       1.058302007650e-05 
       2.092692243973e+01       5.732868859023e-06 
       2.634543445002e+01       3.093976325754e-06 
       3.316693691389e+01       1.663722590237e-06 
       4.175469971226e+01       8.913024234835e-07 
       5.256605252960e+01       4.755770275246e-07 
       6.617673932723e+01       2.525616818407e-07 
