# Matter power spectrum P(k) at redshift z=0
# for k=1.04775e-05 to 66.1767 h/Mpc,
# number of wavenumbers equal to 130
#    1:k (h/Mpc)              2:P (Mpc/h)^3        
       1.047750691046e-05       5.020964811307e+01 
       1.319039970183e-05       6.270562594771e+01 
       1.660572937635e-05       7.831147247912e+01 
       2.090537469327e-05       9.780108069294e+01 
       2.631830744443e-05       1.221408203809e+02 
       3.313278603720e-05       1.525374501932e+02 
       4.171170630578e-05       1.904975994010e+02 
       5.251192703764e-05       2.379022224249e+02 
       6.610859936996e-05       2.970989227882e+02 
       8.322579568497e-05       3.710167318946e+02 
       1.047750691046e-04       4.633080766742e+02 
       1.319039970183e-04       5.785234129331e+02 
       1.660572937635e-04       7.223242666092e+02 
       2.090537469327e-04       9.017396271824e+02 
       2.631830744443e-04       1.125468123750e+03 
       3.313278603720e-04       1.404223053681e+03 
       4.171170630578e-04       1.751108028790e+03 
       5.251192703764e-04       2.181998448133e+03 
       6.610859936996e-04       2.715889983591e+03 
       8.322579568497e-04       3.375152337134e+03 
       1.047750691046e-03       4.185552174308e+03 
       1.319039970183e-03       5.175742740629e+03 
       1.660572937635e-03       6.376123051775e+03 
       2.090537469327e-03       7.815671868421e+03 
       2.631830744443e-03       9.517783069113e+03 
       3.313278603720e-03       1.149357460343e+04 
       4.171170630578e-03       1.373266014032e+04 
       5.251192703764e-03       1.619063614560e+04 
       6.610859936996e-03       1.877460423187e+04 
       8.322579568497e-03       2.132607232683e+04 
       1.047750691046e-02       2.360548365361e+04 
       1.319039970183e-02       2.528218579269e+04 
       1.660572937633e-02       2.595028630850e+04 
       2.090537453514e-02       2.520933620599e+04 
       2.631818545635e-02       2.287039170075e+04 
       3.311571692125e-02       1.928626526767e+04 
       4.113809243311e-02       1.568425813868e+04 
       4.792590854610e-02       1.361061674156e+04 
       5.284436902701e-02       1.259131465665e+04 
       5.689644391095e-02       1.195557023259e+04 
       6.051252627066e-02       1.147546478677e+04 
       6.388413457411e-02       1.105590404245e+04 
       6.711249296401e-02       1.064900123865e+04 
       7.025823437965e-02       1.022929607095e+04 
       7.336115587705e-02       9.784531248278e+03 
       7.644928796912e-02       9.311666938657e+03 
       7.954353299775e-02       8.814556647104e+03 
       8.266024078725e-02       8.302108997122e+03 
       8.581273398637e-02       7.786950537517e+03 
       8.901225918437e-02       7.283164798852e+03 
       9.226860540985e-02       6.805160252622e+03 
       9.559052048996e-02       6.365636184989e+03 
       9.898599946599e-02       5.974406787026e+03 
       1.024624891378e-01       5.637324356102e+03 
       1.060270359164e-01       5.355769211024e+03 
       1.096863943056e-01       5.126235350624e+03 
       1.134471073830e-01       4.940481530284e+03 
       1.173155669539e-01       4.786160843978e+03 
       1.212980586983e-01       4.647934449059e+03 
       1.254007961065e-01       4.509145338049e+03 
       1.296299459934e-01       4.354550305660e+03 
       1.339916477160e-01       4.173213459091e+03 
       1.384920277736e-01       3.961168000237e+03 
       1.431372111762e-01       3.722689205596e+03 
       1.479333307714e-01       3.469544997608e+03 
       1.528865355934e-01       3.218339253822e+03 
       1.580029992204e-01       2.986294584854e+03 
       1.632889290723e-01       2.786962955608e+03 
       1.687505775527e-01       2.626825653811e+03 
       1.743942559171e-01       2.503753499760e+03 
       1.802263517371e-01       2.407345543675e+03 
       1.862533508214e-01       2.322253767413e+03 
       1.924818644494e-01       2.231556097760e+03 
       1.989186627765e-01       2.122189570651e+03 
       2.055707152847e-01       1.992019805663e+03 
       2.124452391818e-01       1.850321960674e+03 
       2.195497567139e-01       1.712183404092e+03 
       2.268921624510e-01       1.590992496407e+03 
       2.344808017550e-01       1.493669495731e+03 
       2.423245618548e-01       1.418309262330e+03 
       2.504329772620e-01       1.354468051122e+03 
       2.588163516754e-01       1.288933923291e+03 
       2.674858990930e-01       1.213941247581e+03 
       2.764539076010e-01       1.130691287207e+03 
       2.857339303080e-01       1.048101516902e+03 
       2.953410092148e-01       9.761827734037e+02 
       3.052919395542e-01       9.178099888984e+02 
       3.156055844677e-01       8.679007390895e+02 
       3.263032530092e-01       8.185268241860e+02 
       3.374091587054e-01       7.651465803652e+02 
       3.489509817175e-01       7.106696558270e+02 
       3.609605657343e-01       6.607879758344e+02 
       3.734747921333e-01       6.180860159476e+02 
       3.865366902904e-01       5.793104570542e+02 
       4.001968667448e-01       5.403932423562e+02 
       4.145153713076e-01       5.011520244295e+02 
       4.295641718077e-01       4.645010209999e+02 
       4.454304922144e-01       4.314086284003e+02 
       4.622214006969e-01       4.001145695564e+02 
       4.800702491654e-01       3.690894017191e+02 
       4.991459272112e-01       3.394765545417e+02 
       5.196665217302e-01       3.119858907581e+02 
       5.419201087032e-01       2.852474252202e+02 
       5.662975451962e-01       2.593319351859e+02 
       5.933463737275e-01       2.345477111491e+02 
       6.238638458458e-01       2.102303267200e+02 
       6.590669257916e-01       1.864328062908e+02 
       7.009246080454e-01       1.627252116890e+02 
       7.528593308799e-01       1.388184733636e+02 
       8.213469537518e-01       1.141880319007e+02 
       9.196980813302e-01       8.835921481674e+01 
       1.075112183810e+00       6.172601851538e+01 
       1.322697471132e+00       3.804282942174e+01 
       1.662328205042e+00       2.209806013343e+01 
       2.092692408506e+00       1.266921343287e+01 
       2.634543445090e+00       7.203367138344e+00 
       3.316693691389e+00       4.065173791234e+00 
       4.175469971226e+00       2.278623286721e+00 
       5.256605252960e+00       1.269364680882e+00 
       6.617673932723e+00       7.031411176713e-01 
       8.331157880872e+00       3.874777557468e-01 
       1.048830636590e+01       2.125105451623e-01 
       1.320399541071e+01       1.160371995506e-01 
       1.662284535976e+01       6.309918515645e-02 
       2.092692243973e+01       3.417938367679e-02 
       2.634543445002e+01       1.844609180985e-02 
       3.316693691389e+01       9.919166037981e-03 
       4.175469971226e+01       5.314635068459e-03 
       5.256605252960e+01       2.836742782023e-03 
       6.617673932723e+01       1.507686077514e-03 
