# Matter power spectrum P(k) at redshift z=0
# for k=1.04775e-05 to 66.1767 h/Mpc,
# number of wavenumbers equal to 130
#    1:k (h/Mpc)              2:P (Mpc/h)^3        
       1.047750691046e-05       5.020964811307e+01 
       1.319039970183e-05       6.270562594778e+01 
       1.660572937635e-05       7.831147247912e+01 
       2.090537469327e-05       9.780108069295e+01 
       2.631830744443e-05       1.221408203809e+02 
       3.313278603720e-05       1.525374501932e+02 
       4.171170630578e-05       1.904975994010e+02 
       5.251192703764e-05       2.379022224249e+02 
       6.610859936996e-05       2.970989227880e+02 
       8.322579568497e-05       3.710167318946e+02 
       1.047750691046e-04       4.633080766742e+02 
       1.319039970183e-04       5.785234129334e+02 
       1.660572937635e-04       7.223242666092e+02 
       2.090537469327e-04       9.017396271824e+02 
       2.631830744443e-04       1.125468123750e+03 
       3.313278603720e-04       1.404223053681e+03 
       4.171170630578e-04       1.751108028790e+03 
       5.251192703764e-04       2.181998448133e+03 
       6.610859936996e-04       2.715889983593e+03 
       8.322579568497e-04       3.375152337134e+03 
       1.047750691046e-03       4.185552174309e+03 
       1.319039970183e-03       5.175742740685e+03 
       1.660572937635e-03       6.376123051779e+03 
       2.090537469327e-03       7.815671862170e+03 
       2.631830744443e-03       9.517783069113e+03 
       3.313278603720e-03       1.149357460339e+04 
       4.171170630578e-03       1.373266008838e+04 
       5.251192703764e-03       1.619063614560e+04 
       6.610859936996e-03       1.877460405530e+04 
       8.322579568497e-03       2.132607099947e+04 
       1.047750691046e-02       2.360549104351e+04 
       1.319039970183e-02       2.528218609940e+04 
       1.660572937633e-02       2.595027441635e+04 
       2.090537453514e-02       2.520937425199e+04 
       2.631818545635e-02       2.287033838464e+04 
       3.311571692125e-02       1.928628914974e+04 
       4.113809243311e-02       1.568433003658e+04 
       4.792590854610e-02       1.361064732259e+04 
       5.284436902701e-02       1.259132753018e+04 
       5.689644391095e-02       1.195557357084e+04 
       6.051252627066e-02       1.147548277109e+04 
       6.388413457411e-02       1.105591767118e+04 
       6.711249296401e-02       1.064899343883e+04 
       7.025823437965e-02       1.022928625250e+04 
       7.336115587705e-02       9.784535419367e+03 
       7.644928796912e-02       9.311670349316e+03 
       7.954353299775e-02       8.814540026601e+03 
       8.266024078725e-02       8.302112730303e+03 
       8.581273398637e-02       7.786943830835e+03 
       8.901225918437e-02       7.283171192556e+03 
       9.226860540985e-02       6.805173285463e+03 
       9.559052048996e-02       6.365633382948e+03 
       9.898599946599e-02       5.974389879514e+03 
       1.024624891378e-01       5.637320633143e+03 
       1.060270359164e-01       5.355769307583e+03 
       1.096863943056e-01       5.126238539114e+03 
       1.134471073830e-01       4.940478347492e+03 
       1.173155669539e-01       4.786160196062e+03 
       1.212980586983e-01       4.647941071742e+03 
       1.254007961065e-01       4.509149902777e+03 
       1.296299459934e-01       4.354557854198e+03 
       1.339916477160e-01       4.173217499945e+03 
       1.384920277736e-01       3.961156945929e+03 
       1.431372111762e-01       3.722681833914e+03 
       1.479333307714e-01       3.469550189490e+03 
       1.528865355934e-01       3.218338377639e+03 
       1.580029992204e-01       2.986292601503e+03 
       1.632889290723e-01       2.786967510444e+03 
       1.687505775527e-01       2.626827499127e+03 
       1.743942559171e-01       2.503757126472e+03 
       1.802263517371e-01       2.407341542500e+03 
       1.862533508214e-01       2.322253661554e+03 
       1.924818644494e-01       2.231556189144e+03 
       1.989186627765e-01       2.122189564703e+03 
       2.055707152847e-01       1.992020619130e+03 
       2.124452391818e-01       1.850328148966e+03 
       2.195497567139e-01       1.712186628033e+03 
       2.268921624510e-01       1.590990318239e+03 
       2.344808017550e-01       1.493672156861e+03 
       2.423245618548e-01       1.418310877137e+03 
       2.504329772620e-01       1.354466196613e+03 
       2.588163516754e-01       1.288938617861e+03 
       2.674858990930e-01       1.213939581216e+03 
       2.764539076010e-01       1.130693844179e+03 
       2.857339303080e-01       1.048100071782e+03 
       2.953410092148e-01       9.761843949201e+02 
       3.052919395542e-01       9.178116643528e+02 
       3.156055844677e-01       8.678969686503e+02 
       3.263032530092e-01       8.185258717823e+02 
       3.374091587054e-01       7.651471041789e+02 
       3.489509817175e-01       7.106704828914e+02 
       3.609605657343e-01       6.607875641579e+02 
       3.734747921333e-01       6.180873664112e+02 
       3.865366902904e-01       5.793128727481e+02 
       4.001968667448e-01       5.403918863856e+02 
       4.145153713076e-01       5.011516263522e+02 
       4.295641718077e-01       4.644982420820e+02 
       4.454304922144e-01       4.314109526550e+02 
       4.622214006969e-01       4.001140110661e+02 
       4.800702491654e-01       3.690893587724e+02 
       4.991459272112e-01       3.394766563502e+02 
       5.196665217302e-01       3.119862404119e+02 
       5.419201087032e-01       2.852469317428e+02 
       5.662975451962e-01       2.593317735617e+02 
       5.933463737275e-01       2.345485166364e+02 
       6.238638458458e-01       2.102310901915e+02 
       6.590669257916e-01       1.864333054240e+02 
       7.009246080454e-01       1.627251544419e+02 
       7.528593308799e-01       1.388186893155e+02 
       8.213469537518e-01       1.141882252829e+02 
       9.196980813302e-01       8.835965732173e+01 
       1.075112183810e+00       6.172611528792e+01 
       1.322697471132e+00       3.804289563917e+01 
       1.662328205042e+00       2.209795362520e+01 
       2.092692408506e+00       1.266921033917e+01 
       2.634543445090e+00       7.203356335951e+00 
       3.316693691389e+00       4.065158474635e+00 
       4.175469971226e+00       2.278628080087e+00 
       5.256605252960e+00       1.269353195908e+00 
       6.617673932723e+00       7.031395115771e-01 
       8.331157880872e+00       3.874774185317e-01 
       1.048830636590e+01       2.125107037099e-01 
       1.320399541071e+01       1.160357003148e-01 
       1.662284535976e+01       6.309916569912e-02 
       2.092692243973e+01       3.417954511173e-02 
       2.634543445002e+01       1.844602641809e-02 
       3.316693691389e+01       9.919135482863e-03 
       4.175469971226e+01       5.314648722894e-03 
       5.256605252960e+01       2.836714722922e-03 
       6.617673932723e+01       1.507694080292e-03 
