# Matter power spectrum P(k) at redshift z=0
# for k=1.04775e-05 to 66.1767 h/Mpc,
# number of wavenumbers equal to 130
#    1:k (h/Mpc)              2:P (Mpc/h)^3        
       1.047750691046e-05       5.020964811312e+01 
       1.319039970183e-05       6.270562594782e+01 
       1.660572937635e-05       7.831147247911e+01 
       2.090537469327e-05       9.780108069296e+01 
       2.631830744443e-05       1.221408203809e+02 
       3.313278603720e-05       1.525374501932e+02 
       4.171170630578e-05       1.904975994009e+02 
       5.251192703764e-05       2.379022224249e+02 
       6.610859936996e-05       2.970989227881e+02 
       8.322579568497e-05       3.710167318946e+02 
       1.047750691046e-04       4.633080766742e+02 
       1.319039970183e-04       5.785234129336e+02 
       1.660572937635e-04       7.223242666092e+02 
       2.090537469327e-04       9.017396271824e+02 
       2.631830744443e-04       1.125468123750e+03 
       3.313278603720e-04       1.404223053681e+03 
       4.171170630578e-04       1.751108028790e+03 
       5.251192703764e-04       2.181998448133e+03 
       6.610859936996e-04       2.715889983592e+03 
       8.322579568497e-04       3.375152337134e+03 
       1.047750691046e-03       4.185552174307e+03 
       1.319039970183e-03       5.175742740694e+03 
       1.660572937635e-03       6.376123051779e+03 
       2.090537469327e-03       7.815671914732e+03 
       2.631830744443e-03       9.517783069112e+03 
       3.313278603720e-03       1.149357460345e+04 
       4.171170630578e-03       1.373266014024e+04 
       5.251192703764e-03       1.619063614554e+04 
       6.610859936996e-03       1.877460350798e+04 
       8.322579568497e-03       2.132607100773e+04 
       1.047750691046e-02       2.360547850573e+04 
       1.319039970183e-02       2.528218808746e+04 
       1.660572937633e-02       2.595027152134e+04 
       2.090537453514e-02       2.520933143039e+04 
       2.631818545635e-02       2.287034397240e+04 
       3.311571692125e-02       1.928628696879e+04 
       4.113809243311e-02       1.568428759970e+04 
       4.792590854610e-02       1.361063750614e+04 
       5.284436902701e-02       1.259133603634e+04 
       5.689644391095e-02       1.195555363412e+04 
       6.051252627066e-02       1.147546764871e+04 
       6.388413457411e-02       1.105587471559e+04 
       6.711249296401e-02       1.064900185983e+04 
       7.025823437965e-02       1.022928125823e+04 
       7.336115587705e-02       9.784513371586e+03 
       7.644928796912e-02       9.311674405785e+03 
       7.954353299775e-02       8.814543719187e+03 
       8.266024078725e-02       8.302118662451e+03 
       8.581273398637e-02       7.786957750436e+03 
       8.901225918437e-02       7.283177586434e+03 
       9.226860540985e-02       6.805154275967e+03 
       9.559052048996e-02       6.365640183424e+03 
       9.898599946599e-02       5.974390579003e+03 
       1.024624891378e-01       5.637319171683e+03 
       1.060270359164e-01       5.355772541480e+03 
       1.096863943056e-01       5.126237929332e+03 
       1.134471073830e-01       4.940485516475e+03 
       1.173155669539e-01       4.786160413975e+03 
       1.212980586983e-01       4.647929670132e+03 
       1.254007961065e-01       4.509124022884e+03 
       1.296299459934e-01       4.354543735006e+03 
       1.339916477160e-01       4.173218569177e+03 
       1.384920277736e-01       3.961157228226e+03 
       1.431372111762e-01       3.722686042136e+03 
       1.479333307714e-01       3.469523927601e+03 
       1.528865355934e-01       3.218341092763e+03 
       1.580029992204e-01       2.986295031405e+03 
       1.632889290723e-01       2.786963101814e+03 
       1.687505775527e-01       2.626830125986e+03 
       1.743942559171e-01       2.503759776376e+03 
       1.802263517371e-01       2.407346505559e+03 
       1.862533508214e-01       2.322254508488e+03 
       1.924818644494e-01       2.231549949920e+03 
       1.989186627765e-01       2.122185275168e+03 
       2.055707152847e-01       1.992027762231e+03 
       2.124452391818e-01       1.850322279072e+03 
       2.195497567139e-01       1.712182886114e+03 
       2.268921624510e-01       1.590989180460e+03 
       2.344808017550e-01       1.493668074306e+03 
       2.423245618548e-01       1.418310168890e+03 
       2.504329772620e-01       1.354467432117e+03 
       2.588163516754e-01       1.288933594177e+03 
       2.674858990930e-01       1.213937349230e+03 
       2.764539076010e-01       1.130693350778e+03 
       2.857339303080e-01       1.048099663151e+03 
       2.953410092148e-01       9.761836388113e+02 
       3.052919395542e-01       9.178106972824e+02 
       3.156055844677e-01       8.678955923557e+02 
       3.263032530092e-01       8.185249836689e+02 
       3.374091587054e-01       7.651448358426e+02 
       3.489509817175e-01       7.106713571644e+02 
       3.609605657343e-01       6.607844363386e+02 
       3.734747921333e-01       6.180841906204e+02 
       3.865366902904e-01       5.793094867692e+02 
       4.001968667448e-01       5.403929019005e+02 
       4.145153713076e-01       5.011519564278e+02 
       4.295641718077e-01       4.644981893778e+02 
       4.454304922144e-01       4.314091599775e+02 
       4.622214006969e-01       4.001137844552e+02 
       4.800702491654e-01       3.690891049652e+02 
       4.991459272112e-01       3.394764149814e+02 
       5.196665217302e-01       3.119851801607e+02 
       5.419201087032e-01       2.852461706945e+02 
       5.662975451962e-01       2.593310298485e+02 
       5.933463737275e-01       2.345486776803e+02 
       6.238638458458e-01       2.102303512882e+02 
       6.590669257916e-01       1.864335945391e+02 
       7.009246080454e-01       1.627252558699e+02 
       7.528593308799e-01       1.388187076305e+02 
       8.213469537518e-01       1.141883164576e+02 
       9.196980813302e-01       8.835944627981e+01 
       1.075112183810e+00       6.172582236502e+01 
       1.322697471132e+00       3.804255320298e+01 
       1.662328205042e+00       2.209794960923e+01 
       2.092692408506e+00       1.266908093709e+01 
       2.634543445090e+00       7.203311642900e+00 
       3.316693691389e+00       4.065146211925e+00 
       4.175469971226e+00       2.278543806943e+00 
       5.256605252960e+00       1.269344916556e+00 
       6.617673932723e+00       7.031380691206e-01 
       8.331157880872e+00       3.874752594720e-01 
       1.048830636590e+01       2.125094973758e-01 
       1.320399541071e+01       1.160365150224e-01 
       1.662284535976e+01       6.309871637356e-02 
       2.092692243973e+01       3.417924087119e-02 
       2.634543445002e+01       1.844575517552e-02 
       3.316693691389e+01       9.918915190054e-03 
       4.175469971226e+01       5.314300810233e-03 
       5.256605252960e+01       2.836410302806e-03 
       6.617673932723e+01       1.507437522428e-03 
