# Matter power spectrum P(k) at redshift z=99
# for k=1.04775e-05 to 67.6233 h/Mpc,
# number of wavenumbers equal to 246
#    1:k (h/Mpc)              2:P (Mpc/h)^3        
       1.047750691046e-05       7.261927680866e-03 
       1.131335172503e-05       7.820331652437e-03 
       1.221587619537e-05       8.421675995459e-03 
       1.319039970183e-05       9.069258201854e-03 
       1.424266597921e-05       9.766638412139e-03 
       1.537887696968e-05       1.051764070802e-02 
       1.660572937635e-05       1.132639106726e-02 
       1.793045413292e-05       1.219733232716e-02 
       1.936085902198e-05       1.313524225780e-02 
       2.090537469327e-05       1.414527123400e-02 
       2.257310435294e-05       1.523296273824e-02 
       2.437387741694e-05       1.640429446289e-02 
       2.631830744443e-05       1.766569584059e-02 
       2.841785469300e-05       1.902408737006e-02 
       3.068489366414e-05       2.048692972774e-02 
       3.313278603720e-05       2.206225515944e-02 
       3.577595942169e-05       2.375870707440e-02 
       3.862999239199e-05       2.558560730204e-02 
       4.171170630578e-05       2.755297766279e-02 
       4.503926444729e-05       2.967161930476e-02 
       4.863227907969e-05       3.195316454235e-02 
       5.251192703764e-05       3.441013522949e-02 
       5.670107454120e-05       3.705601726473e-02 
       6.122441196689e-05       3.990533417798e-02 
       6.610859936996e-05       4.297372172780e-02 
       7.138242361596e-05       4.627802146617e-02 
       7.707696804727e-05       4.983636199467e-02 
       8.322579568497e-05       5.366826852948e-02 
       8.986514704559e-05       5.779476400725e-02 
       9.703415373875e-05       6.223848250514e-02 
       1.047750691046e-04       6.702379872779e-02 
       1.131335172503e-04       7.217695161068e-02 
       1.221587619537e-04       7.772619081851e-02 
       1.319039970183e-04       8.370193441291e-02 
       1.424266597921e-04       9.013692517148e-02 
       1.537887696968e-04       9.706641252909e-02 
       1.660572937635e-04       1.045283355385e-01 
       1.793045413292e-04       1.125635350267e-01 
       1.936085902198e-04       1.212159616259e-01 
       2.090537469327e-04       1.305329134105e-01 
       2.257310435294e-04       1.405652847712e-01 
       2.437387741694e-04       1.513678304152e-01 
       2.631830744443e-04       1.629994506606e-01 
       2.841785469300e-04       1.755234923094e-01 
       3.068489366414e-04       1.890080672426e-01 
       3.313278603720e-04       2.035264004603e-01 
       3.577595942169e-04       2.191571806015e-01 
       3.862999239199e-04       2.359849440106e-01 
       4.171170630578e-04       2.541004744244e-01 
       4.503926444729e-04       2.736012083191e-01 
       4.863227907969e-04       2.945916794101e-01 
       5.251192703764e-04       3.171839528559e-01 
       5.670107454121e-04       3.414980767637e-01 
       6.122441196689e-04       3.676625417013e-01 
       6.610859936996e-04       3.958147256515e-01 
       7.138242361596e-04       4.261013289362e-01 
       7.707696804727e-04       4.586787797353e-01 
       8.322579568497e-04       4.937136006295e-01 
       8.986514704559e-04       5.313826807052e-01 
       9.703415373875e-04       5.718734978236e-01 
       1.047750691046e-03       6.153841636045e-01 
       1.131335172503e-03       6.621233246497e-01 
       1.221587619537e-03       7.123098227993e-01 
       1.319039970183e-03       7.661720592670e-01 
       1.424266597921e-03       8.239546306466e-01 
       1.537887696968e-03       8.859011182850e-01 
       1.660572937635e-03       9.522588016492e-01 
       1.793045413292e-03       1.023280100901e+00 
       1.936085902198e-03       1.099216305740e+00 
       2.090537469327e-03       1.180312991699e+00 
       2.257310435294e-03       1.266804117184e+00 
       2.437387741694e-03       1.358904854834e+00 
       2.631830744443e-03       1.456802684683e+00 
       2.841785469300e-03       1.560646892153e+00 
       3.068489366414e-03       1.670536064240e+00 
       3.313278603720e-03       1.786503854033e+00 
       3.577595942169e-03       1.908502932763e+00 
       3.862999239199e-03       2.036387732805e+00 
       4.171170630578e-03       2.169896196042e+00 
       4.503926444729e-03       2.308631881342e+00 
       4.863227907969e-03       2.452047293438e+00 
       5.251192703764e-03       2.599430630694e+00 
       5.670107454120e-03       2.749896934607e+00 
       6.122441196689e-03       2.902386516231e+00 
       6.610859936996e-03       3.055668676534e+00 
       7.138242361596e-03       3.208356464591e+00 
       7.707696804727e-03       3.358923895403e+00 
       8.322579568496e-03       3.505725598445e+00 
       8.986514704559e-03       3.647009248121e+00 
       9.703415373875e-03       3.780923307633e+00 
       1.047750691046e-02       3.905491347302e+00 
       1.131335172503e-02       4.018587644304e+00 
       1.221587619537e-02       4.117901591397e+00 
       1.319039970183e-02       4.200915289663e+00 
       1.424266597920e-02       4.264941576766e+00 
       1.537887696964e-02       4.307218416796e+00 
       1.660572937560e-02       4.325062279014e+00 
       1.793045412207e-02       4.316058043668e+00 
       1.936085889642e-02       4.278231756249e+00 
       2.090537351881e-02       4.210201964074e+00 
       2.257309534705e-02       4.111421254129e+00 
       2.437382002240e-02       3.982424379602e+00 
       2.631799943729e-02       3.825167495333e+00 
       2.841644544598e-02       3.643286736814e+00 
       3.067933354524e-02       3.442194760216e+00 
       3.311368469821e-02       3.229242975458e+00 
       3.571840442514e-02       3.013510573338e+00 
       3.847720347390e-02       2.805287277735e+00 
       4.135335537314e-02       2.614421594072e+00 
       4.429361666563e-02       2.448129966586e+00 
       4.724366437916e-02       2.309238533492e+00 
       5.016480834039e-02       2.196115134533e+00 
       5.303989618930e-02       2.104360980485e+00 
       5.586870668205e-02       2.028462314798e+00 
       5.866042679206e-02       1.963152421875e+00 
       6.142798931504e-02       1.903781294368e+00 
       6.418496438662e-02       1.846475882529e+00 
       6.694418832236e-02       1.788194332068e+00 
       6.971731104453e-02       1.726714867087e+00 
       7.251476154108e-02       1.660651466872e+00 
       7.534587669814e-02       1.589473537724e+00 
       7.821907664495e-02       1.513438826723e+00 
       8.114203771084e-02       1.433571729260e+00 
       8.412184533139e-02       1.351490793903e+00 
       8.716512277352e-02       1.269273951654e+00 
       9.027813693913e-02       1.189191973131e+00 
       9.346688429613e-02       1.113500579433e+00 
       9.673716026122e-02       1.044176680086e+00 
       1.000946150608e-01       9.827053593313e-01 
       1.035447986307e-01       9.299378356066e-01 
       1.070931966524e-01       8.859601142030e-01 
       1.107452594180e-01       8.500696166108e-01 
       1.145064248899e-01       8.208044578509e-01 
       1.183821370656e-01       7.960237322431e-01 
       1.223778605591e-01       7.731440266088e-01 
       1.264990921707e-01       7.494518671719e-01 
       1.307513701078e-01       7.225575941987e-01 
       1.351402814485e-01       6.909088141038e-01 
       1.396714683894e-01       6.541810925740e-01 
       1.443506337875e-01       6.134270989636e-01 
       1.491835464900e-01       5.708696693301e-01 
       1.541760469368e-01       5.293654760410e-01 
       1.593340535209e-01       4.917109380497e-01 
       1.646635701934e-01       4.599197852040e-01 
       1.701706958081e-01       4.347285339119e-01 
       1.758616357070e-01       4.154082634142e-01 
       1.817427160581e-01       3.999361939866e-01 
       1.878204014651e-01       3.856859733242e-01 
       1.941013163855e-01       3.698122336317e-01 
       2.005922709060e-01       3.505495200011e-01 
       2.073002914514e-01       3.280469181552e-01 
       2.142326570343e-01       3.042141246749e-01 
       2.213969417044e-01       2.816112393193e-01 
       2.288010639201e-01       2.622567306660e-01 
       2.364533436625e-01       2.469619430761e-01 
       2.443625682390e-01       2.350130199328e-01 
       2.525380678946e-01       2.244205302243e-01 
       2.609898025770e-01       2.130961741221e-01 
       2.697284614969e-01       2.001023806813e-01 
       2.787655775073e-01       1.860196737403e-01 
       2.881136588192e-01       1.725172208893e-01 
       2.977863412019e-01       1.610658109935e-01 
       3.077985646248e-01       1.517608152393e-01 
       3.181667793367e-01       1.435588947389e-01 
       3.289091877084e-01       1.351814530748e-01 
       3.400460298905e-01       1.261642797099e-01 
       3.515999235695e-01       1.172019033781e-01 
       3.635962710278e-01       1.091766994317e-01 
       3.760637505499e-01       1.023092654770e-01 
       3.890349143014e-01       9.593755214504e-02 
       4.025469215929e-01       8.950762124679e-02 
       4.166424455447e-01       8.311172250531e-02 
       4.313708034899e-01       7.721531581552e-02 
       4.467893781976e-01       7.190064286910e-02 
       4.629654198623e-01       6.686898617323e-02 
       4.799783500912e-01       6.191750513885e-02 
       4.979227318246e-01       5.722212868061e-02 
       5.169121269689e-01       5.290273855255e-02 
       5.370841403262e-01       4.876943901719e-02 
       5.586070463286e-01       4.479073544339e-02 
       5.816885093582e-01       4.105172205642e-02 
       6.065870143577e-01       3.748973920581e-02 
       6.336266466978e-01       3.407614267856e-02 
       6.632156057925e-01       3.083444390088e-02 
       6.958678637575e-01       2.772816890524e-02 
       7.322247983784e-01       2.476690000274e-02 
       7.730680193171e-01       2.193939090107e-02 
       8.193049551574e-01       1.925594356318e-02 
       8.718988013754e-01       1.672906811781e-02 
       9.317218028590e-01       1.438404387352e-02 
       9.993660906273e-01       1.225042571377e-02 
       1.075037109879e+00       1.035231905290e-02 
       1.158653485387e+00       8.699434175280e-03 
       1.250099156961e+00       7.284278977947e-03 
       1.349432400897e+00       6.085117041881e-03 
       1.456947456991e+00       5.075366375333e-03 
       1.573135110893e+00       4.227896576723e-03 
       1.698621895119e+00       3.518109622289e-03 
       1.834127512423e+00       2.924497903116e-03 
       1.980444933977e+00       2.428636509196e-03 
       2.138435191130e+00       2.014934949769e-03 
       2.309029198543e+00       1.670150715604e-03 
       2.493232376993e+00       1.383110584204e-03 
       2.692130394536e+00       1.144387468332e-03 
       2.906895533764e+00       9.460468224909e-04 
       3.138793596840e+00       7.814085952625e-04 
       3.389191365541e+00       6.448620913146e-04 
       3.659564656886e+00       5.317219275912e-04 
       3.951507021438e+00       4.380464323666e-04 
       4.266739135513e+00       3.605517631083e-04 
       4.607118942658e+00       2.964821767150e-04 
       4.974652604172e+00       2.435517676813e-04 
       5.371506323193e+00       1.998506072560e-04 
       5.800019112071e+00       1.637851335796e-04 
       6.262716578240e+00       1.340414889145e-04 
       6.762325809881e+00       1.095180550557e-04 
       7.301791449077e+00       8.930566344068e-05 
       7.884293047211e+00       7.265101823689e-05 
       8.513263804891e+00       5.892935905944e-05 
       9.192410806865e+00       4.762483526556e-05 
       9.925736871166e+00       3.831252980991e-05 
       1.071756414128e+01       3.064241910712e-05 
       1.157255956041e+01       2.432556638085e-05 
       1.249576237789e+01       1.912733490309e-05 
       1.349261385000e+01       1.485476423752e-05 
       1.456898931011e+01       1.135232857483e-05 
       1.573123279727e+01       8.493777984337e-06 
       1.698619444729e+01       6.178240533655e-06 
       1.834127086665e+01       4.325536942857e-06 
       1.980444872733e+01       2.871529886434e-06 
       2.138435183937e+01       1.764687773811e-06 
       2.309029197863e+01       9.622687824515e-07 
       2.493232376942e+01       4.264044156391e-07 
       2.692130394533e+01       1.201381438639e-07 
       2.906895533764e+01       4.272611792056e-09 
       3.138793596840e+01       3.452491438549e-08 
       3.389191365541e+01       1.606271011862e-07 
       3.659564656886e+01       3.278105052921e-07 
       3.951507021438e+01       4.815921665247e-07 
       4.266739135513e+01       5.756800761611e-07 
       4.607118942658e+01       5.815645895745e-07 
       4.974652604172e+01       4.970935181082e-07 
       5.371506323193e+01       3.489400342520e-07 
       5.800019112071e+01       1.855301925940e-07 
       6.262716578240e+01       5.913869566342e-08 
       6.762325809881e+01       2.723768157854e-09 
