# Matter power spectrum P(k) at redshift z=0
# for k=1.04775e-05 to 67.6233 h/Mpc,
# number of wavenumbers equal to 246
#    1:k (h/Mpc)              2:P (Mpc/h)^3        
       1.047750691046e-05       5.020964811311e+01 
       1.131335172503e-05       5.407050701926e+01 
       1.221587619537e-05       5.822819068720e+01 
       1.319039970183e-05       6.270562594782e+01 
       1.424266597921e-05       6.752732240880e+01 
       1.537887696968e-05       7.271977206173e+01 
       1.660572937635e-05       7.831147247912e+01 
       1.793045413292e-05       8.433311821988e+01 
       1.936085902198e-05       9.081778249833e+01 
       2.090537469327e-05       9.780108069297e+01 
       2.257310435294e-05       1.053213197893e+02 
       2.437387741694e-05       1.134197377890e+02 
       2.631830744443e-05       1.221408203809e+02 
       2.841785469300e-05       1.315324642471e+02 
       3.068489366414e-05       1.416462094881e+02 
       3.313278603720e-05       1.525374501932e+02 
       3.577595942169e-05       1.642660688414e+02 
       3.862999239199e-05       1.768963506307e+02 
       4.171170630578e-05       1.904975994010e+02 
       4.503926444729e-05       2.051444491974e+02 
       4.863227907969e-05       2.209171465549e+02 
       5.251192703764e-05       2.379022224249e+02 
       5.670107454120e-05       2.561927927583e+02 
       6.122441196689e-05       2.758890444040e+02 
       6.610859936996e-05       2.970989227882e+02 
       7.138242361596e-05       3.199385560802e+02 
       7.707696804727e-05       3.445329783680e+02 
       8.322579568497e-05       3.710167318946e+02 
       8.986514704559e-05       3.995346444203e+02 
       9.703415373875e-05       4.302425407383e+02 
       1.047750691046e-04       4.633080766742e+02 
       1.131335172503e-04       4.989116271565e+02 
       1.221587619537e-04       5.372471950930e+02 
       1.319039970183e-04       5.785234129337e+02 
       1.424266597921e-04       6.229645936045e+02 
       1.537887696968e-04       6.708118490405e+02 
       1.660572937635e-04       7.223242666092e+02 
       1.793045413292e-04       7.777801559128e+02 
       1.936085902198e-04       8.374783614140e+02 
       2.090537469327e-04       9.017396271824e+02 
       2.257310435294e-04       9.709080268041e+02 
       2.437387741694e-04       1.045352449493e+03 
       2.631830744443e-04       1.125468123750e+03 
       2.841785469300e-04       1.211678180495e+03 
       3.068489366414e-04       1.304435250150e+03 
       3.313278603720e-04       1.404223053681e+03 
       3.577595942169e-04       1.511558014616e+03 
       3.862999239199e-04       1.626990837763e+03 
       4.171170630578e-04       1.751108028790e+03 
       4.503926444729e-04       1.884533382872e+03 
       4.863227907969e-04       2.027929378112e+03 
       5.251192703764e-04       2.181998448133e+03 
       5.670107454121e-04       2.347484102755e+03 
       6.122441196689e-04       2.525171871367e+03 
       6.610859936996e-04       2.715889983592e+03 
       7.138242361596e-04       2.920509688383e+03 
       7.707696804727e-04       3.139945100279e+03 
       8.322579568497e-04       3.375152337578e+03 
       8.986514704559e-04       3.627127831141e+03 
       9.703415373875e-04       3.896905453136e+03 
       1.047750691046e-03       4.185552174298e+03 
       1.131335172503e-03       4.494162430373e+03 
       1.221587619537e-03       4.823850706495e+03 
       1.319039970183e-03       5.175742744485e+03 
       1.424266597921e-03       5.551019596903e+03 
       1.537887696968e-03       5.950788340553e+03 
       1.660572937635e-03       6.376123051787e+03 
       1.793045413292e-03       6.828073901457e+03 
       1.936085902198e-03       7.307625381067e+03 
       2.090537469327e-03       7.815671863860e+03 
       2.257310435294e-03       8.352990375821e+03 
       2.437387741694e-03       8.920211064347e+03 
       2.631830744443e-03       9.517783069112e+03 
       2.841785469300e-03       1.014593704435e+04 
       3.068489366414e-03       1.080464502798e+04 
       3.313278603720e-03       1.149357460343e+04 
       3.577595942169e-03       1.221203621722e+04 
       3.862999239199e-03       1.295892539446e+04 
       4.171170630578e-03       1.373265988874e+04 
       4.503926444729e-03       1.453111835625e+04 
       4.863227907969e-03       1.535154985297e+04 
       5.251192703764e-03       1.619063614541e+04 
       5.670107454120e-03       1.704431257747e+04 
       6.122441196689e-03       1.790755939662e+04 
       6.610859936996e-03       1.877460417159e+04 
       7.138242361596e-03       1.963872430388e+04 
       7.707696804727e-03       2.049215714500e+04 
       8.322579568496e-03       2.132607231803e+04 
       8.986514704559e-03       2.213055078727e+04 
       9.703415373875e-03       2.289445472239e+04 
       1.047750691046e-02       2.360548859899e+04 
       1.131335172503e-02       2.425022857865e+04 
       1.221587619537e-02       2.481423894592e+04 
       1.319039970183e-02       2.528218651685e+04 
       1.424266597920e-02       2.563814383718e+04 
       1.537887696964e-02       2.586609163692e+04 
       1.660572937560e-02       2.595029258473e+04 
       1.793045412207e-02       2.587634178218e+04 
       1.936085889642e-02       2.563219604473e+04 
       2.090537351881e-02       2.520935237261e+04 
       2.257309534705e-02       2.460446368087e+04 
       2.437382002240e-02       2.382089908279e+04 
       2.631799943729e-02       2.287044842532e+04 
       2.841644544598e-02       2.177448188344e+04 
       3.067933354524e-02       2.056554713932e+04 
       3.311368469821e-02       1.928727813690e+04 
       3.571840442514e-02       1.799399221948e+04 
       3.847720347390e-02       1.674685013302e+04 
       4.135335537314e-02       1.560461616136e+04 
       4.429361666563e-02       1.461041740980e+04 
       4.724366437916e-02       1.378049001808e+04 
       5.016480834039e-02       1.310508036179e+04 
       5.303989618930e-02       1.255718527038e+04 
       5.586870668205e-02       1.210426172849e+04 
       5.866042679206e-02       1.171467183984e+04 
       6.142798931504e-02       1.136048206613e+04 
       6.418496438662e-02       1.101855159581e+04 
       6.694418832236e-02       1.067068654374e+04 
       6.971731104453e-02       1.030355453019e+04 
       7.251476154108e-02       9.909014096915e+03 
       7.534587669814e-02       9.483775512653e+03 
       7.821907664495e-02       9.029517089909e+03 
       8.114203771084e-02       8.552317384342e+03 
       8.412184533139e-02       8.061916885964e+03 
       8.716512277352e-02       7.570775725855e+03 
       9.027813693913e-02       7.092480130358e+03 
       9.346688429613e-02       6.640517946241e+03 
       9.673716026122e-02       6.226708887082e+03 
       1.000946150608e-01       5.859955556008e+03 
       1.035447986307e-01       5.545224583902e+03 
       1.070931966524e-01       5.283161277480e+03 
       1.107452594180e-01       5.069415413937e+03 
       1.145064248899e-01       4.895268998540e+03 
       1.183821370656e-01       4.747834138932e+03 
       1.223778605591e-01       4.611735910901e+03 
       1.264990921707e-01       4.470625589981e+03 
       1.307513701078e-01       4.310272251759e+03 
       1.351402814485e-01       4.121387361440e+03 
       1.396714683894e-01       3.902055459277e+03 
       1.443506337875e-01       3.658662586753e+03 
       1.491835464900e-01       3.404484050340e+03 
       1.541760469368e-01       3.156668642400e+03 
       1.593340535209e-01       2.931971049000e+03 
       1.646635701934e-01       2.742365018562e+03 
       1.701706958081e-01       2.592267538754e+03 
       1.758616357070e-01       2.477235286952e+03 
       1.817427160581e-01       2.385188489119e+03 
       1.878204014651e-01       2.300359243344e+03 
       1.941013163855e-01       2.205757325963e+03 
       2.005922709060e-01       2.090815077080e+03 
       2.073002914514e-01       1.956465109627e+03 
       2.142326570343e-01       1.814194754871e+03 
       2.213969417044e-01       1.679296584522e+03 
       2.288010639201e-01       1.563844848748e+03 
       2.364533436625e-01       1.472687904272e+03 
       2.443625682390e-01       1.401514783757e+03 
       2.525380678946e-01       1.338413649229e+03 
       2.609898025770e-01       1.270899850428e+03 
       2.697284614969e-01       1.193382042386e+03 
       2.787655775073e-01       1.109338608566e+03 
       2.881136588192e-01       1.028771490498e+03 
       2.977863412019e-01       9.604820365274e+02 
       3.077985646248e-01       9.050241121106e+02 
       3.181667793367e-01       8.561451818094e+02 
       3.289091877084e-01       8.061863126545e+02 
       3.400460298905e-01       7.523911424731e+02 
       3.515999235695e-01       6.989245126367e+02 
       3.635962710278e-01       6.510622527332e+02 
       3.760637505499e-01       6.101203231320e+02 
       3.890349143014e-01       5.721309950817e+02 
       4.025469215929e-01       5.337830671132e+02 
       4.166424455447e-01       4.956320505865e+02 
       4.313708034899e-01       4.604686022899e+02 
       4.467893781976e-01       4.287774802549e+02 
       4.629654198623e-01       3.987711059335e+02 
       4.799783500912e-01       3.692430989146e+02 
       4.979227318246e-01       3.412397449492e+02 
       5.169121269689e-01       3.154837448459e+02 
       5.370841403262e-01       2.908357288276e+02 
       5.586070463286e-01       2.671059052044e+02 
       5.816885093582e-01       2.448093700768e+02 
       6.065870143577e-01       2.235678530061e+02 
       6.336266466978e-01       2.032108443447e+02 
       6.632156057925e-01       1.838790529625e+02 
       6.958678637575e-01       1.653545811063e+02 
       7.322247983784e-01       1.476954122417e+02 
       7.730680193171e-01       1.308332614388e+02 
       8.193049551574e-01       1.148313748642e+02 
       8.718988013754e-01       9.976237662685e+01 
       9.317218028590e-01       8.577789836664e+01 
       9.993660906273e-01       7.305499262787e+01 
       1.075037109879e+00       6.173583345879e+01 
       1.158653485387e+00       5.187906743681e+01 
       1.250099156961e+00       4.344003177258e+01 
       1.349432400897e+00       3.628941889613e+01 
       1.456947456991e+00       3.026807463523e+01 
       1.573135110893e+00       2.521466532559e+01 
       1.698621895119e+00       2.098199927687e+01 
       1.834127512423e+00       1.744240429088e+01 
       1.980444933977e+00       1.448555462582e+01 
       2.138435191130e+00       1.201887513153e+01 
       2.309029198543e+00       9.963026488139e+00 
       2.493232376993e+00       8.251697250475e+00 
       2.692130394536e+00       6.828449705949e+00 
       2.906895533764e+00       5.646100751448e+00 
       3.138793596840e+00       4.664744447064e+00 
       3.389191365541e+00       3.850924931357e+00 
       3.659564656886e+00       3.176727210045e+00 
       3.951507021438e+00       2.618653853862e+00 
       4.266739135513e+00       2.157094922022e+00 
       4.607118942658e+00       1.775655551901e+00 
       4.974652604172e+00       1.460691030947e+00 
       5.371506323193e+00       1.200817146283e+00 
       5.800019112071e+00       9.865363855782e-01 
       6.262716578240e+00       8.099821446834e-01 
       6.762325809881e+00       6.646124555176e-01 
       7.301791449077e+00       5.450056022116e-01 
       7.884293047211e+00       4.466429058261e-01 
       8.513263804891e+00       3.658145637353e-01 
       9.192410806865e+00       2.994247345695e-01 
       9.925736871166e+00       2.449299579725e-01 
       1.071756414128e+01       2.002229042115e-01 
       1.157255956041e+01       1.635637682768e-01 
       1.249576237789e+01       1.335181443656e-01 
       1.349261385000e+01       1.089049319412e-01 
       1.456898931011e+01       8.874958304428e-02 
       1.573123279727e+01       7.225255620476e-02 
       1.698619444729e+01       5.875374404785e-02 
       1.834127086665e+01       4.771298406922e-02 
       1.980444872733e+01       3.868478275247e-02 
       2.138435183937e+01       3.130496274171e-02 
       2.309029197863e+01       2.527356730890e-02 
       2.493232376942e+01       2.034604848315e-02 
       2.692130394533e+01       1.632128748156e-02 
       2.906895533764e+01       1.303536330074e-02 
       3.138793596840e+01       1.035420031003e-02 
       3.389191365541e+01       8.168311610318e-03 
       3.659564656886e+01       6.388560129145e-03 
       3.951507021438e+01       4.942686803410e-03 
       4.266739135513e+01       3.771778703710e-03 
       4.607118942658e+01       2.828058406454e-03 
       4.974652604172e+01       2.073169126271e-03 
       5.371506323193e+01       1.475594169078e-03 
       5.800019112071e+01       1.009978434313e-03 
       6.262716578240e+01       6.553508484221e-04 
       6.762325809881e+01       3.942302098347e-04 
