# Matter power spectrum P(k) at redshift z=99
# for k=1.04775e-05 to 66.1767 h/Mpc,
# number of wavenumbers equal to 130
#    1:k (h/Mpc)              2:P (Mpc/h)^3        
       1.047750691046e-05       7.261927681125e-03 
       1.319039970183e-05       9.069258202178e-03 
       1.660572937635e-05       1.132639106766e-02 
       2.090537469327e-05       1.414527123450e-02 
       2.631830744443e-05       1.766569584122e-02 
       3.313278603720e-05       2.206225516022e-02 
       4.171170630578e-05       2.755297766377e-02 
       5.251192703764e-05       3.441013523072e-02 
       6.610859936996e-05       4.297372172933e-02 
       8.322579568497e-05       5.366826853138e-02 
       1.047750691046e-04       6.702379873016e-02 
       1.319039970183e-04       8.370193441587e-02 
       1.660572937635e-04       1.045283355422e-01 
       2.090537469327e-04       1.305329134150e-01 
       2.631830744443e-04       1.629994506663e-01 
       3.313278603720e-04       2.035264004672e-01 
       4.171170630578e-04       2.541004744328e-01 
       5.251192703764e-04       3.171839528659e-01 
       6.610859936996e-04       3.958147256631e-01 
       8.322579568497e-04       4.937136006406e-01 
       1.047750691046e-03       6.153841636162e-01 
       1.319039970183e-03       7.661720592371e-01 
       1.660572937635e-03       9.522588016415e-01 
       2.090537469327e-03       1.180312991648e+00 
       2.631830744443e-03       1.456802684543e+00 
       3.313278603720e-03       1.786503853709e+00 
       4.171170630578e-03       2.169896193245e+00 
       5.251192703764e-03       2.599430629202e+00 
       6.610859936996e-03       3.055668705087e+00 
       8.322579568497e-03       3.505725592692e+00 
       1.047750691046e-02       3.905491499486e+00 
       1.319039970183e-02       4.200915322701e+00 
       1.660572937633e-02       4.325060048348e+00 
       2.090537453514e-02       4.210200036161e+00 
       2.631818545635e-02       3.825150251649e+00 
       3.311571692125e-02       3.229065907810e+00 
       4.113809243311e-02       2.627722858310e+00 
       4.792590854610e-02       2.280787133345e+00 
       5.284436902701e-02       2.110083221377e+00 
       5.689644391095e-02       2.003538135523e+00 
       6.051252627066e-02       1.923052768040e+00 
       6.388413457411e-02       1.852730042903e+00 
       6.711249296401e-02       1.784565376572e+00 
       7.025823437965e-02       1.714276294577e+00 
       7.336115587705e-02       1.639810177986e+00 
       7.644928796912e-02       1.560658583838e+00 
       7.954353299775e-02       1.477452651548e+00 
       8.266024078725e-02       1.391693996210e+00 
       8.581273398637e-02       1.305455748637e+00 
       8.901225918437e-02       1.221118658737e+00 
       9.226860540985e-02       1.141070750155e+00 
       9.559052048996e-02       1.067444938647e+00 
       9.898599946599e-02       1.001879852992e+00 
       1.024624891378e-01       9.453787231351e-01 
       1.060270359164e-01       8.981393889418e-01 
       1.096863943056e-01       8.596033056769e-01 
       1.134471073830e-01       8.283941990570e-01 
       1.173155669539e-01       8.024548743995e-01 
       1.212980586983e-01       7.792161046602e-01 
       1.254007961065e-01       7.559035931952e-01 
       1.296299459934e-01       7.299661646280e-01 
       1.339916477160e-01       6.995747635482e-01 
       1.384920277736e-01       6.640597110512e-01 
       1.431372111762e-01       6.241279288680e-01 
       1.479333307714e-01       5.817431645151e-01 
       1.528865355934e-01       5.396694237824e-01 
       1.580029992204e-01       5.007900132691e-01 
       1.632889290723e-01       4.673736499127e-01 
       1.687505775527e-01       4.405072993481e-01 
       1.743942559171e-01       4.198378880577e-01 
       1.802263517371e-01       4.036295017189e-01 
       1.862533508214e-01       3.893292964839e-01 
       1.924818644494e-01       3.741010713637e-01 
       1.989186627765e-01       3.557659475852e-01 
       2.055707152847e-01       3.339627005752e-01 
       2.124452391818e-01       3.102262071949e-01 
       2.195497567139e-01       2.870801782387e-01 
       2.268921624510e-01       2.667630813477e-01 
       2.344808017550e-01       2.504363111472e-01 
       2.423245618548e-01       2.377834315293e-01 
       2.504329772620e-01       2.270592542553e-01 
       2.588163516754e-01       2.160610810777e-01 
       2.674858990930e-01       2.034861195934e-01 
       2.764539076010e-01       1.895350914446e-01 
       2.857339303080e-01       1.756914551787e-01 
       2.953410092148e-01       1.636304981935e-01 
       3.052919395542e-01       1.538338219903e-01 
       3.156055844677e-01       1.454538055958e-01 
       3.263032530092e-01       1.371685935998e-01 
       3.374091587054e-01       1.282158555897e-01 
       3.489509817175e-01       1.190814450681e-01 
       3.609605657343e-01       1.107126043579e-01 
       3.734747921333e-01       1.035456326261e-01 
       3.865366902904e-01       9.703585705747e-02 
       4.001968667448e-01       9.050455045622e-02 
       4.145153713076e-01       8.392020437756e-02 
       4.295641718077e-01       7.776802146966e-02 
       4.454304922144e-01       7.221176148648e-02 
       4.622214006969e-01       6.695656359538e-02 
       4.800702491654e-01       6.174715498006e-02 
       4.991459272112e-01       5.677327152604e-02 
       5.196665217302e-01       5.215396915353e-02 
       5.419201087032e-01       4.766045150009e-02 
       5.662975451962e-01       4.330389506615e-02 
       5.933463737275e-01       3.913582814881e-02 
       6.238638458458e-01       3.504451312364e-02 
       6.590669257916e-01       3.103792332702e-02 
       7.009246080454e-01       2.704338886135e-02 
       7.528593308799e-01       2.301068840370e-02 
       8.213469537518e-01       1.884922642783e-02 
       9.196980813302e-01       1.447353367822e-02 
       1.075112183810e+00       9.939073624680e-03 
       1.322697471132e+00       5.867212860815e-03 
       1.662328205042e+00       3.080364830263e-03 
       2.092692408506e+00       1.409907850445e-03 
       2.634543445090e+00       4.769051446518e-04 
       3.316693691389e+00       6.332289586498e-05 
       4.175469971226e+00       1.120332900772e-05 
       5.256605252960e+00       9.803646953597e-05 
       6.617673932723e+00       8.509729604911e-05 
       8.331157880872e+00       4.741076784186e-06 
       1.048830636590e+01       1.459623571189e-05 
       1.320399541071e+01       2.774328836116e-06 
       1.662284535976e+01       2.911078045723e-06 
       2.092692243973e+01       2.639195359596e-07 
       2.634543445002e+01       2.259437382035e-08 
       3.316693691389e+01       1.341865034863e-08 
       4.175469971226e+01       2.285993782609e-09 
       5.256605252960e+01       1.077357149630e-10 
       6.617673932723e+01       3.588380853515e-12 
