# Matter power spectrum P(k) at redshift z=99
# for k=1.04775e-05 to 66.1767 h/Mpc,
# number of wavenumbers equal to 130
#    1:k (h/Mpc)              2:P (Mpc/h)^3        
       1.047750691046e-05       7.261927680891e-03 
       1.319039970183e-05       9.069258201885e-03 
       1.660572937635e-05       1.132639106730e-02 
       2.090537469327e-05       1.414527123405e-02 
       2.631830744443e-05       1.766569584065e-02 
       3.313278603720e-05       2.206225515951e-02 
       4.171170630578e-05       2.755297766288e-02 
       5.251192703764e-05       3.441013522961e-02 
       6.610859936996e-05       4.297372172795e-02 
       8.322579568497e-05       5.366826852966e-02 
       1.047750691046e-04       6.702379872801e-02 
       1.319039970183e-04       8.370193441320e-02 
       1.660572937635e-04       1.045283355388e-01 
       2.090537469327e-04       1.305329134109e-01 
       2.631830744443e-04       1.629994506612e-01 
       3.313278603720e-04       2.035264004609e-01 
       4.171170630578e-04       2.541004744252e-01 
       5.251192703764e-04       3.171839528569e-01 
       6.610859936996e-04       3.958147256526e-01 
       8.322579568497e-04       4.937136006292e-01 
       1.047750691046e-03       6.153841636055e-01 
       1.319039970183e-03       7.661720592704e-01 
       1.660572937635e-03       9.522588016413e-01 
       2.090537469327e-03       1.180312991694e+00 
       2.631830744443e-03       1.456802684670e+00 
       3.313278603720e-03       1.786503854000e+00 
       4.171170630578e-03       2.169896195296e+00 
       5.251192703764e-03       2.599430630552e+00 
       6.610859936996e-03       3.055668714006e+00 
       8.322579568497e-03       3.505725597818e+00 
       1.047750691046e-02       3.905491255451e+00 
       1.319039970183e-02       4.200915315770e+00 
       1.660572937633e-02       4.325060966474e+00 
       2.090537453514e-02       4.210199746805e+00 
       2.631818545635e-02       3.825152431700e+00 
       3.311571692125e-02       3.229062304513e+00 
       4.113809243311e-02       2.627724450573e+00 
       4.792590854610e-02       2.280792800945e+00 
       5.284436902701e-02       2.110082871005e+00 
       5.689644391095e-02       2.003543245387e+00 
       6.051252627066e-02       1.923056874820e+00 
       6.388413457411e-02       1.852734189147e+00 
       6.711249296401e-02       1.784563713973e+00 
       7.025823437965e-02       1.714271178469e+00 
       7.336115587705e-02       1.639816903427e+00 
       7.644928796912e-02       1.560661743630e+00 
       7.954353299775e-02       1.477454043600e+00 
       8.266024078725e-02       1.391697751257e+00 
       8.581273398637e-02       1.305458694944e+00 
       8.901225918437e-02       1.221127290086e+00 
       9.226860540985e-02       1.141079095590e+00 
       9.559052048996e-02       1.067450097960e+00 
       9.898599946599e-02       1.001890939368e+00 
       1.024624891378e-01       9.453835108582e-01 
       1.060270359164e-01       8.981496125397e-01 
       1.096863943056e-01       8.596135350152e-01 
       1.134471073830e-01       8.284049813958e-01 
       1.173155669539e-01       8.024668200009e-01 
       1.212980586983e-01       7.792286254193e-01 
       1.254007961065e-01       7.559174336418e-01 
       1.296299459934e-01       7.299832241027e-01 
       1.339916477160e-01       6.995934387617e-01 
       1.384920277736e-01       6.640807136362e-01 
       1.431372111762e-01       6.241478943277e-01 
       1.479333307714e-01       5.817651644553e-01 
       1.528865355934e-01       5.396893844618e-01 
       1.580029992204e-01       5.008134332883e-01 
       1.632889290723e-01       4.673979105708e-01 
       1.687505775527e-01       4.405341711762e-01 
       1.743942559171e-01       4.198652332778e-01 
       1.802263517371e-01       4.036588708571e-01 
       1.862533508214e-01       3.893615504706e-01 
       1.924818644494e-01       3.741388406605e-01 
       1.989186627765e-01       3.558076273867e-01 
       2.055707152847e-01       3.340024979845e-01 
       2.124452391818e-01       3.102651038842e-01 
       2.195497567139e-01       2.871213795924e-01 
       2.268921624510e-01       2.668074318328e-01 
       2.344808017550e-01       2.504839606505e-01 
       2.423245618548e-01       2.378331169434e-01 
       2.504329772620e-01       2.271114514753e-01 
       2.588163516754e-01       2.161195128297e-01 
       2.674858990930e-01       2.035470829267e-01 
       2.764539076010e-01       1.895973443537e-01 
       2.857339303080e-01       1.757567291689e-01 
       2.953410092148e-01       1.636992814544e-01 
       3.052919395542e-01       1.539060521442e-01 
       3.156055844677e-01       1.455306229011e-01 
       3.263032530092e-01       1.372499338742e-01 
       3.374091587054e-01       1.283016330987e-01 
       3.489509817175e-01       1.191705963670e-01 
       3.609605657343e-01       1.108067746226e-01 
       3.734747921333e-01       1.036446769595e-01 
       3.865366902904e-01       9.714107737639e-02 
       4.001968667448e-01       9.061528074035e-02 
       4.145153713076e-01       8.403676056412e-02 
       4.295641718077e-01       7.789096982682e-02 
       4.454304922144e-01       7.234141010308e-02 
       4.622214006969e-01       6.709335801619e-02 
       4.800702491654e-01       6.189150370104e-02 
       4.991459272112e-01       5.692587115004e-02 
       5.196665217302e-01       5.231592229534e-02 
       5.419201087032e-01       4.783242082841e-02 
       5.662975451962e-01       4.348652010030e-02 
       5.933463737275e-01       3.933074915768e-02 
       6.238638458458e-01       3.525307149623e-02 
       6.590669257916e-01       3.126247421287e-02 
       7.009246080454e-01       2.728699870603e-02 
       7.528593308799e-01       2.327805088699e-02 
       8.213469537518e-01       1.914779026945e-02 
       9.196980813302e-01       1.481661285164e-02 
       1.075112183810e+00       1.035043125509e-02 
       1.322697471132e+00       6.378939129520e-03 
       1.662328205042e+00       3.705089296384e-03 
       2.092692408506e+00       2.123897215210e-03 
       2.634543445090e+00       1.207209630418e-03 
       3.316693691389e+00       6.808325058680e-04 
       4.175469971226e+00       3.810790194986e-04 
       5.256605252960e+00       2.116247287951e-04 
       6.617673932723e+00       1.164136294870e-04 
       8.331157880872e+00       6.316643960787e-05 
       1.048830636590e+01       3.347035544855e-05 
       1.320399541071e+01       1.693066559918e-05 
       1.662284535976e+01       7.768587326987e-06 
       2.092692243973e+01       2.860303134155e-06 
       2.634543445002e+01       5.791966326766e-07 
       3.316693691389e+01       3.701093362039e-13 
       4.175469971226e+01       2.529518924766e-07 
       5.256605252960e+01       3.666657355822e-07 
       6.617673932723e+01       8.468620128664e-08 
