# Matter power spectrum P(k) at redshift z=0
# for k=1.04775e-05 to 67.6233 h/Mpc,
# number of wavenumbers equal to 246
#    1:k (h/Mpc)              2:P (Mpc/h)^3        
       1.047750691046e-05       5.020964811307e+01 
       1.131335172503e-05       5.407050701925e+01 
       1.221587619537e-05       5.822819068599e+01 
       1.319039970183e-05       6.270562594779e+01 
       1.424266597921e-05       6.752732240880e+01 
       1.537887696968e-05       7.271977206173e+01 
       1.660572937635e-05       7.831147247912e+01 
       1.793045413292e-05       8.433311821988e+01 
       1.936085902198e-05       9.081778249833e+01 
       2.090537469327e-05       9.780108069297e+01 
       2.257310435294e-05       1.053213197893e+02 
       2.437387741694e-05       1.134197377890e+02 
       2.631830744443e-05       1.221408203809e+02 
       2.841785469300e-05       1.315324642460e+02 
       3.068489366414e-05       1.416462094882e+02 
       3.313278603720e-05       1.525374501932e+02 
       3.577595942169e-05       1.642660688414e+02 
       3.862999239199e-05       1.768963506307e+02 
       4.171170630578e-05       1.904975994010e+02 
       4.503926444729e-05       2.051444491973e+02 
       4.863227907969e-05       2.209171465549e+02 
       5.251192703764e-05       2.379022224249e+02 
       5.670107454120e-05       2.561927927678e+02 
       6.122441196689e-05       2.758890444040e+02 
       6.610859936996e-05       2.970989227882e+02 
       7.138242361596e-05       3.199385560802e+02 
       7.707696804727e-05       3.445329783680e+02 
       8.322579568497e-05       3.710167318945e+02 
       8.986514704559e-05       3.995346444203e+02 
       9.703415373875e-05       4.302425407383e+02 
       1.047750691046e-04       4.633080766742e+02 
       1.131335172503e-04       4.989116271564e+02 
       1.221587619537e-04       5.372471950929e+02 
       1.319039970183e-04       5.785234129336e+02 
       1.424266597921e-04       6.229645934871e+02 
       1.537887696968e-04       6.708118490405e+02 
       1.660572937635e-04       7.223242666092e+02 
       1.793045413292e-04       7.777801560585e+02 
       1.936085902198e-04       8.374783614139e+02 
       2.090537469327e-04       9.017396271823e+02 
       2.257310435294e-04       9.709080268040e+02 
       2.437387741694e-04       1.045352449493e+03 
       2.631830744443e-04       1.125468123750e+03 
       2.841785469300e-04       1.211678180494e+03 
       3.068489366414e-04       1.304435250150e+03 
       3.313278603720e-04       1.404223053681e+03 
       3.577595942169e-04       1.511558014616e+03 
       3.862999239199e-04       1.626990837779e+03 
       4.171170630578e-04       1.751108028790e+03 
       4.503926444729e-04       1.884533382871e+03 
       4.863227907969e-04       2.027929378112e+03 
       5.251192703764e-04       2.181998448132e+03 
       5.670107454121e-04       2.347484102753e+03 
       6.122441196689e-04       2.525171871365e+03 
       6.610859936996e-04       2.715889983590e+03 
       7.138242361596e-04       2.920509688382e+03 
       7.707696804727e-04       3.139945100275e+03 
       8.322579568497e-04       3.375152337584e+03 
       8.986514704559e-04       3.627127831135e+03 
       9.703415373875e-04       3.896905453128e+03 
       1.047750691046e-03       4.185552174296e+03 
       1.131335172503e-03       4.494162430361e+03 
       1.221587619537e-03       4.823850706480e+03 
       1.319039970183e-03       5.175742743669e+03 
       1.424266597921e-03       5.551019596876e+03 
       1.537887696968e-03       5.950788340527e+03 
       1.660572937635e-03       6.376123051696e+03 
       1.793045413292e-03       6.828073901402e+03 
       1.936085902198e-03       7.307625380999e+03 
       2.090537469327e-03       7.815671868361e+03 
       2.257310435294e-03       8.352990375708e+03 
       2.437387741694e-03       8.920211064224e+03 
       2.631830744443e-03       9.517783068933e+03 
       2.841785469300e-03       1.014593704413e+04 
       3.068489366414e-03       1.080464502760e+04 
       3.313278603720e-03       1.149357460310e+04 
       3.577595942169e-03       1.221203621676e+04 
       3.862999239199e-03       1.295892539388e+04 
       4.171170630578e-03       1.373266014538e+04 
       4.503926444729e-03       1.453111835533e+04 
       4.863227907969e-03       1.535154982021e+04 
       5.251192703764e-03       1.619063595132e+04 
       5.670107454120e-03       1.704431256685e+04 
       6.122441196689e-03       1.790755950865e+04 
       6.610859936996e-03       1.877460426801e+04 
       7.138242361596e-03       1.963872466472e+04 
       7.707696804727e-03       2.049215712662e+04 
       8.322579568496e-03       2.132611388094e+04 
       8.986514704559e-03       2.213054995368e+04 
       9.703415373875e-03       2.289445597580e+04 
       1.047750691046e-02       2.360548796079e+04 
       1.131335172503e-02       2.425022559346e+04 
       1.221587619537e-02       2.481423921932e+04 
       1.319039970183e-02       2.528219390630e+04 
       1.424266597920e-02       2.563815728652e+04 
       1.537887696964e-02       2.586608232224e+04 
       1.660572937560e-02       2.595027098446e+04 
       1.793045412207e-02       2.587635309403e+04 
       1.936085889642e-02       2.563220765492e+04 
       2.090537351881e-02       2.520935249043e+04 
       2.257309534705e-02       2.460462813263e+04 
       2.437382002240e-02       2.382087409238e+04 
       2.631799943729e-02       2.287035773141e+04 
       2.841644544598e-02       2.177442775677e+04 
       3.067933354524e-02       2.056549995969e+04 
       3.311368469821e-02       1.928723204783e+04 
       3.571840442514e-02       1.799394074901e+04 
       3.847720347390e-02       1.674684496058e+04 
       4.135335537314e-02       1.560444407463e+04 
       4.429361666563e-02       1.461029058532e+04 
       4.724366437916e-02       1.378050972707e+04 
       5.016480834039e-02       1.310503233778e+04 
       5.303989618930e-02       1.255713786713e+04 
       5.586870668205e-02       1.210423750970e+04 
       5.866042679206e-02       1.171462963917e+04 
       6.142798931504e-02       1.136049939851e+04 
       6.418496438662e-02       1.101861917305e+04 
       6.694418832236e-02       1.067068424763e+04 
       6.971731104453e-02       1.030343318260e+04 
       7.251476154108e-02       9.909062684337e+03 
       7.534587669814e-02       9.483683632773e+03 
       7.821907664495e-02       9.029360604143e+03 
       8.114203771084e-02       8.552149142393e+03 
       8.412184533139e-02       8.061956374892e+03 
       8.716512277352e-02       7.570798850412e+03 
       9.027813693913e-02       7.092504262859e+03 
       9.346688429613e-02       6.640515264533e+03 
       9.673716026122e-02       6.226721403945e+03 
       1.000946150608e-01       5.859946219683e+03 
       1.035447986307e-01       5.545259273019e+03 
       1.070931966524e-01       5.283161017198e+03 
       1.107452594180e-01       5.069458979386e+03 
       1.145064248899e-01       4.895271274614e+03 
       1.183821370656e-01       4.747842785211e+03 
       1.223778605591e-01       4.611717112675e+03 
       1.264990921707e-01       4.470614730809e+03 
       1.307513701078e-01       4.310286679097e+03 
       1.351402814485e-01       4.121395592354e+03 
       1.396714683894e-01       3.902047439065e+03 
       1.443506337875e-01       3.658654160287e+03 
       1.491835464900e-01       3.404473762625e+03 
       1.541760469368e-01       3.156637572549e+03 
       1.593340535209e-01       2.931934459070e+03 
       1.646635701934e-01       2.742352208036e+03 
       1.701706958081e-01       2.592234972790e+03 
       1.758616357070e-01       2.477214661503e+03 
       1.817427160581e-01       2.385163205742e+03 
       1.878204014651e-01       2.300344520168e+03 
       1.941013163855e-01       2.205771569368e+03 
       2.005922709060e-01       2.090841612682e+03 
       2.073002914514e-01       1.956460916288e+03 
       2.142326570343e-01       1.814175727540e+03 
       2.213969417044e-01       1.679274405992e+03 
       2.288010639201e-01       1.563848208493e+03 
       2.364533436625e-01       1.472669060058e+03 
       2.443625682390e-01       1.401512502355e+03 
       2.525380678946e-01       1.338419618778e+03 
       2.609898025770e-01       1.270897253586e+03 
       2.697284614969e-01       1.193357336685e+03 
       2.787655775073e-01       1.109327883968e+03 
       2.881136588192e-01       1.028761597847e+03 
       2.977863412019e-01       9.604712620403e+02 
       3.077985646248e-01       9.050130397537e+02 
       3.181667793367e-01       8.561337527115e+02 
       3.289091877084e-01       8.061810058032e+02 
       3.400460298905e-01       7.523810624733e+02 
       3.515999235695e-01       6.989113443950e+02 
       3.635962710278e-01       6.510566290331e+02 
       3.760637505499e-01       6.101163153329e+02 
       3.890349143014e-01       5.721276632629e+02 
       4.025469215929e-01       5.337746865578e+02 
       4.166424455447e-01       4.956219189912e+02 
       4.313708034899e-01       4.604638204928e+02 
       4.467893781976e-01       4.287682821464e+02 
       4.629654198623e-01       3.987670385300e+02 
       4.799783500912e-01       3.692336666231e+02 
       4.979227318246e-01       3.412352835100e+02 
       5.169121269689e-01       3.154769845916e+02 
       5.370841403262e-01       2.908295785970e+02 
       5.586070463286e-01       2.671004053112e+02 
       5.816885093582e-01       2.448034580214e+02 
       6.065870143577e-01       2.235638696583e+02 
       6.336266466978e-01       2.032063505926e+02 
       6.632156057925e-01       1.838752129971e+02 
       6.958678637575e-01       1.653513255874e+02 
       7.322247983784e-01       1.476923994269e+02 
       7.730680193171e-01       1.308313366593e+02 
       8.193049551574e-01       1.148289291179e+02 
       8.718988013754e-01       9.976032683756e+01 
       9.317218028590e-01       8.577490518344e+01 
       9.993660906273e-01       7.305189014903e+01 
       1.075037109879e+00       6.173334823703e+01 
       1.158653485387e+00       5.187633626628e+01 
       1.250099156961e+00       4.343747932797e+01 
       1.349432400897e+00       3.628640423587e+01 
       1.456947456991e+00       3.026539989622e+01 
       1.573135110893e+00       2.521197039014e+01 
       1.698621895119e+00       2.097953842482e+01 
       1.834127512423e+00       1.743984272782e+01 
       1.980444933977e+00       1.448312828089e+01 
       2.138435191130e+00       1.201647185903e+01 
       2.309029198543e+00       9.960722503875e+00 
       2.493232376993e+00       8.249391171351e+00 
       2.692130394536e+00       6.826134236916e+00 
       2.906895533764e+00       5.643829692675e+00 
       3.138793596840e+00       4.662449691235e+00 
       3.389191365541e+00       3.848775816468e+00 
       3.659564656886e+00       3.174648515632e+00 
       3.951507021438e+00       2.616604183012e+00 
       4.266739135513e+00       2.155101873699e+00 
       4.607118942658e+00       1.773711324820e+00 
       4.974652604172e+00       1.458815907374e+00 
       5.371506323193e+00       1.198994677317e+00 
       5.800019112071e+00       9.847788641469e-01 
       6.262716578240e+00       8.082885233379e-01 
       6.762325809881e+00       6.629817334874e-01 
       7.301791449077e+00       5.434377647059e-01 
       7.884293047211e+00       4.451536203943e-01 
       8.513263804891e+00       3.643934796979e-01 
       9.192410806865e+00       2.980781071584e-01 
       9.925736871166e+00       2.436584946039e-01 
       1.071756414128e+01       1.990280509071e-01 
       1.157255956041e+01       1.624464572000e-01 
       1.249576237789e+01       1.324822118722e-01 
       1.349261385000e+01       1.079511469639e-01 
       1.456898931011e+01       8.788022717574e-02 
       1.573123279727e+01       7.146692182907e-02 
       1.698619444729e+01       5.805459336670e-02 
       1.834127086665e+01       4.710030149748e-02 
       1.980444872733e+01       3.815884441337e-02 
       2.138435183937e+01       3.086501851895e-02 
       2.309029197863e+01       2.491995489592e-02 
       2.493232376942e+01       2.007717426394e-02 
       2.692130394533e+01       1.613589946733e-02 
       2.906895533764e+01       1.293095975819e-02 
       3.138793596840e+01       1.032746631125e-02 
       3.389191365541e+01       8.215011249972e-03 
       3.659564656886e+01       6.503537223370e-03 
       3.951507021438e+01       5.119344153978e-03 
       4.266739135513e+01       4.002051297018e-03 
       4.607118942658e+01       3.102853451819e-03 
       4.974652604172e+01       2.381592919677e-03 
       5.371506323193e+01       1.805756430440e-03 
       5.800019112071e+01       1.348737139964e-03 
       6.262716578240e+01       9.889261079711e-04 
       6.762325809881e+01       7.086469376479e-04 
