# Matter power spectrum P(k) at redshift z=99
# for k=1.04775e-05 to 66.1767 h/Mpc,
# number of wavenumbers equal to 130
#    1:k (h/Mpc)              2:P (Mpc/h)^3        
       1.047750691046e-05       7.261927680862e-03 
       1.319039970183e-05       9.069258201849e-03 
       1.660572937635e-05       1.132639106725e-02 
       2.090537469327e-05       1.414527123399e-02 
       2.631830744443e-05       1.766569584058e-02 
       3.313278603720e-05       2.206225515942e-02 
       4.171170630578e-05       2.755297766277e-02 
       5.251192703764e-05       3.441013522947e-02 
       6.610859936996e-05       4.297372172778e-02 
       8.322579568497e-05       5.366826852944e-02 
       1.047750691046e-04       6.702379872775e-02 
       1.319039970183e-04       8.370193441286e-02 
       1.660572937635e-04       1.045283355384e-01 
       2.090537469327e-04       1.305329134104e-01 
       2.631830744443e-04       1.629994506605e-01 
       3.313278603720e-04       2.035264004601e-01 
       4.171170630578e-04       2.541004744243e-01 
       5.251192703764e-04       3.171839528557e-01 
       6.610859936996e-04       3.958147256513e-01 
       8.322579568497e-04       4.937136006264e-01 
       1.047750691046e-03       6.153841636041e-01 
       1.319039970183e-03       7.661720592892e-01 
       1.660572937635e-03       9.522588016474e-01 
       2.090537469327e-03       1.180312991698e+00 
       2.631830744443e-03       1.456802684686e+00 
       3.313278603720e-03       1.786503854045e+00 
       4.171170630578e-03       2.169896196283e+00 
       5.251192703764e-03       2.599430630719e+00 
       6.610859936996e-03       3.055668708210e+00 
       8.322579568497e-03       3.505724921777e+00 
       1.047750691046e-02       3.905491291912e+00 
       1.319039970183e-02       4.200915351183e+00 
       1.660572937633e-02       4.325062854030e+00 
       2.090537453514e-02       4.210200141221e+00 
       2.631818545635e-02       3.825156792350e+00 
       3.311571692125e-02       3.229057603810e+00 
       4.113809243311e-02       2.627725584092e+00 
       4.792590854610e-02       2.280795363270e+00 
       5.284436902701e-02       2.110086493080e+00 
       5.689644391095e-02       2.003534840811e+00 
       6.051252627066e-02       1.923057378480e+00 
       6.388413457411e-02       1.852731790854e+00 
       6.711249296401e-02       1.784565867375e+00 
       7.025823437965e-02       1.714272381549e+00 
       7.336115587705e-02       1.639816340202e+00 
       7.644928796912e-02       1.560660450344e+00 
       7.954353299775e-02       1.477457666786e+00 
       8.266024078725e-02       1.391697594375e+00 
       8.581273398637e-02       1.305461464264e+00 
       8.901225918437e-02       1.221126708172e+00 
       9.226860540985e-02       1.141080483430e+00 
       9.559052048996e-02       1.067453864518e+00 
       9.898599946599e-02       1.001888513528e+00 
       1.024624891378e-01       9.453821066483e-01 
       1.060270359164e-01       8.981501002500e-01 
       1.096863943056e-01       8.596149650399e-01 
       1.134471073830e-01       8.284053965726e-01 
       1.173155669539e-01       8.024665903249e-01 
       1.212980586983e-01       7.792270571552e-01 
       1.254007961065e-01       7.559171717030e-01 
       1.296299459934e-01       7.299805696508e-01 
       1.339916477160e-01       6.995919288612e-01 
       1.384920277736e-01       6.640790900658e-01 
       1.431372111762e-01       6.241472859085e-01 
       1.479333307714e-01       5.817634299907e-01 
       1.528865355934e-01       5.396921037626e-01 
       1.580029992204e-01       5.008142442682e-01 
       1.632889290723e-01       4.673988315578e-01 
       1.687505775527e-01       4.405344209331e-01 
       1.743942559171e-01       4.198655416032e-01 
       1.802263517371e-01       4.036594540916e-01 
       1.862533508214e-01       3.893596801469e-01 
       1.924818644494e-01       3.741347224219e-01 
       1.989186627765e-01       3.558028532277e-01 
       2.055707152847e-01       3.339992475191e-01 
       2.124452391818e-01       3.102660555341e-01 
       2.195497567139e-01       2.871226391207e-01 
       2.268921624510e-01       2.668085576580e-01 
       2.344808017550e-01       2.504835823425e-01 
       2.423245618548e-01       2.378333175456e-01 
       2.504329772620e-01       2.271117816970e-01 
       2.588163516754e-01       2.161187370541e-01 
       2.674858990930e-01       2.035458505395e-01 
       2.764539076010e-01       1.895980786554e-01 
       2.857339303080e-01       1.757573374966e-01 
       2.953410092148e-01       1.636990370451e-01 
       3.052919395542e-01       1.539063415169e-01 
       3.156055844677e-01       1.455309474164e-01 
       3.263032530092e-01       1.372506977286e-01 
       3.374091587054e-01       1.283021687497e-01 
       3.489509817175e-01       1.191709798658e-01 
       3.609605657343e-01       1.108070765251e-01 
       3.734747921333e-01       1.036449099370e-01 
       3.865366902904e-01       9.714150357066e-02 
       4.001968667448e-01       9.061560432121e-02 
       4.145153713076e-01       8.403706039175e-02 
       4.295641718077e-01       7.789128416307e-02 
       4.454304922144e-01       7.234165534445e-02 
       4.622214006969e-01       6.709378507919e-02 
       4.800702491654e-01       6.189188587027e-02 
       4.991459272112e-01       5.692622409089e-02 
       5.196665217302e-01       5.231611092533e-02 
       5.419201087032e-01       4.783264999966e-02 
       5.662975451962e-01       4.348686659899e-02 
       5.933463737275e-01       3.933109089239e-02 
       6.238638458458e-01       3.525345808428e-02 
       6.590669257916e-01       3.126291399087e-02 
       7.009246080454e-01       2.728738012131e-02 
       7.528593308799e-01       2.327844623485e-02 
       8.213469537518e-01       1.914829511952e-02 
       9.196980813302e-01       1.481702759821e-02 
       1.075112183810e+00       1.035092448199e-02 
       1.322697471132e+00       6.379455655119e-03 
       1.662328205042e+00       3.705650311668e-03 
       2.092692408506e+00       2.124541509778e-03 
       2.634543445090e+00       1.207960250745e-03 
       3.316693691389e+00       6.817075581121e-04 
       4.175469971226e+00       3.821171897133e-04 
       5.256605252960e+00       2.128690939429e-04 
       6.617673932723e+00       1.179175642480e-04 
       8.331157880872e+00       6.498309608303e-05 
       1.048830636590e+01       3.564103963375e-05 
       1.320399541071e+01       1.946212552557e-05 
       1.662284535976e+01       1.058409834905e-05 
       2.092692243973e+01       5.733849919831e-06 
       2.634543445002e+01       3.094883442915e-06 
       3.316693691389e+01       1.664539799587e-06 
       4.175469971226e+01       8.920303897249e-07 
       5.256605252960e+01       4.762244891265e-07 
       6.617673932723e+01       2.531433075084e-07 
