# Matter power spectrum P(k) at redshift z=0
# for k=1.04775e-05 to 67.6233 h/Mpc,
# number of wavenumbers equal to 246
#    1:k (h/Mpc)              2:P (Mpc/h)^3        
       1.047750691046e-05       5.020964811309e+01 
       1.131335172503e-05       5.407050701928e+01 
       1.221587619537e-05       5.822819068789e+01 
       1.319039970183e-05       6.270562594774e+01 
       1.424266597921e-05       6.752732240880e+01 
       1.537887696968e-05       7.271977206173e+01 
       1.660572937635e-05       7.831147247912e+01 
       1.793045413292e-05       8.433311821988e+01 
       1.936085902198e-05       9.081778249833e+01 
       2.090537469327e-05       9.780108069296e+01 
       2.257310435294e-05       1.053213197893e+02 
       2.437387741694e-05       1.134197377890e+02 
       2.631830744443e-05       1.221408203809e+02 
       2.841785469300e-05       1.315324642488e+02 
       3.068489366414e-05       1.416462094881e+02 
       3.313278603720e-05       1.525374501932e+02 
       3.577595942169e-05       1.642660688414e+02 
       3.862999239199e-05       1.768963506307e+02 
       4.171170630578e-05       1.904975994010e+02 
       4.503926444729e-05       2.051444491974e+02 
       4.863227907969e-05       2.209171465549e+02 
       5.251192703764e-05       2.379022224249e+02 
       5.670107454120e-05       2.561927928213e+02 
       6.122441196689e-05       2.758890444040e+02 
       6.610859936996e-05       2.970989227883e+02 
       7.138242361596e-05       3.199385560802e+02 
       7.707696804727e-05       3.445329783680e+02 
       8.322579568497e-05       3.710167318945e+02 
       8.986514704559e-05       3.995346444203e+02 
       9.703415373875e-05       4.302425407382e+02 
       1.047750691046e-04       4.633080766741e+02 
       1.131335172503e-04       4.989116271564e+02 
       1.221587619537e-04       5.372471950929e+02 
       1.319039970183e-04       5.785234129338e+02 
       1.424266597921e-04       6.229645934871e+02 
       1.537887696968e-04       6.708118490404e+02 
       1.660572937635e-04       7.223242666091e+02 
       1.793045413292e-04       7.777801560504e+02 
       1.936085902198e-04       8.374783614138e+02 
       2.090537469327e-04       9.017396271822e+02 
       2.257310435294e-04       9.709080268038e+02 
       2.437387741694e-04       1.045352449493e+03 
       2.631830744443e-04       1.125468123750e+03 
       2.841785469300e-04       1.211678180494e+03 
       3.068489366414e-04       1.304435250149e+03 
       3.313278603720e-04       1.404223053680e+03 
       3.577595942169e-04       1.511558014615e+03 
       3.862999239199e-04       1.626990837747e+03 
       4.171170630578e-04       1.751108028789e+03 
       4.503926444729e-04       1.884533382870e+03 
       4.863227907969e-04       2.027929378109e+03 
       5.251192703764e-04       2.181998448129e+03 
       5.670107454121e-04       2.347484102750e+03 
       6.122441196689e-04       2.525171871361e+03 
       6.610859936996e-04       2.715889983585e+03 
       7.138242361596e-04       2.920509688376e+03 
       7.707696804727e-04       3.139945100268e+03 
       8.322579568497e-04       3.375152337565e+03 
       8.986514704559e-04       3.627127831123e+03 
       9.703415373875e-04       3.896905453114e+03 
       1.047750691046e-03       4.185552174275e+03 
       1.131335172503e-03       4.494162430338e+03 
       1.221587619537e-03       4.823850706456e+03 
       1.319039970183e-03       5.175742739025e+03 
       1.424266597921e-03       5.551019596838e+03 
       1.537887696968e-03       5.950788340465e+03 
       1.660572937635e-03       6.376123051625e+03 
       1.793045413292e-03       6.828073901299e+03 
       1.936085902198e-03       7.307625380869e+03 
       2.090537469327e-03       7.815671913309e+03 
       2.257310435294e-03       8.352990375502e+03 
       2.437387741694e-03       8.920211063929e+03 
       2.631830744443e-03       9.517783068581e+03 
       2.841785469300e-03       1.014593704367e+04 
       3.068489366414e-03       1.080464502711e+04 
       3.313278603720e-03       1.149357460235e+04 
       3.577595942169e-03       1.221203621578e+04 
       3.862999239199e-03       1.295892539259e+04 
       4.171170630578e-03       1.373266008990e+04 
       4.503926444729e-03       1.453111835304e+04 
       4.863227907969e-03       1.535154975693e+04 
       5.251192703764e-03       1.619063557822e+04 
       5.670107454120e-03       1.704431254070e+04 
       6.122441196689e-03       1.790755971300e+04 
       6.610859936996e-03       1.877460437801e+04 
       7.138242361596e-03       1.963872527923e+04 
       7.707696804727e-03       2.049215700647e+04 
       8.322579568496e-03       2.132611022864e+04 
       8.986514704559e-03       2.213055116264e+04 
       9.703415373875e-03       2.289445702174e+04 
       1.047750691046e-02       2.360548168707e+04 
       1.131335172503e-02       2.425020412532e+04 
       1.221587619537e-02       2.481423345224e+04 
       1.319039970183e-02       2.528220471526e+04 
       1.424266597920e-02       2.563813163516e+04 
       1.537887696964e-02       2.586606741157e+04 
       1.660572937560e-02       2.595037526500e+04 
       1.793045412207e-02       2.587640321180e+04 
       1.936085889642e-02       2.563230447130e+04 
       2.090537351881e-02       2.520936259927e+04 
       2.257309534705e-02       2.460446688735e+04 
       2.437382002240e-02       2.382081194220e+04 
       2.631799943729e-02       2.287034151808e+04 
       2.841644544598e-02       2.177437372595e+04 
       3.067933354524e-02       2.056544699544e+04 
       3.311368469821e-02       1.928713891951e+04 
       3.571840442514e-02       1.799388185872e+04 
       3.847720347390e-02       1.674666858589e+04 
       4.135335537314e-02       1.560432660336e+04 
       4.429361666563e-02       1.461010754251e+04 
       4.724366437916e-02       1.378020440553e+04 
       5.016480834039e-02       1.310466937129e+04 
       5.303989618930e-02       1.255670441200e+04 
       5.586870668205e-02       1.210378111311e+04 
       5.866042679206e-02       1.171408661447e+04 
       6.142798931504e-02       1.135995291153e+04 
       6.418496438662e-02       1.101789851399e+04 
       6.694418832236e-02       1.066992175596e+04 
       6.971731104453e-02       1.030274227324e+04 
       7.251476154108e-02       9.908091452555e+03 
       7.534587669814e-02       9.482694187515e+03 
       7.821907664495e-02       9.028349278092e+03 
       8.114203771084e-02       8.551037839313e+03 
       8.412184533139e-02       8.060615857268e+03 
       8.716512277352e-02       7.569302352843e+03 
       9.027813693913e-02       7.090874402006e+03 
       9.346688429613e-02       6.638789029353e+03 
       9.673716026122e-02       6.224911597434e+03 
       1.000946150608e-01       5.858023593483e+03 
       1.035447986307e-01       5.543196005936e+03 
       1.070931966524e-01       5.280990290307e+03 
       1.107452594180e-01       5.067107427942e+03 
       1.145064248899e-01       4.892737850348e+03 
       1.183821370656e-01       4.745147800701e+03 
       1.223778605591e-01       4.608845295049e+03 
       1.264990921707e-01       4.467518036479e+03 
       1.307513701078e-01       4.306912079797e+03 
       1.351402814485e-01       4.117803690912e+03 
       1.396714683894e-01       3.898231974645e+03 
       1.443506337875e-01       3.654603138543e+03 
       1.491835464900e-01       3.400179882685e+03 
       1.541760469368e-01       3.152125292651e+03 
       1.593340535209e-01       2.927191578482e+03 
       1.646635701934e-01       2.737319161068e+03 
       1.701706958081e-01       2.586909046662e+03 
       1.758616357070e-01       2.471559596701e+03 
       1.817427160581e-01       2.379125339201e+03 
       1.878204014651e-01       2.293902995587e+03 
       1.941013163855e-01       2.198871037319e+03 
       2.005922709060e-01       2.083491725522e+03 
       2.073002914514e-01       1.948749718427e+03 
       2.142326570343e-01       1.806073996634e+03 
       2.213969417044e-01       1.670778329546e+03 
       2.288010639201e-01       1.554891317697e+03 
       2.364533436625e-01       1.463247407230e+03 
       2.443625682390e-01       1.391526755848e+03 
       2.525380678946e-01       1.327827013693e+03 
       2.609898025770e-01       1.259699785592e+03 
       2.697284614969e-01       1.181582373438e+03 
       2.787655775073e-01       1.096965547707e+03 
       2.881136588192e-01       1.015820557015e+03 
       2.977863412019e-01       9.468983252344e+02 
       3.077985646248e-01       8.907306908018e+02 
       3.181667793367e-01       8.410842575731e+02 
       3.289091877084e-01       7.903423741238e+02 
       3.400460298905e-01       7.357857972637e+02 
       3.515999235695e-01       6.815642734236e+02 
       3.635962710278e-01       6.329017881212e+02 
       3.760637505499e-01       5.910758788610e+02 
       3.890349143014e-01       5.521501045338e+02 
       4.025469215929e-01       5.128677695901e+02 
       4.166424455447e-01       4.737873287685e+02 
       4.313708034899e-01       4.376476575916e+02 
       4.467893781976e-01       4.049090209643e+02 
       4.629654198623e-01       3.738200585531e+02 
       4.799783500912e-01       3.431976466742e+02 
       4.979227318246e-01       3.140710309493e+02 
       5.169121269689e-01       2.871203687477e+02 
       5.370841403262e-01       2.612478715890e+02 
       5.586070463286e-01       2.362683731240e+02 
       5.816885093582e-01       2.126690569484e+02 
       6.065870143577e-01       1.900882296005e+02 
       6.336266466978e-01       1.683647006460e+02 
       6.632156057925e-01       1.476342564946e+02 
       6.958678637575e-01       1.277032831209e+02 
       7.322247983784e-01       1.086449488045e+02 
       7.730680193171e-01       9.043894118931e+01 
       8.193049551574e-01       7.320961099801e+01 
       8.718988013754e-01       5.713853792347e+01 
       9.317218028590e-01       4.252293800299e+01 
       9.993660906273e-01       2.972743571394e+01 
       1.075037109879e+00       1.909383931925e+01 
       1.158653485387e+00       1.084950249686e+01 
       1.250099156961e+00       5.045889652799e+00 
       1.349432400897e+00       1.555187159375e+00 
       1.456947456991e+00       1.004071667465e-01 
       1.573135110893e+00       2.721700688047e-01 
       1.698621895119e+00       1.545701516681e+00 
       1.834127512423e+00       3.313827956639e+00 
       1.980444933977e+00       4.954365151183e+00 
       2.138435191130e+00       5.934432549533e+00 
       2.309029198543e+00       5.934966148317e+00 
       2.493232376993e+00       4.952094621992e+00 
       2.692130394536e+00       3.321377741896e+00 
       2.906895533764e+00       1.613908273022e+00 
       3.138793596840e+00       4.053770024970e-01 
       3.389191365541e+00       8.300325829064e-05 
       3.659564656886e+00       2.659119561987e-01 
       3.951507021438e+00       7.234209270350e-01 
       4.266739135513e+00       8.854513746812e-01 
       4.607118942658e+00       6.185708085998e-01 
       4.974652604172e+00       2.037518877203e-01 
       5.371506323193e+00       3.049938672474e-03 
       5.800019112071e+00       6.861519271777e-02 
       6.262716578240e+00       1.544734121189e-01 
       6.762325809881e+00       9.905988393136e-02 
       7.301791449077e+00       1.101624365486e-02 
       7.884293047211e+00       9.189690341549e-03 
       8.513263804891e+00       2.883342122712e-02 
       9.192410806865e+00       1.017079287423e-02 
       9.925736871166e+00       3.480053809810e-04 
       1.071756414128e+01       5.520186876927e-03 
       1.157255956041e+01       1.374873896768e-03 
       1.249576237789e+01       4.534871062221e-04 
       1.349261385000e+01       7.795073421970e-04 
       1.456898931011e+01       9.330865484669e-06 
       1.573123279727e+01       1.865196504218e-04 
       1.698619444729e+01       1.411298642437e-06 
       1.834127086665e+01       2.947444237630e-05 
       1.980444872733e+01       3.807339827460e-06 
       2.138435183937e+01       1.584987547264e-06 
       2.309029197863e+01       1.415050103216e-06 
       2.493232376942e+01       1.709772749300e-07 
       2.692130394533e+01       7.885510801425e-09 
       2.906895533764e+01       1.095611231049e-08 
       3.138793596840e+01       1.131592498312e-08 
       3.389191365541e+01       5.911731628695e-10 
       3.659564656886e+01       1.164601290861e-09 
       3.951507021438e+01       2.862111674037e-11 
       4.266739135513e+01       1.762522567953e-10 
       4.607118942658e+01       7.835256399237e-11 
       4.974652604172e+01       5.485613486535e-11 
       5.371506323193e+01       4.199938183501e-11 
       5.800019112071e+01       2.696082787004e-11 
       6.262716578240e+01       1.807963442701e-11 
       6.762325809881e+01       1.262960456613e-11 
