# Matter power spectrum P(k) at redshift z=0
# for k=1.04775e-05 to 67.6233 h/Mpc,
# number of wavenumbers equal to 246
#    1:k (h/Mpc)              2:P (Mpc/h)^3        
       1.047750691046e-05       5.020964811312e+01 
       1.131335172503e-05       5.407050701930e+01 
       1.221587619537e-05       5.822819068431e+01 
       1.319039970183e-05       6.270562594783e+01 
       1.424266597921e-05       6.752732240880e+01 
       1.537887696968e-05       7.271977206173e+01 
       1.660572937635e-05       7.831147247912e+01 
       1.793045413292e-05       8.433311821988e+01 
       1.936085902198e-05       9.081778249833e+01 
       2.090537469327e-05       9.780108069296e+01 
       2.257310435294e-05       1.053213197893e+02 
       2.437387741694e-05       1.134197377890e+02 
       2.631830744443e-05       1.221408203809e+02 
       2.841785469300e-05       1.315324642468e+02 
       3.068489366414e-05       1.416462094881e+02 
       3.313278603720e-05       1.525374501932e+02 
       3.577595942169e-05       1.642660688414e+02 
       3.862999239199e-05       1.768963506307e+02 
       4.171170630578e-05       1.904975994010e+02 
       4.503926444729e-05       2.051444491974e+02 
       4.863227907969e-05       2.209171465549e+02 
       5.251192703764e-05       2.379022224249e+02 
       5.670107454120e-05       2.561927927587e+02 
       6.122441196689e-05       2.758890444040e+02 
       6.610859936996e-05       2.970989227881e+02 
       7.138242361596e-05       3.199385560802e+02 
       7.707696804727e-05       3.445329783680e+02 
       8.322579568497e-05       3.710167318946e+02 
       8.986514704559e-05       3.995346444203e+02 
       9.703415373875e-05       4.302425407383e+02 
       1.047750691046e-04       4.633080766742e+02 
       1.131335172503e-04       4.989116271564e+02 
       1.221587619537e-04       5.372471950930e+02 
       1.319039970183e-04       5.785234129330e+02 
       1.424266597921e-04       6.229645936045e+02 
       1.537887696968e-04       6.708118490405e+02 
       1.660572937635e-04       7.223242666092e+02 
       1.793045413292e-04       7.777801558972e+02 
       1.936085902198e-04       8.374783614141e+02 
       2.090537469327e-04       9.017396271824e+02 
       2.257310435294e-04       9.709080268041e+02 
       2.437387741694e-04       1.045352449493e+03 
       2.631830744443e-04       1.125468123750e+03 
       2.841785469300e-04       1.211678180495e+03 
       3.068489366414e-04       1.304435250150e+03 
       3.313278603720e-04       1.404223053681e+03 
       3.577595942169e-04       1.511558014616e+03 
       3.862999239199e-04       1.626990837819e+03 
       4.171170630578e-04       1.751108028789e+03 
       4.503926444729e-04       1.884533382872e+03 
       4.863227907969e-04       2.027929378112e+03 
       5.251192703764e-04       2.181998448133e+03 
       5.670107454121e-04       2.347484102755e+03 
       6.122441196689e-04       2.525171871366e+03 
       6.610859936996e-04       2.715889983592e+03 
       7.138242361596e-04       2.920509688377e+03 
       7.707696804727e-04       3.139945100278e+03 
       8.322579568497e-04       3.375152337580e+03 
       8.986514704559e-04       3.627127831140e+03 
       9.703415373875e-04       3.896905453136e+03 
       1.047750691046e-03       4.185552174300e+03 
       1.131335172503e-03       4.494162430373e+03 
       1.221587619537e-03       4.823850706493e+03 
       1.319039970183e-03       5.175742742759e+03 
       1.424266597921e-03       5.551019596905e+03 
       1.537887696968e-03       5.950788340553e+03 
       1.660572937635e-03       6.376123051785e+03 
       1.793045413292e-03       6.828073901455e+03 
       1.936085902198e-03       7.307625381066e+03 
       2.090537469327e-03       7.815671866011e+03 
       2.257310435294e-03       8.352990375818e+03 
       2.437387741694e-03       8.920211064318e+03 
       2.631830744443e-03       9.517783069111e+03 
       2.841785469300e-03       1.014593704435e+04 
       3.068489366414e-03       1.080464502797e+04 
       3.313278603720e-03       1.149357460346e+04 
       3.577595942169e-03       1.221203621721e+04 
       3.862999239199e-03       1.295892539445e+04 
       4.171170630578e-03       1.373266009133e+04 
       4.503926444729e-03       1.453111835624e+04 
       4.863227907969e-03       1.535154985279e+04 
       5.251192703764e-03       1.619063614430e+04 
       5.670107454120e-03       1.704431257772e+04 
       6.122441196689e-03       1.790755939728e+04 
       6.610859936996e-03       1.877460420908e+04 
       7.138242361596e-03       1.963872430602e+04 
       7.707696804727e-03       2.049215713602e+04 
       8.322579568496e-03       2.132607232762e+04 
       8.986514704559e-03       2.213055076099e+04 
       9.703415373875e-03       2.289445473102e+04 
       1.047750691046e-02       2.360548192681e+04 
       1.131335172503e-02       2.425022856137e+04 
       1.221587619537e-02       2.481423925964e+04 
       1.319039970183e-02       2.528218719915e+04 
       1.424266597920e-02       2.563814553757e+04 
       1.537887696964e-02       2.586608460394e+04 
       1.660572937560e-02       2.595026273683e+04 
       1.793045412207e-02       2.587635579504e+04 
       1.936085889642e-02       2.563218526743e+04 
       2.090537351881e-02       2.520934120728e+04 
       2.257309534705e-02       2.460445329857e+04 
       2.437382002240e-02       2.382092923783e+04 
       2.631799943729e-02       2.287044320620e+04 
       2.841644544598e-02       2.177449262202e+04 
       3.067933354524e-02       2.056556892292e+04 
       3.311368469821e-02       1.928727632809e+04 
       3.571840442514e-02       1.799399808682e+04 
       3.847720347390e-02       1.674679958787e+04 
       4.135335537314e-02       1.560461322213e+04 
       4.429361666563e-02       1.461037600000e+04 
       4.724366437916e-02       1.378058897444e+04 
       5.016480834039e-02       1.310507740801e+04 
       5.303989618930e-02       1.255715355204e+04 
       5.586870668205e-02       1.210427864256e+04 
       5.866042679206e-02       1.171466697038e+04 
       6.142798931504e-02       1.136044938150e+04 
       6.418496438662e-02       1.101853852197e+04 
       6.694418832236e-02       1.067067808814e+04 
       6.971731104453e-02       1.030362208701e+04 
       7.251476154108e-02       9.909049810404e+03 
       7.534587669814e-02       9.483736840964e+03 
       7.821907664495e-02       9.029482119121e+03 
       8.114203771084e-02       8.552311360114e+03 
       8.412184533139e-02       8.061986308334e+03 
       8.716512277352e-02       7.570761238796e+03 
       9.027813693913e-02       7.092479313957e+03 
       9.346688429613e-02       6.640467281096e+03 
       9.673716026122e-02       6.226675929558e+03 
       1.000946150608e-01       5.859917788951e+03 
       1.035447986307e-01       5.545275874758e+03 
       1.070931966524e-01       5.283145193998e+03 
       1.107452594180e-01       5.069436912297e+03 
       1.145064248899e-01       4.895270245748e+03 
       1.183821370656e-01       4.747842352495e+03 
       1.223778605591e-01       4.611731662506e+03 
       1.264990921707e-01       4.470611944152e+03 
       1.307513701078e-01       4.310269151344e+03 
       1.351402814485e-01       4.121386589501e+03 
       1.396714683894e-01       3.902045863810e+03 
       1.443506337875e-01       3.658653711664e+03 
       1.491835464900e-01       3.404484138090e+03 
       1.541760469368e-01       3.156678934136e+03 
       1.593340535209e-01       2.931958600897e+03 
       1.646635701934e-01       2.742378016011e+03 
       1.701706958081e-01       2.592243655670e+03 
       1.758616357070e-01       2.477236856413e+03 
       1.817427160581e-01       2.385182006225e+03 
       1.878204014651e-01       2.300346530277e+03 
       1.941013163855e-01       2.205755332575e+03 
       2.005922709060e-01       2.090811467146e+03 
       2.073002914514e-01       1.956460563725e+03 
       2.142326570343e-01       1.814189753076e+03 
       2.213969417044e-01       1.679284148750e+03 
       2.288010639201e-01       1.563840236757e+03 
       2.364533436625e-01       1.472680600917e+03 
       2.443625682390e-01       1.401515390641e+03 
       2.525380678946e-01       1.338407774705e+03 
       2.609898025770e-01       1.270892382884e+03 
       2.697284614969e-01       1.193377640309e+03 
       2.787655775073e-01       1.109337809234e+03 
       2.881136588192e-01       1.028763941607e+03 
       2.977863412019e-01       9.604770336274e+02 
       3.077985646248e-01       9.050189301655e+02 
       3.181667793367e-01       8.561464454097e+02 
       3.289091877084e-01       8.061879397757e+02 
       3.400460298905e-01       7.523917706545e+02 
       3.515999235695e-01       6.989192927710e+02 
       3.635962710278e-01       6.510578436494e+02 
       3.760637505499e-01       6.101185733391e+02 
       3.890349143014e-01       5.721317727948e+02 
       4.025469215929e-01       5.337791905148e+02 
       4.166424455447e-01       4.956292437359e+02 
       4.313708034899e-01       4.604695083707e+02 
       4.467893781976e-01       4.287745092283e+02 
       4.629654198623e-01       3.987685868446e+02 
       4.799783500912e-01       3.692394342148e+02 
       4.979227318246e-01       3.412386645860e+02 
       5.169121269689e-01       3.154799527188e+02 
       5.370841403262e-01       2.908317125549e+02 
       5.586070463286e-01       2.671029431172e+02 
       5.816885093582e-01       2.448077693868e+02 
       6.065870143577e-01       2.235670158503e+02 
       6.336266466978e-01       2.032087507673e+02 
       6.632156057925e-01       1.838785459196e+02 
       6.958678637575e-01       1.653540571173e+02 
       7.322247983784e-01       1.476952967567e+02 
       7.730680193171e-01       1.308336053219e+02 
       8.193049551574e-01       1.148308516754e+02 
       8.718988013754e-01       9.976256054053e+01 
       9.317218028590e-01       8.577750343135e+01 
       9.993660906273e-01       7.305434020654e+01 
       1.075037109879e+00       6.173563735009e+01 
       1.158653485387e+00       5.187887091052e+01 
       1.250099156961e+00       4.344011265559e+01 
       1.349432400897e+00       3.628878151001e+01 
       1.456947456991e+00       3.026799203525e+01 
       1.573135110893e+00       2.521447198519e+01 
       1.698621895119e+00       2.098194259921e+01 
       1.834127512423e+00       1.744226263889e+01 
       1.980444933977e+00       1.448559215073e+01 
       2.138435191130e+00       1.201885245327e+01 
       2.309029198543e+00       9.963110798755e+00 
       2.493232376993e+00       8.251755236258e+00 
       2.692130394536e+00       6.828520431760e+00 
       2.906895533764e+00       5.646200272545e+00 
       3.138793596840e+00       4.664827840459e+00 
       3.389191365541e+00       3.851098280960e+00 
       3.659564656886e+00       3.176915094339e+00 
       3.951507021438e+00       2.618847011902e+00 
       4.266739135513e+00       2.157322027333e+00 
       4.607118942658e+00       1.775910369628e+00 
       4.974652604172e+00       1.460978477493e+00 
       5.371506323193e+00       1.201107789782e+00 
       5.800019112071e+00       9.868679337591e-01 
       6.262716578240e+00       8.103391761368e-01 
       6.762325809881e+00       6.649972655544e-01 
       7.301791449077e+00       5.454148819458e-01 
       7.884293047211e+00       4.470849585518e-01 
       8.513263804891e+00       3.662852359265e-01 
       9.192410806865e+00       2.999288635788e-01 
       9.925736871166e+00       2.454689137535e-01 
       1.071756414128e+01       2.007953323526e-01 
       1.157255956041e+01       1.641734165058e-01 
       1.249576237789e+01       1.341659528618e-01 
       1.349261385000e+01       1.095924999320e-01 
       1.456898931011e+01       8.947852794733e-02 
       1.573123279727e+01       7.302373598623e-02 
       1.698619444729e+01       5.956786555958e-02 
       1.834127086665e+01       4.857110560973e-02 
       1.980444872733e+01       3.958787248573e-02 
       2.138435183937e+01       3.225202190832e-02 
       2.309029197863e+01       2.626456505205e-02 
       2.493232376942e+01       2.137999174803e-02 
       2.692130394533e+01       1.739644566582e-02 
       2.906895533764e+01       1.414944114101e-02 
       3.138793596840e+01       1.150358291691e-02 
       3.389191365541e+01       9.348496328342e-03 
       3.659564656886e+01       7.593956357480e-03 
       3.951507021438e+01       6.166085268098e-03 
       4.266739135513e+01       5.004391535954e-03 
       4.607118942658e+01       4.059662961968e-03 
       4.974652604172e+01       3.291678751029e-03 
       5.371506323193e+01       2.667629766794e-03 
       5.800019112071e+01       2.160689209291e-03 
       6.262716578240e+01       1.749085555193e-03 
       6.762325809881e+01       1.415025253702e-03 
