# Matter power spectrum P(k) at redshift z=0
# for k=1.04775e-05 to 66.1767 h/Mpc,
# number of wavenumbers equal to 130
#    1:k (h/Mpc)              2:P (Mpc/h)^3        
       1.047750691046e-05       5.020964811308e+01 
       1.319039970183e-05       6.270562594777e+01 
       1.660572937635e-05       7.831147247912e+01 
       2.090537469327e-05       9.780108069297e+01 
       2.631830744443e-05       1.221408203809e+02 
       3.313278603720e-05       1.525374501932e+02 
       4.171170630578e-05       1.904975994010e+02 
       5.251192703764e-05       2.379022224249e+02 
       6.610859936996e-05       2.970989227881e+02 
       8.322579568497e-05       3.710167318946e+02 
       1.047750691046e-04       4.633080766742e+02 
       1.319039970183e-04       5.785234129332e+02 
       1.660572937635e-04       7.223242666092e+02 
       2.090537469327e-04       9.017396271824e+02 
       2.631830744443e-04       1.125468123750e+03 
       3.313278603720e-04       1.404223053681e+03 
       4.171170630578e-04       1.751108028790e+03 
       5.251192703764e-04       2.181998448133e+03 
       6.610859936996e-04       2.715889983592e+03 
       8.322579568497e-04       3.375152337135e+03 
       1.047750691046e-03       4.185552174307e+03 
       1.319039970183e-03       5.175742738510e+03 
       1.660572937635e-03       6.376123051776e+03 
       2.090537469327e-03       7.815671866250e+03 
       2.631830744443e-03       9.517783069112e+03 
       3.313278603720e-03       1.149357460344e+04 
       4.171170630578e-03       1.373266008846e+04 
       5.251192703764e-03       1.619063614549e+04 
       6.610859936996e-03       1.877460424642e+04 
       8.322579568497e-03       2.132607231853e+04 
       1.047750691046e-02       2.360547980335e+04 
       1.319039970183e-02       2.528218667338e+04 
       1.660572937633e-02       2.595027477053e+04 
       2.090537453514e-02       2.520934281496e+04 
       2.631818545635e-02       2.287035167994e+04 
       3.311571692125e-02       1.928625107363e+04 
       4.113809243311e-02       1.568424110429e+04 
       4.792590854610e-02       1.361062087319e+04 
       5.284436902701e-02       1.259130993009e+04 
       5.689644391095e-02       1.195554443659e+04 
       6.051252627066e-02       1.147547052722e+04 
       6.388413457411e-02       1.105587907721e+04 
       6.711249296401e-02       1.064899002502e+04 
       7.025823437965e-02       1.022929518170e+04 
       7.336115587705e-02       9.784498059452e+03 
       7.644928796912e-02       9.311665171112e+03 
       7.954353299775e-02       8.814528854649e+03 
       8.266024078725e-02       8.302117108329e+03 
       8.581273398637e-02       7.786936909266e+03 
       8.901225918437e-02       7.283173123724e+03 
       9.226860540985e-02       6.805172518465e+03 
       9.559052048996e-02       6.365583542886e+03 
       9.898599946599e-02       5.974400469665e+03 
       1.024624891378e-01       5.637347219520e+03 
       1.060270359164e-01       5.355777773351e+03 
       1.096863943056e-01       5.126223489631e+03 
       1.134471073830e-01       4.940485012526e+03 
       1.173155669539e-01       4.786150955357e+03 
       1.212980586983e-01       4.647945601955e+03 
       1.254007961065e-01       4.509146439786e+03 
       1.296299459934e-01       4.354549698947e+03 
       1.339916477160e-01       4.173229624256e+03 
       1.384920277736e-01       3.961178349911e+03 
       1.431372111762e-01       3.722674598789e+03 
       1.479333307714e-01       3.469551921004e+03 
       1.528865355934e-01       3.218336200589e+03 
       1.580029992204e-01       2.986294952641e+03 
       1.632889290723e-01       2.786969824158e+03 
       1.687505775527e-01       2.626822584925e+03 
       1.743942559171e-01       2.503751970602e+03 
       1.802263517371e-01       2.407350242949e+03 
       1.862533508214e-01       2.322247108921e+03 
       1.924818644494e-01       2.231554206684e+03 
       1.989186627765e-01       2.122183619880e+03 
       2.055707152847e-01       1.992028983559e+03 
       2.124452391818e-01       1.850323439634e+03 
       2.195497567139e-01       1.712182016826e+03 
       2.268921624510e-01       1.590990878673e+03 
       2.344808017550e-01       1.493668564777e+03 
       2.423245618548e-01       1.418309588961e+03 
       2.504329772620e-01       1.354464574102e+03 
       2.588163516754e-01       1.288933516167e+03 
       2.674858990930e-01       1.213937398157e+03 
       2.764539076010e-01       1.130695693264e+03 
       2.857339303080e-01       1.048099357675e+03 
       2.953410092148e-01       9.761830566043e+02 
       3.052919395542e-01       9.178091752885e+02 
       3.156055844677e-01       8.678983357248e+02 
       3.263032530092e-01       8.185256518478e+02 
       3.374091587054e-01       7.651446713228e+02 
       3.489509817175e-01       7.106745469155e+02 
       3.609605657343e-01       6.607838496125e+02 
       3.734747921333e-01       6.180863036850e+02 
       3.865366902904e-01       5.793099090175e+02 
       4.001968667448e-01       5.403913135529e+02 
       4.145153713076e-01       5.011521992240e+02 
       4.295641718077e-01       4.644997440399e+02 
       4.454304922144e-01       4.314080187129e+02 
       4.622214006969e-01       4.001136885077e+02 
       4.800702491654e-01       3.690891840033e+02 
       4.991459272112e-01       3.394760535262e+02 
       5.196665217302e-01       3.119851737179e+02 
       5.419201087032e-01       2.852462565254e+02 
       5.662975451962e-01       2.593305893634e+02 
       5.933463737275e-01       2.345479186825e+02 
       6.238638458458e-01       2.102309776197e+02 
       6.590669257916e-01       1.864324602531e+02 
       7.009246080454e-01       1.627246593165e+02 
       7.528593308799e-01       1.388182693724e+02 
       8.213469537518e-01       1.141878147475e+02 
       9.196980813302e-01       8.835928614812e+01 
       1.075112183810e+00       6.172590265813e+01 
       1.322697471132e+00       3.804267304473e+01 
       1.662328205042e+00       2.209791010065e+01 
       2.092692408506e+00       1.266912681739e+01 
       2.634543445090e+00       7.203287501889e+00 
       3.316693691389e+00       4.065113749299e+00 
       4.175469971226e+00       2.278570471520e+00 
       5.256605252960e+00       1.269286884299e+00 
       6.617673932723e+00       7.030518212981e-01 
       8.331157880872e+00       3.873714185951e-01 
       1.048830636590e+01       2.123793966896e-01 
       1.320399541071e+01       1.158781403213e-01 
       1.662284535976e+01       6.290912136190e-02 
       2.092692243973e+01       3.395429298108e-02 
       2.634543445002e+01       1.818219626667e-02 
       3.316693691389e+01       9.615037882359e-03 
       4.175469971226e+01       4.972190957053e-03 
       5.256605252960e+01       2.464364326695e-03 
       6.617673932723e+01       1.122837802197e-03 
