# Matter power spectrum P(k) at redshift z=99
# for k=1.04775e-05 to 66.1767 h/Mpc,
# number of wavenumbers equal to 130
#    1:k (h/Mpc)              2:P (Mpc/h)^3        
       1.047750691046e-05       7.261927680862e-03 
       1.319039970183e-05       9.069258201849e-03 
       1.660572937635e-05       1.132639106725e-02 
       2.090537469327e-05       1.414527123399e-02 
       2.631830744443e-05       1.766569584058e-02 
       3.313278603720e-05       2.206225515942e-02 
       4.171170630578e-05       2.755297766277e-02 
       5.251192703764e-05       3.441013522947e-02 
       6.610859936996e-05       4.297372172778e-02 
       8.322579568497e-05       5.366826852944e-02 
       1.047750691046e-04       6.702379872775e-02 
       1.319039970183e-04       8.370193441286e-02 
       1.660572937635e-04       1.045283355384e-01 
       2.090537469327e-04       1.305329134104e-01 
       2.631830744443e-04       1.629994506605e-01 
       3.313278603720e-04       2.035264004601e-01 
       4.171170630578e-04       2.541004744243e-01 
       5.251192703764e-04       3.171839528557e-01 
       6.610859936996e-04       3.958147256513e-01 
       8.322579568497e-04       4.937136006273e-01 
       1.047750691046e-03       6.153841636042e-01 
       1.319039970183e-03       7.661720592624e-01 
       1.660572937635e-03       9.522588016470e-01 
       2.090537469327e-03       1.180312991699e+00 
       2.631830744443e-03       1.456802684686e+00 
       3.313278603720e-03       1.786503854039e+00 
       4.171170630578e-03       2.169896196265e+00 
       5.251192703764e-03       2.599430630720e+00 
       6.610859936996e-03       3.055668703522e+00 
       8.322579568497e-03       3.505725598482e+00 
       1.047750691046e-02       3.905491386408e+00 
       1.319039970183e-02       4.200915381946e+00 
       1.660572937633e-02       4.325060948447e+00 
       2.090537453514e-02       4.210197311990e+00 
       2.631818545635e-02       3.825152181254e+00 
       3.311571692125e-02       3.229069628515e+00 
       4.113809243311e-02       2.627734700486e+00 
       4.792590854610e-02       2.280788889412e+00 
       5.284436902701e-02       2.110087308856e+00 
       5.689644391095e-02       2.003540020886e+00 
       6.051252627066e-02       1.923054951682e+00 
       6.388413457411e-02       1.852735267849e+00 
       6.711249296401e-02       1.784563365113e+00 
       7.025823437965e-02       1.714274477111e+00 
       7.336115587705e-02       1.639814930709e+00 
       7.644928796912e-02       1.560663503282e+00 
       7.954353299775e-02       1.477456479751e+00 
       8.266024078725e-02       1.391696875336e+00 
       8.581273398637e-02       1.305463222668e+00 
       8.901225918437e-02       1.221124563490e+00 
       9.226860540985e-02       1.141080477102e+00 
       9.559052048996e-02       1.067451283385e+00 
       9.898599946599e-02       1.001889117434e+00 
       1.024624891378e-01       9.453813819599e-01 
       1.060270359164e-01       8.981518968522e-01 
       1.096863943056e-01       8.596137991126e-01 
       1.134471073830e-01       8.284051429255e-01 
       1.173155669539e-01       8.024675555367e-01 
       1.212980586983e-01       7.792311490839e-01 
       1.254007961065e-01       7.559175211297e-01 
       1.296299459934e-01       7.299825702104e-01 
       1.339916477160e-01       6.995929232945e-01 
       1.384920277736e-01       6.640777478923e-01 
       1.431372111762e-01       6.241461880276e-01 
       1.479333307714e-01       5.817638268791e-01 
       1.528865355934e-01       5.396933757574e-01 
       1.580029992204e-01       5.008134612848e-01 
       1.632889290723e-01       4.673987712925e-01 
       1.687505775527e-01       4.405337365392e-01 
       1.743942559171e-01       4.198660311903e-01 
       1.802263517371e-01       4.036590772889e-01 
       1.862533508214e-01       3.893602965707e-01 
       1.924818644494e-01       3.741345995328e-01 
       1.989186627765e-01       3.558023758727e-01 
       2.055707152847e-01       3.340002134320e-01 
       2.124452391818e-01       3.102660827235e-01 
       2.195497567139e-01       2.871226449994e-01 
       2.268921624510e-01       2.668083674765e-01 
       2.344808017550e-01       2.504839461960e-01 
       2.423245618548e-01       2.378339131218e-01 
       2.504329772620e-01       2.271120590589e-01 
       2.588163516754e-01       2.161187818811e-01 
       2.674858990930e-01       2.035457847667e-01 
       2.764539076010e-01       1.895986571386e-01 
       2.857339303080e-01       1.757569877665e-01 
       2.953410092148e-01       1.636988641976e-01 
       3.052919395542e-01       1.539061207025e-01 
       3.156055844677e-01       1.455307679837e-01 
       3.263032530092e-01       1.372507181544e-01 
       3.374091587054e-01       1.283021057197e-01 
       3.489509817175e-01       1.191714728667e-01 
       3.609605657343e-01       1.108074020438e-01 
       3.734747921333e-01       1.036453173690e-01 
       3.865366902904e-01       9.714157171463e-02 
       4.001968667448e-01       9.061554237271e-02 
       4.145153713076e-01       8.403705004308e-02 
       4.295641718077e-01       7.789127762473e-02 
       4.454304922144e-01       7.234148130718e-02 
       4.622214006969e-01       6.709365519386e-02 
       4.800702491654e-01       6.189185396686e-02 
       4.991459272112e-01       5.692622167232e-02 
       5.196665217302e-01       5.231610645224e-02 
       5.419201087032e-01       4.783272827902e-02 
       5.662975451962e-01       4.348690868426e-02 
       5.933463737275e-01       3.933113278240e-02 
       6.238638458458e-01       3.525357385690e-02 
       6.590669257916e-01       3.126300574969e-02 
       7.009246080454e-01       2.728736791917e-02 
       7.528593308799e-01       2.327849641365e-02 
       8.213469537518e-01       1.914833776915e-02 
       9.196980813302e-01       1.481705226867e-02 
       1.075112183810e+00       1.035092539724e-02 
       1.322697471132e+00       6.379449234466e-03 
       1.662328205042e+00       3.705664617249e-03 
       2.092692408506e+00       2.124536204941e-03 
       2.634543445090e+00       1.207955807563e-03 
       3.316693691389e+00       6.817062696035e-04 
       4.175469971226e+00       3.821158465727e-04 
       5.256605252960e+00       2.128701199523e-04 
       6.617673932723e+00       1.179190840201e-04 
       8.331157880872e+00       6.498322366796e-05 
       1.048830636590e+01       3.564173794151e-05 
       1.320399541071e+01       1.946251886683e-05 
       1.662284535976e+01       1.058444463643e-05 
       2.092692243973e+01       5.734192360719e-06 
       2.634543445002e+01       3.095227590085e-06 
       3.316693691389e+01       1.664859183894e-06 
       4.175469971226e+01       8.923197521595e-07 
       5.256605252960e+01       4.764811224012e-07 
       6.617673932723e+01       2.533684922467e-07 
