# Matter power spectrum P(k) at redshift z=0
# for k=1.04775e-05 to 67.6233 h/Mpc,
# number of wavenumbers equal to 246
#    1:k (h/Mpc)              2:P (Mpc/h)^3        
       1.047750691046e-05       5.020964811313e+01 
       1.131335172503e-05       5.407050701925e+01 
       1.221587619537e-05       5.822819068595e+01 
       1.319039970183e-05       6.270562594785e+01 
       1.424266597921e-05       6.752732240880e+01 
       1.537887696968e-05       7.271977206173e+01 
       1.660572937635e-05       7.831147247912e+01 
       1.793045413292e-05       8.433311821988e+01 
       1.936085902198e-05       9.081778249833e+01 
       2.090537469327e-05       9.780108069296e+01 
       2.257310435294e-05       1.053213197893e+02 
       2.437387741694e-05       1.134197377890e+02 
       2.631830744443e-05       1.221408203809e+02 
       2.841785469300e-05       1.315324642466e+02 
       3.068489366414e-05       1.416462094882e+02 
       3.313278603720e-05       1.525374501932e+02 
       3.577595942169e-05       1.642660688414e+02 
       3.862999239199e-05       1.768963506307e+02 
       4.171170630578e-05       1.904975994010e+02 
       4.503926444729e-05       2.051444491974e+02 
       4.863227907969e-05       2.209171465548e+02 
       5.251192703764e-05       2.379022224249e+02 
       5.670107454120e-05       2.561927927624e+02 
       6.122441196689e-05       2.758890444041e+02 
       6.610859936996e-05       2.970989227882e+02 
       7.138242361596e-05       3.199385560802e+02 
       7.707696804727e-05       3.445329783680e+02 
       8.322579568497e-05       3.710167318945e+02 
       8.986514704559e-05       3.995346444203e+02 
       9.703415373875e-05       4.302425407383e+02 
       1.047750691046e-04       4.633080766742e+02 
       1.131335172503e-04       4.989116271565e+02 
       1.221587619537e-04       5.372471950929e+02 
       1.319039970183e-04       5.785234129334e+02 
       1.424266597921e-04       6.229645936045e+02 
       1.537887696968e-04       6.708118490405e+02 
       1.660572937635e-04       7.223242666092e+02 
       1.793045413292e-04       7.777801560336e+02 
       1.936085902198e-04       8.374783614141e+02 
       2.090537469327e-04       9.017396271824e+02 
       2.257310435294e-04       9.709080268041e+02 
       2.437387741694e-04       1.045352449493e+03 
       2.631830744443e-04       1.125468123750e+03 
       2.841785469300e-04       1.211678180495e+03 
       3.068489366414e-04       1.304435250150e+03 
       3.313278603720e-04       1.404223053681e+03 
       3.577595942169e-04       1.511558014616e+03 
       3.862999239199e-04       1.626990837797e+03 
       4.171170630578e-04       1.751108028790e+03 
       4.503926444729e-04       1.884533382872e+03 
       4.863227907969e-04       2.027929378112e+03 
       5.251192703764e-04       2.181998448133e+03 
       5.670107454121e-04       2.347484102755e+03 
       6.122441196689e-04       2.525171871365e+03 
       6.610859936996e-04       2.715889983592e+03 
       7.138242361596e-04       2.920509688383e+03 
       7.707696804727e-04       3.139945100279e+03 
       8.322579568497e-04       3.375152337579e+03 
       8.986514704559e-04       3.627127831141e+03 
       9.703415373875e-04       3.896905453136e+03 
       1.047750691046e-03       4.185552174300e+03 
       1.131335172503e-03       4.494162430373e+03 
       1.221587619537e-03       4.823850706499e+03 
       1.319039970183e-03       5.175742742945e+03 
       1.424266597921e-03       5.551019596893e+03 
       1.537887696968e-03       5.950788340562e+03 
       1.660572937635e-03       6.376123051788e+03 
       1.793045413292e-03       6.828073901446e+03 
       1.936085902198e-03       7.307625381067e+03 
       2.090537469327e-03       7.815671865572e+03 
       2.257310435294e-03       8.352990375810e+03 
       2.437387741694e-03       8.920211064338e+03 
       2.631830744443e-03       9.517783069112e+03 
       2.841785469300e-03       1.014593704435e+04 
       3.068489366414e-03       1.080464502802e+04 
       3.313278603720e-03       1.149357460345e+04 
       3.577595942169e-03       1.221203621722e+04 
       3.862999239199e-03       1.295892539446e+04 
       4.171170630578e-03       1.373266011141e+04 
       4.503926444729e-03       1.453111835625e+04 
       4.863227907969e-03       1.535154985300e+04 
       5.251192703764e-03       1.619063614559e+04 
       5.670107454120e-03       1.704431257733e+04 
       6.122441196689e-03       1.790755939648e+04 
       6.610859936996e-03       1.877460425102e+04 
       7.138242361596e-03       1.963872430355e+04 
       7.707696804727e-03       2.049215714635e+04 
       8.322579568496e-03       2.132607231645e+04 
       8.986514704559e-03       2.213055218650e+04 
       9.703415373875e-03       2.289445472106e+04 
       1.047750691046e-02       2.360548954175e+04 
       1.131335172503e-02       2.425022858082e+04 
       1.221587619537e-02       2.481423925297e+04 
       1.319039970183e-02       2.528218624717e+04 
       1.424266597920e-02       2.563815526937e+04 
       1.537887696964e-02       2.586606967418e+04 
       1.660572937560e-02       2.595028228610e+04 
       1.793045412207e-02       2.587633452967e+04 
       1.936085889642e-02       2.563218626604e+04 
       2.090537351881e-02       2.520932486764e+04 
       2.257309534705e-02       2.460446557525e+04 
       2.437382002240e-02       2.382090562251e+04 
       2.631799943729e-02       2.287042760813e+04 
       2.841644544598e-02       2.177451868223e+04 
       3.067933354524e-02       2.056552737534e+04 
       3.311368469821e-02       1.928728559649e+04 
       3.571840442514e-02       1.799400493160e+04 
       3.847720347390e-02       1.674683922077e+04 
       4.135335537314e-02       1.560452322055e+04 
       4.429361666563e-02       1.461039141369e+04 
       4.724366437916e-02       1.378049545824e+04 
       5.016480834039e-02       1.310506441650e+04 
       5.303989618930e-02       1.255713249974e+04 
       5.586870668205e-02       1.210427930121e+04 
       5.866042679206e-02       1.171464752403e+04 
       6.142798931504e-02       1.136047537227e+04 
       6.418496438662e-02       1.101857821333e+04 
       6.694418832236e-02       1.067069619613e+04 
       6.971731104453e-02       1.030358721844e+04 
       7.251476154108e-02       9.908978025099e+03 
       7.534587669814e-02       9.483767150608e+03 
       7.821907664495e-02       9.029501997145e+03 
       8.114203771084e-02       8.552340043215e+03 
       8.412184533139e-02       8.061966526878e+03 
       8.716512277352e-02       7.570766729731e+03 
       9.027813693913e-02       7.092508843889e+03 
       9.346688429613e-02       6.640506632856e+03 
       9.673716026122e-02       6.226701722298e+03 
       1.000946150608e-01       5.859931057879e+03 
       1.035447986307e-01       5.545245185095e+03 
       1.070931966524e-01       5.283124178509e+03 
       1.107452594180e-01       5.069422935589e+03 
       1.145064248899e-01       4.895257446086e+03 
       1.183821370656e-01       4.747845483166e+03 
       1.223778605591e-01       4.611737184100e+03 
       1.264990921707e-01       4.470618290411e+03 
       1.307513701078e-01       4.310282943077e+03 
       1.351402814485e-01       4.121394422292e+03 
       1.396714683894e-01       3.902063625928e+03 
       1.443506337875e-01       3.658639002415e+03 
       1.491835464900e-01       3.404482570758e+03 
       1.541760469368e-01       3.156672711158e+03 
       1.593340535209e-01       2.931975715125e+03 
       1.646635701934e-01       2.742370324875e+03 
       1.701706958081e-01       2.592257835880e+03 
       1.758616357070e-01       2.477238749535e+03 
       1.817427160581e-01       2.385183408408e+03 
       1.878204014651e-01       2.300363321421e+03 
       1.941013163855e-01       2.205761622246e+03 
       2.005922709060e-01       2.090818363335e+03 
       2.073002914514e-01       1.956465792988e+03 
       2.142326570343e-01       1.814195350115e+03 
       2.213969417044e-01       1.679296651702e+03 
       2.288010639201e-01       1.563845886040e+03 
       2.364533436625e-01       1.472686160498e+03 
       2.443625682390e-01       1.401513842415e+03 
       2.525380678946e-01       1.338411526834e+03 
       2.609898025770e-01       1.270903696401e+03 
       2.697284614969e-01       1.193381147518e+03 
       2.787655775073e-01       1.109334367224e+03 
       2.881136588192e-01       1.028770834904e+03 
       2.977863412019e-01       9.604816743840e+02 
       3.077985646248e-01       9.050224578950e+02 
       3.181667793367e-01       8.561480781717e+02 
       3.289091877084e-01       8.061894419474e+02 
       3.400460298905e-01       7.523905660999e+02 
       3.515999235695e-01       6.989252253504e+02 
       3.635962710278e-01       6.510646690185e+02 
       3.760637505499e-01       6.101233104496e+02 
       3.890349143014e-01       5.721323968683e+02 
       4.025469215929e-01       5.337828541561e+02 
       4.166424455447e-01       4.956333591815e+02 
       4.313708034899e-01       4.604693858096e+02 
       4.467893781976e-01       4.287797718252e+02 
       4.629654198623e-01       3.987732341214e+02 
       4.799783500912e-01       3.692416166034e+02 
       4.979227318246e-01       3.412407329887e+02 
       5.169121269689e-01       3.154849410438e+02 
       5.370841403262e-01       2.908359675117e+02 
       5.586070463286e-01       2.671070244928e+02 
       5.816885093582e-01       2.448107152600e+02 
       6.065870143577e-01       2.235676744855e+02 
       6.336266466978e-01       2.032108946782e+02 
       6.632156057925e-01       1.838783783580e+02 
       6.958678637575e-01       1.653547019271e+02 
       7.322247983784e-01       1.476954681549e+02 
       7.730680193171e-01       1.308341572683e+02 
       8.193049551574e-01       1.148315486505e+02 
       8.718988013754e-01       9.976258013090e+01 
       9.317218028590e-01       8.577844899112e+01 
       9.993660906273e-01       7.305504606619e+01 
       1.075037109879e+00       6.173614153699e+01 
       1.158653485387e+00       5.187932356343e+01 
       1.250099156961e+00       4.344041946406e+01 
       1.349432400897e+00       3.628941422810e+01 
       1.456947456991e+00       3.026815080438e+01 
       1.573135110893e+00       2.521471599115e+01 
       1.698621895119e+00       2.098219755258e+01 
       1.834127512423e+00       1.744248038284e+01 
       1.980444933977e+00       1.448576009142e+01 
       2.138435191130e+00       1.201901989549e+01 
       2.309029198543e+00       9.963205053381e+00 
       2.493232376993e+00       8.251886938243e+00 
       2.692130394536e+00       6.828659625115e+00 
       2.906895533764e+00       5.646299053512e+00 
       3.138793596840e+00       4.664956182525e+00 
       3.389191365541e+00       3.851175157673e+00 
       3.659564656886e+00       3.176975584890e+00 
       3.951507021438e+00       2.618903575845e+00 
       4.266739135513e+00       2.157369907410e+00 
       4.607118942658e+00       1.775946355624e+00 
       4.974652604172e+00       1.461006256251e+00 
       5.371506323193e+00       1.201142240179e+00 
       5.800019112071e+00       9.868875674072e-01 
       6.262716578240e+00       8.103581619556e-01 
       6.762325809881e+00       6.650180104540e-01 
       7.301791449077e+00       5.454299441951e-01 
       7.884293047211e+00       4.470987955910e-01 
       8.513263804891e+00       3.663002424044e-01 
       9.192410806865e+00       2.999447441335e-01 
       9.925736871166e+00       2.454833464901e-01 
       1.071756414128e+01       2.008090550557e-01 
       1.157255956041e+01       1.641865862373e-01 
       1.249576237789e+01       1.341783582494e-01 
       1.349261385000e+01       1.096044481626e-01 
       1.456898931011e+01       8.949008848094e-02 
       1.573123279727e+01       7.303409502096e-02 
       1.698619444729e+01       5.957876904255e-02 
       1.834127086665e+01       4.858131153773e-02 
       1.980444872733e+01       3.959749208775e-02 
       2.138435183937e+01       3.226121647781e-02 
       2.309029197863e+01       2.627389079504e-02 
       2.493232376942e+01       2.138872939077e-02 
       2.692130394533e+01       1.740510636080e-02 
       2.906895533764e+01       1.415748686636e-02 
       3.138793596840e+01       1.151144542861e-02 
       3.389191365541e+01       9.356164297764e-03 
       3.659564656886e+01       7.601287647175e-03 
       3.951507021438e+01       6.173174639849e-03 
       4.266739135513e+01       5.011230703714e-03 
       4.607118942658e+01       4.066164891218e-03 
       4.974652604172e+01       3.298010998092e-03 
       5.371506323193e+01       2.673739496601e-03 
       5.800019112071e+01       2.166538903254e-03 
       6.262716578240e+01       1.754780394614e-03 
       6.762325809881e+01       1.420421631476e-03 
