# Matter power spectrum P(k) at redshift z=0
# for k=1.04775e-05 to 66.1767 h/Mpc,
# number of wavenumbers equal to 130
#    1:k (h/Mpc)              2:P (Mpc/h)^3        
       1.047750691046e-05       5.020964811307e+01 
       1.319039970183e-05       6.270562594784e+01 
       1.660572937635e-05       7.831147247912e+01 
       2.090537469327e-05       9.780108069295e+01 
       2.631830744443e-05       1.221408203809e+02 
       3.313278603720e-05       1.525374501932e+02 
       4.171170630578e-05       1.904975994010e+02 
       5.251192703764e-05       2.379022224249e+02 
       6.610859936996e-05       2.970989227882e+02 
       8.322579568497e-05       3.710167318946e+02 
       1.047750691046e-04       4.633080766742e+02 
       1.319039970183e-04       5.785234129336e+02 
       1.660572937635e-04       7.223242666092e+02 
       2.090537469327e-04       9.017396271824e+02 
       2.631830744443e-04       1.125468123750e+03 
       3.313278603720e-04       1.404223053681e+03 
       4.171170630578e-04       1.751108028789e+03 
       5.251192703764e-04       2.181998448133e+03 
       6.610859936996e-04       2.715889983593e+03 
       8.322579568497e-04       3.375152337134e+03 
       1.047750691046e-03       4.185552174307e+03 
       1.319039970183e-03       5.175742742428e+03 
       1.660572937635e-03       6.376123051780e+03 
       2.090537469327e-03       7.815671904860e+03 
       2.631830744443e-03       9.517783069112e+03 
       3.313278603720e-03       1.149357460342e+04 
       4.171170630578e-03       1.373265989991e+04 
       5.251192703764e-03       1.619063614560e+04 
       6.610859936996e-03       1.877460414044e+04 
       8.322579568497e-03       2.132607271588e+04 
       1.047750691046e-02       2.360548622047e+04 
       1.319039970183e-02       2.528218624469e+04 
       1.660572937633e-02       2.595026679857e+04 
       2.090537453514e-02       2.520935649660e+04 
       2.631818545635e-02       2.287038723362e+04 
       3.311571692125e-02       1.928621002839e+04 
       4.113809243311e-02       1.568425799188e+04 
       4.792590854610e-02       1.361060032189e+04 
       5.284436902701e-02       1.259130254833e+04 
       5.689644391095e-02       1.195553810930e+04 
       6.051252627066e-02       1.147546683036e+04 
       6.388413457411e-02       1.105592140853e+04 
       6.711249296401e-02       1.064901056510e+04 
       7.025823437965e-02       1.022929485743e+04 
       7.336115587705e-02       9.784537869259e+03 
       7.644928796912e-02       9.311651357909e+03 
       7.954353299775e-02       8.814560153694e+03 
       8.266024078725e-02       8.302122112336e+03 
       8.581273398637e-02       7.786956062994e+03 
       8.901225918437e-02       7.283192295972e+03 
       9.226860540985e-02       6.805170145834e+03 
       9.559052048996e-02       6.365662749215e+03 
       9.898599946599e-02       5.974398626569e+03 
       1.024624891378e-01       5.637316872158e+03 
       1.060270359164e-01       5.355770208932e+03 
       1.096863943056e-01       5.126237891553e+03 
       1.134471073830e-01       4.940481436898e+03 
       1.173155669539e-01       4.786168987715e+03 
       1.212980586983e-01       4.647939110374e+03 
       1.254007961065e-01       4.509146003832e+03 
       1.296299459934e-01       4.354555267481e+03 
       1.339916477160e-01       4.173220064982e+03 
       1.384920277736e-01       3.961158259122e+03 
       1.431372111762e-01       3.722686697725e+03 
       1.479333307714e-01       3.469559165439e+03 
       1.528865355934e-01       3.218336519634e+03 
       1.580029992204e-01       2.986300918012e+03 
       1.632889290723e-01       2.786962114138e+03 
       1.687505775527e-01       2.626829314865e+03 
       1.743942559171e-01       2.503756324096e+03 
       1.802263517371e-01       2.407345095263e+03 
       1.862533508214e-01       2.322250980034e+03 
       1.924818644494e-01       2.231549010104e+03 
       1.989186627765e-01       2.122195011924e+03 
       2.055707152847e-01       1.992024530351e+03 
       2.124452391818e-01       1.850327539723e+03 
       2.195497567139e-01       1.712185292526e+03 
       2.268921624510e-01       1.590991807321e+03 
       2.344808017550e-01       1.493668410610e+03 
       2.423245618548e-01       1.418310156181e+03 
       2.504329772620e-01       1.354467549927e+03 
       2.588163516754e-01       1.288934089832e+03 
       2.674858990930e-01       1.213939202994e+03 
       2.764539076010e-01       1.130691991503e+03 
       2.857339303080e-01       1.048101283706e+03 
       2.953410092148e-01       9.761817276895e+02 
       3.052919395542e-01       9.178096266603e+02 
       3.156055844677e-01       8.678987867299e+02 
       3.263032530092e-01       8.185260131118e+02 
       3.374091587054e-01       7.651474858792e+02 
       3.489509817175e-01       7.106720253419e+02 
       3.609605657343e-01       6.607871661820e+02 
       3.734747921333e-01       6.180880396964e+02 
       3.865366902904e-01       5.793103536869e+02 
       4.001968667448e-01       5.403929831538e+02 
       4.145153713076e-01       5.011523541079e+02 
       4.295641718077e-01       4.644990356099e+02 
       4.454304922144e-01       4.314087363355e+02 
       4.622214006969e-01       4.001130649137e+02 
       4.800702491654e-01       3.690900754866e+02 
       4.991459272112e-01       3.394765828460e+02 
       5.196665217302e-01       3.119859402541e+02 
       5.419201087032e-01       2.852475412077e+02 
       5.662975451962e-01       2.593311961234e+02 
       5.933463737275e-01       2.345483576227e+02 
       6.238638458458e-01       2.102307851446e+02 
       6.590669257916e-01       1.864342663120e+02 
       7.009246080454e-01       1.627249356089e+02 
       7.528593308799e-01       1.388187173224e+02 
       8.213469537518e-01       1.141886003649e+02 
       9.196980813302e-01       8.835955363937e+01 
       1.075112183810e+00       6.172605989231e+01 
       1.322697471132e+00       3.804279554652e+01 
       1.662328205042e+00       2.209795909751e+01 
       2.092692408506e+00       1.266924422721e+01 
       2.634543445090e+00       7.203367592708e+00 
       3.316693691389e+00       4.065173624213e+00 
       4.175469971226e+00       2.278622589420e+00 
       5.256605252960e+00       1.269357666331e+00 
       6.617673932723e+00       7.031409867947e-01 
       8.331157880872e+00       3.874744574211e-01 
       1.048830636590e+01       2.125097027498e-01 
       1.320399541071e+01       1.160372712688e-01 
       1.662284535976e+01       6.309838858591e-02 
       2.092692243973e+01       3.417933477885e-02 
       2.634543445002e+01       1.844592162584e-02 
       3.316693691389e+01       9.919246086438e-03 
       4.175469971226e+01       5.314605090331e-03 
       5.256605252960e+01       2.836681359278e-03 
       6.617673932723e+01       1.507699557870e-03 
