# Matter power spectrum P(k) at redshift z=0
# for k=1.04775e-05 to 66.1767 h/Mpc,
# number of wavenumbers equal to 130
#    1:k (h/Mpc)              2:P (Mpc/h)^3        
       1.047750691046e-05       5.020964811307e+01 
       1.319039970183e-05       6.270562594779e+01 
       1.660572937635e-05       7.831147247912e+01 
       2.090537469327e-05       9.780108069294e+01 
       2.631830744443e-05       1.221408203809e+02 
       3.313278603720e-05       1.525374501932e+02 
       4.171170630578e-05       1.904975994009e+02 
       5.251192703764e-05       2.379022224249e+02 
       6.610859936996e-05       2.970989227881e+02 
       8.322579568497e-05       3.710167318945e+02 
       1.047750691046e-04       4.633080766742e+02 
       1.319039970183e-04       5.785234129336e+02 
       1.660572937635e-04       7.223242666092e+02 
       2.090537469327e-04       9.017396271824e+02 
       2.631830744443e-04       1.125468123750e+03 
       3.313278603720e-04       1.404223053681e+03 
       4.171170630578e-04       1.751108028790e+03 
       5.251192703764e-04       2.181998448133e+03 
       6.610859936996e-04       2.715889983592e+03 
       8.322579568497e-04       3.375152337132e+03 
       1.047750691046e-03       4.185552174307e+03 
       1.319039970183e-03       5.175742739555e+03 
       1.660572937635e-03       6.376123051777e+03 
       2.090537469327e-03       7.815671864709e+03 
       2.631830744443e-03       9.517783069110e+03 
       3.313278603720e-03       1.149357460343e+04 
       4.171170630578e-03       1.373266008555e+04 
       5.251192703764e-03       1.619063614271e+04 
       6.610859936996e-03       1.877460344090e+04 
       8.322579568497e-03       2.132606952451e+04 
       1.047750691046e-02       2.360549580241e+04 
       1.319039970183e-02       2.528218794375e+04 
       1.660572937633e-02       2.595025528371e+04 
       2.090537453514e-02       2.520931898576e+04 
       2.631818545635e-02       2.287035974521e+04 
       3.311571692125e-02       1.928632194769e+04 
       4.113809243311e-02       1.568427644886e+04 
       4.792590854610e-02       1.361066480007e+04 
       5.284436902701e-02       1.259130908444e+04 
       5.689644391095e-02       1.195556556598e+04 
       6.051252627066e-02       1.147546891337e+04 
       6.388413457411e-02       1.105587516523e+04 
       6.711249296401e-02       1.064902082313e+04 
       7.025823437965e-02       1.022932435367e+04 
       7.336115587705e-02       9.784514148213e+03 
       7.644928796912e-02       9.311645885217e+03 
       7.954353299775e-02       8.814575223410e+03 
       8.266024078725e-02       8.302100975871e+03 
       8.581273398637e-02       7.786950657412e+03 
       8.901225918437e-02       7.283240056335e+03 
       9.226860540985e-02       6.805212649035e+03 
       9.559052048996e-02       6.365679241052e+03 
       9.898599946599e-02       5.974408679073e+03 
       1.024624891378e-01       5.637374719376e+03 
       1.060270359164e-01       5.355810538571e+03 
       1.096863943056e-01       5.126259273413e+03 
       1.134471073830e-01       4.940506189098e+03 
       1.173155669539e-01       4.786173157870e+03 
       1.212980586983e-01       4.647953592538e+03 
       1.254007961065e-01       4.509139967020e+03 
       1.296299459934e-01       4.354554309259e+03 
       1.339916477160e-01       4.173240104972e+03 
       1.384920277736e-01       3.961177502704e+03 
       1.431372111762e-01       3.722686305193e+03 
       1.479333307714e-01       3.469550816807e+03 
       1.528865355934e-01       3.218344054168e+03 
       1.580029992204e-01       2.986260736873e+03 
       1.632889290723e-01       2.786960879971e+03 
       1.687505775527e-01       2.626827700909e+03 
       1.743942559171e-01       2.503770924819e+03 
       1.802263517371e-01       2.407325645458e+03 
       1.862533508214e-01       2.322226624585e+03 
       1.924818644494e-01       2.231545345263e+03 
       1.989186627765e-01       2.122175339413e+03 
       2.055707152847e-01       1.992023709218e+03 
       2.124452391818e-01       1.850318638638e+03 
       2.195497567139e-01       1.712160754602e+03 
       2.268921624510e-01       1.590974971586e+03 
       2.344808017550e-01       1.493661295554e+03 
       2.423245618548e-01       1.418311609723e+03 
       2.504329772620e-01       1.354459533017e+03 
       2.588163516754e-01       1.288932637865e+03 
       2.674858990930e-01       1.213927676671e+03 
       2.764539076010e-01       1.130695990334e+03 
       2.857339303080e-01       1.048092565843e+03 
       2.953410092148e-01       9.761725763499e+02 
       3.052919395542e-01       9.178057433903e+02 
       3.156055844677e-01       8.678924151898e+02 
       3.263032530092e-01       8.185260711966e+02 
       3.374091587054e-01       7.651454315739e+02 
       3.489509817175e-01       7.106676877986e+02 
       3.609605657343e-01       6.607805750188e+02 
       3.734747921333e-01       6.180806354506e+02 
       3.865366902904e-01       5.793081820261e+02 
       4.001968667448e-01       5.403839518297e+02 
       4.145153713076e-01       5.011485539696e+02 
       4.295641718077e-01       4.644961609432e+02 
       4.454304922144e-01       4.314061639175e+02 
       4.622214006969e-01       4.001085826191e+02 
       4.800702491654e-01       3.690838002530e+02 
       4.991459272112e-01       3.394702315812e+02 
       5.196665217302e-01       3.119794809309e+02 
       5.419201087032e-01       2.852432102263e+02 
       5.662975451962e-01       2.593270502684e+02 
       5.933463737275e-01       2.345445215296e+02 
       6.238638458458e-01       2.102288012349e+02 
       6.590669257916e-01       1.864319271016e+02 
       7.009246080454e-01       1.627237155068e+02 
       7.528593308799e-01       1.388175617423e+02 
       8.213469537518e-01       1.141877056958e+02 
       9.196980813302e-01       8.835878057764e+01 
       1.075112183810e+00       6.172565545189e+01 
       1.322697471132e+00       3.804296596353e+01 
       1.662328205042e+00       2.209781977419e+01 
       2.092692408506e+00       1.266903689700e+01 
       2.634543445090e+00       7.203216287971e+00 
       3.316693691389e+00       4.065083433940e+00 
       4.175469971226e+00       2.278563966278e+00 
       5.256605252960e+00       1.269313280855e+00 
       6.617673932723e+00       7.031026280773e-01 
       8.331157880872e+00       3.874517602834e-01 
       1.048830636590e+01       2.124824727168e-01 
       1.320399541071e+01       1.160121085326e-01 
       1.662284535976e+01       6.307619788030e-02 
       2.092692243973e+01       3.415877494224e-02 
       2.634543445002e+01       1.842722164448e-02 
       3.316693691389e+01       9.901948466326e-03 
       4.175469971226e+01       5.299105814117e-03 
       5.256605252960e+01       2.822789297474e-03 
       6.617673932723e+01       1.495294367641e-03 
