# Matter power spectrum P(k) at redshift z=0
# for k=1.04775e-05 to 67.6233 h/Mpc,
# number of wavenumbers equal to 246
#    1:k (h/Mpc)              2:P (Mpc/h)^3        
       1.047750691046e-05       5.020964811308e+01 
       1.131335172503e-05       5.407050701928e+01 
       1.221587619537e-05       5.822819068779e+01 
       1.319039970183e-05       6.270562594781e+01 
       1.424266597921e-05       6.752732240880e+01 
       1.537887696968e-05       7.271977206173e+01 
       1.660572937635e-05       7.831147247912e+01 
       1.793045413292e-05       8.433311821988e+01 
       1.936085902198e-05       9.081778249833e+01 
       2.090537469327e-05       9.780108069295e+01 
       2.257310435294e-05       1.053213197893e+02 
       2.437387741694e-05       1.134197377890e+02 
       2.631830744443e-05       1.221408203809e+02 
       2.841785469300e-05       1.315324642460e+02 
       3.068489366414e-05       1.416462094881e+02 
       3.313278603720e-05       1.525374501932e+02 
       3.577595942169e-05       1.642660688414e+02 
       3.862999239199e-05       1.768963506307e+02 
       4.171170630578e-05       1.904975994009e+02 
       4.503926444729e-05       2.051444491974e+02 
       4.863227907969e-05       2.209171465549e+02 
       5.251192703764e-05       2.379022224249e+02 
       5.670107454120e-05       2.561927927597e+02 
       6.122441196689e-05       2.758890444041e+02 
       6.610859936996e-05       2.970989227881e+02 
       7.138242361596e-05       3.199385560802e+02 
       7.707696804727e-05       3.445329783680e+02 
       8.322579568497e-05       3.710167318945e+02 
       8.986514704559e-05       3.995346444203e+02 
       9.703415373875e-05       4.302425407383e+02 
       1.047750691046e-04       4.633080766742e+02 
       1.131335172503e-04       4.989116271565e+02 
       1.221587619537e-04       5.372471950929e+02 
       1.319039970183e-04       5.785234129336e+02 
       1.424266597921e-04       6.229645936045e+02 
       1.537887696968e-04       6.708118490405e+02 
       1.660572937635e-04       7.223242666092e+02 
       1.793045413292e-04       7.777801564075e+02 
       1.936085902198e-04       8.374783614141e+02 
       2.090537469327e-04       9.017396271824e+02 
       2.257310435294e-04       9.709080268041e+02 
       2.437387741694e-04       1.045352449493e+03 
       2.631830744443e-04       1.125468123750e+03 
       2.841785469300e-04       1.211678180495e+03 
       3.068489366414e-04       1.304435250150e+03 
       3.313278603720e-04       1.404223053681e+03 
       3.577595942169e-04       1.511558014616e+03 
       3.862999239199e-04       1.626990837769e+03 
       4.171170630578e-04       1.751108028790e+03 
       4.503926444729e-04       1.884533382872e+03 
       4.863227907969e-04       2.027929378112e+03 
       5.251192703764e-04       2.181998448133e+03 
       5.670107454121e-04       2.347484102755e+03 
       6.122441196689e-04       2.525171871364e+03 
       6.610859936996e-04       2.715889983591e+03 
       7.138242361596e-04       2.920509688379e+03 
       7.707696804727e-04       3.139945100279e+03 
       8.322579568497e-04       3.375152337575e+03 
       8.986514704559e-04       3.627127831140e+03 
       9.703415373875e-04       3.896905453136e+03 
       1.047750691046e-03       4.185552174308e+03 
       1.131335172503e-03       4.494162430372e+03 
       1.221587619537e-03       4.823850706495e+03 
       1.319039970183e-03       5.175742739323e+03 
       1.424266597921e-03       5.551019596924e+03 
       1.537887696968e-03       5.950788340548e+03 
       1.660572937635e-03       6.376123051738e+03 
       1.793045413292e-03       6.828073901460e+03 
       1.936085902198e-03       7.307625381061e+03 
       2.090537469327e-03       7.815671865780e+03 
       2.257310435294e-03       8.352990375809e+03 
       2.437387741694e-03       8.920211064335e+03 
       2.631830744443e-03       9.517783069099e+03 
       2.841785469300e-03       1.014593704434e+04 
       3.068489366414e-03       1.080464502801e+04 
       3.313278603720e-03       1.149357460343e+04 
       3.577595942169e-03       1.221203621718e+04 
       3.862999239199e-03       1.295892539441e+04 
       4.171170630578e-03       1.373266010033e+04 
       4.503926444729e-03       1.453111835618e+04 
       4.863227907969e-03       1.535154985052e+04 
       5.251192703764e-03       1.619063613091e+04 
       5.670107454120e-03       1.704431257700e+04 
       6.122441196689e-03       1.790755940502e+04 
       6.610859936996e-03       1.877460420262e+04 
       7.138242361596e-03       1.963872433164e+04 
       7.707696804727e-03       2.049215714847e+04 
       8.322579568496e-03       2.132606454937e+04 
       8.986514704559e-03       2.213055191074e+04 
       9.703415373875e-03       2.289445483349e+04 
       1.047750691046e-02       2.360548271659e+04 
       1.131335172503e-02       2.425023350587e+04 
       1.221587619537e-02       2.481423928163e+04 
       1.319039970183e-02       2.528218744419e+04 
       1.424266597920e-02       2.563812273709e+04 
       1.537887696964e-02       2.586607757322e+04 
       1.660572937560e-02       2.595026328688e+04 
       1.793045412207e-02       2.587634493959e+04 
       1.936085889642e-02       2.563218320905e+04 
       2.090537351881e-02       2.520935727973e+04 
       2.257309534705e-02       2.460446770582e+04 
       2.437382002240e-02       2.382090815716e+04 
       2.631799943729e-02       2.287042825531e+04 
       2.841644544598e-02       2.177449063526e+04 
       3.067933354524e-02       2.056555270053e+04 
       3.311368469821e-02       1.928725063213e+04 
       3.571840442514e-02       1.799401791331e+04 
       3.847720347390e-02       1.674680805251e+04 
       4.135335537314e-02       1.560455482220e+04 
       4.429361666563e-02       1.461036822986e+04 
       4.724366437916e-02       1.378051326644e+04 
       5.016480834039e-02       1.310499698092e+04 
       5.303989618930e-02       1.255713346163e+04 
       5.586870668205e-02       1.210428719223e+04 
       5.866042679206e-02       1.171470448014e+04 
       6.142798931504e-02       1.136053112868e+04 
       6.418496438662e-02       1.101858847112e+04 
       6.694418832236e-02       1.067073052611e+04 
       6.971731104453e-02       1.030364909091e+04 
       7.251476154108e-02       9.909064170601e+03 
       7.534587669814e-02       9.483816657999e+03 
       7.821907664495e-02       9.029556399687e+03 
       8.114203771084e-02       8.552384617112e+03 
       8.412184533139e-02       8.061981386945e+03 
       8.716512277352e-02       7.570811878146e+03 
       9.027813693913e-02       7.092547413839e+03 
       9.346688429613e-02       6.640565658523e+03 
       9.673716026122e-02       6.226732301002e+03 
       1.000946150608e-01       5.859988594356e+03 
       1.035447986307e-01       5.545296273793e+03 
       1.070931966524e-01       5.283163237716e+03 
       1.107452594180e-01       5.069425022034e+03 
       1.145064248899e-01       4.895270296088e+03 
       1.183821370656e-01       4.747860348608e+03 
       1.223778605591e-01       4.611725180300e+03 
       1.264990921707e-01       4.470610308496e+03 
       1.307513701078e-01       4.310201548556e+03 
       1.351402814485e-01       4.121376085986e+03 
       1.396714683894e-01       3.902050328402e+03 
       1.443506337875e-01       3.658650880031e+03 
       1.491835464900e-01       3.404480342371e+03 
       1.541760469368e-01       3.156663373925e+03 
       1.593340535209e-01       2.931933889088e+03 
       1.646635701934e-01       2.742362765165e+03 
       1.701706958081e-01       2.592259691629e+03 
       1.758616357070e-01       2.477227226304e+03 
       1.817427160581e-01       2.385168865879e+03 
       1.878204014651e-01       2.300347126980e+03 
       1.941013163855e-01       2.205743003830e+03 
       2.005922709060e-01       2.090803994357e+03 
       2.073002914514e-01       1.956465531661e+03 
       2.142326570343e-01       1.814174461949e+03 
       2.213969417044e-01       1.679273279940e+03 
       2.288010639201e-01       1.563839080489e+03 
       2.364533436625e-01       1.472674564351e+03 
       2.443625682390e-01       1.401507583646e+03 
       2.525380678946e-01       1.338416534020e+03 
       2.609898025770e-01       1.270899628010e+03 
       2.697284614969e-01       1.193363646952e+03 
       2.787655775073e-01       1.109333241721e+03 
       2.881136588192e-01       1.028761792624e+03 
       2.977863412019e-01       9.604754454072e+02 
       3.077985646248e-01       9.050187738345e+02 
       3.181667793367e-01       8.561375389847e+02 
       3.289091877084e-01       8.061808431262e+02 
       3.400460298905e-01       7.523840905510e+02 
       3.515999235695e-01       6.989148474991e+02 
       3.635962710278e-01       6.510557995753e+02 
       3.760637505499e-01       6.101195309851e+02 
       3.890349143014e-01       5.721274468715e+02 
       4.025469215929e-01       5.337773614469e+02 
       4.166424455447e-01       4.956223835000e+02 
       4.313708034899e-01       4.604649602751e+02 
       4.467893781976e-01       4.287689201580e+02 
       4.629654198623e-01       3.987689228480e+02 
       4.799783500912e-01       3.692356679836e+02 
       4.979227318246e-01       3.412373157390e+02 
       5.169121269689e-01       3.154790409861e+02 
       5.370841403262e-01       2.908315826432e+02 
       5.586070463286e-01       2.671025553134e+02 
       5.816885093582e-01       2.448059129999e+02 
       6.065870143577e-01       2.235665042607e+02 
       6.336266466978e-01       2.032088814181e+02 
       6.632156057925e-01       1.838778322818e+02 
       6.958678637575e-01       1.653533888932e+02 
       7.322247983784e-01       1.476946661320e+02 
       7.730680193171e-01       1.308331690041e+02 
       8.193049551574e-01       1.148312624340e+02 
       8.718988013754e-01       9.976234264805e+01 
       9.317218028590e-01       8.577708962075e+01 
       9.993660906273e-01       7.305411253232e+01 
       1.075037109879e+00       6.173545151869e+01 
       1.158653485387e+00       5.187870400199e+01 
       1.250099156961e+00       4.343975335156e+01 
       1.349432400897e+00       3.628857878957e+01 
       1.456947456991e+00       3.026744889646e+01 
       1.573135110893e+00       2.521402899678e+01 
       1.698621895119e+00       2.098159416463e+01 
       1.834127512423e+00       1.744187102197e+01 
       1.980444933977e+00       1.448515093096e+01 
       2.138435191130e+00       1.201840471331e+01 
       2.309029198543e+00       9.962599355867e+00 
       2.493232376993e+00       8.251252876884e+00 
       2.692130394536e+00       6.827934004022e+00 
       2.906895533764e+00       5.645616418149e+00 
       3.138793596840e+00       4.664200220076e+00 
       3.389191365541e+00       3.850350351131e+00 
       3.659564656886e+00       3.176128908959e+00 
       3.951507021438e+00       2.618027652684e+00 
       4.266739135513e+00       2.156408054091e+00 
       4.607118942658e+00       1.774929816591e+00 
       4.974652604172e+00       1.459898515763e+00 
       5.371506323193e+00       1.199961103141e+00 
       5.800019112071e+00       9.856114449703e-01 
       6.262716578240e+00       8.089885454954e-01 
       6.762325809881e+00       6.635376784385e-01 
       7.301791449077e+00       5.438360926271e-01 
       7.884293047211e+00       4.453884384850e-01 
       8.513263804891e+00       3.644544957721e-01 
       9.192410806865e+00       2.979499714870e-01 
       9.925736871166e+00       2.433339558829e-01 
       1.071756414128e+01       1.984961308573e-01 
       1.157255956041e+01       1.616961263820e-01 
       1.249576237789e+01       1.315042539484e-01 
       1.349261385000e+01       1.067361565448e-01 
       1.456898931011e+01       8.642077164730e-02 
       1.573123279727e+01       6.975662449893e-02 
       1.698619444729e+01       5.608872079057e-02 
       1.834127086665e+01       4.487740370935e-02 
       1.980444872733e+01       3.568281537365e-02 
       2.138435183937e+01       2.814341905045e-02 
       2.309029197863e+01       2.196699736825e-02 
       2.493232376942e+01       1.691521300853e-02 
       2.692130394533e+01       1.279660159376e-02 
       2.906895533764e+01       9.456432178700e-03 
       3.138793596840e+01       6.772146380939e-03 
       3.389191365541e+01       4.645907255387e-03 
       3.659564656886e+01       2.999637728875e-03 
       3.951507021438e+01       1.770447491761e-03 
       4.266739135513e+01       9.047530522352e-04 
       4.607118942658e+01       3.541248965513e-04 
       4.974652604172e+01       7.027836472149e-05 
       5.371506323193e+01       1.179647729697e-06 
       5.800019112071e+01       8.844679314154e-05 
       6.262716578240e+01       2.672946513958e-04 
       6.762325809881e+01       4.698477409116e-04 
