# Matter power spectrum P(k) at redshift z=0
# for k=1.04775e-05 to 66.1767 h/Mpc,
# number of wavenumbers equal to 130
#    1:k (h/Mpc)              2:P (Mpc/h)^3        
       1.047750691046e-05       5.020964811307e+01 
       1.319039970183e-05       6.270562594779e+01 
       1.660572937635e-05       7.831147247912e+01 
       2.090537469327e-05       9.780108069295e+01 
       2.631830744443e-05       1.221408203809e+02 
       3.313278603720e-05       1.525374501932e+02 
       4.171170630578e-05       1.904975994010e+02 
       5.251192703764e-05       2.379022224249e+02 
       6.610859936996e-05       2.970989227881e+02 
       8.322579568497e-05       3.710167318946e+02 
       1.047750691046e-04       4.633080766742e+02 
       1.319039970183e-04       5.785234129331e+02 
       1.660572937635e-04       7.223242666092e+02 
       2.090537469327e-04       9.017396271824e+02 
       2.631830744443e-04       1.125468123750e+03 
       3.313278603720e-04       1.404223053681e+03 
       4.171170630578e-04       1.751108028790e+03 
       5.251192703764e-04       2.181998448133e+03 
       6.610859936996e-04       2.715889983592e+03 
       8.322579568497e-04       3.375152337135e+03 
       1.047750691046e-03       4.185552174308e+03 
       1.319039970183e-03       5.175742738754e+03 
       1.660572937635e-03       6.376123051779e+03 
       2.090537469327e-03       7.815671913682e+03 
       2.631830744443e-03       9.517783069112e+03 
       3.313278603720e-03       1.149357460346e+04 
       4.171170630578e-03       1.373266009653e+04 
       5.251192703764e-03       1.619063614560e+04 
       6.610859936996e-03       1.877460426245e+04 
       8.322579568497e-03       2.132607231817e+04 
       1.047750691046e-02       2.360548729166e+04 
       1.319039970183e-02       2.528218874912e+04 
       1.660572937633e-02       2.595027665822e+04 
       2.090537453514e-02       2.520933634766e+04 
       2.631818545635e-02       2.287037090883e+04 
       3.311571692125e-02       1.928627408779e+04 
       4.113809243311e-02       1.568429138287e+04 
       4.792590854610e-02       1.361065418980e+04 
       5.284436902701e-02       1.259129309242e+04 
       5.689644391095e-02       1.195556387415e+04 
       6.051252627066e-02       1.147545617828e+04 
       6.388413457411e-02       1.105592139676e+04 
       6.711249296401e-02       1.064899032656e+04 
       7.025823437965e-02       1.022928533185e+04 
       7.336115587705e-02       9.784512182176e+03 
       7.644928796912e-02       9.311670998738e+03 
       7.954353299775e-02       8.814528694575e+03 
       8.266024078725e-02       8.302106835392e+03 
       8.581273398637e-02       7.786950173673e+03 
       8.901225918437e-02       7.283171713491e+03 
       9.226860540985e-02       6.805158121765e+03 
       9.559052048996e-02       6.365614159385e+03 
       9.898599946599e-02       5.974397802281e+03 
       1.024624891378e-01       5.637330813310e+03 
       1.060270359164e-01       5.355769538773e+03 
       1.096863943056e-01       5.126235332675e+03 
       1.134471073830e-01       4.940487872669e+03 
       1.173155669539e-01       4.786167662625e+03 
       1.212980586983e-01       4.647939567147e+03 
       1.254007961065e-01       4.509146472601e+03 
       1.296299459934e-01       4.354556503297e+03 
       1.339916477160e-01       4.173217547215e+03 
       1.384920277736e-01       3.961163874255e+03 
       1.431372111762e-01       3.722687252054e+03 
       1.479333307714e-01       3.469552624934e+03 
       1.528865355934e-01       3.218331892260e+03 
       1.580029992204e-01       2.986295905622e+03 
       1.632889290723e-01       2.786966004852e+03 
       1.687505775527e-01       2.626835005540e+03 
       1.743942559171e-01       2.503761227554e+03 
       1.802263517371e-01       2.407342262468e+03 
       1.862533508214e-01       2.322250803538e+03 
       1.924818644494e-01       2.231555001686e+03 
       1.989186627765e-01       2.122193105017e+03 
       2.055707152847e-01       1.992026281232e+03 
       2.124452391818e-01       1.850323615091e+03 
       2.195497567139e-01       1.712179403814e+03 
       2.268921624510e-01       1.590991680818e+03 
       2.344808017550e-01       1.493667461183e+03 
       2.423245618548e-01       1.418313147933e+03 
       2.504329772620e-01       1.354470448401e+03 
       2.588163516754e-01       1.288933647052e+03 
       2.674858990930e-01       1.213938021983e+03 
       2.764539076010e-01       1.130691604144e+03 
       2.857339303080e-01       1.048096990466e+03 
       2.953410092148e-01       9.761817631051e+02 
       3.052919395542e-01       9.178085429533e+02 
       3.156055844677e-01       8.678964040982e+02 
       3.263032530092e-01       8.185257235436e+02 
       3.374091587054e-01       7.651477864667e+02 
       3.489509817175e-01       7.106716593244e+02 
       3.609605657343e-01       6.607857092359e+02 
       3.734747921333e-01       6.180870274073e+02 
       3.865366902904e-01       5.793106590992e+02 
       4.001968667448e-01       5.403926428898e+02 
       4.145153713076e-01       5.011522282518e+02 
       4.295641718077e-01       4.644999084716e+02 
       4.454304922144e-01       4.314097711455e+02 
       4.622214006969e-01       4.001142148102e+02 
       4.800702491654e-01       3.690896990149e+02 
       4.991459272112e-01       3.394767515438e+02 
       5.196665217302e-01       3.119866091709e+02 
       5.419201087032e-01       2.852465271619e+02 
       5.662975451962e-01       2.593305387545e+02 
       5.933463737275e-01       2.345483310912e+02 
       6.238638458458e-01       2.102303835255e+02 
       6.590669257916e-01       1.864339756171e+02 
       7.009246080454e-01       1.627251774869e+02 
       7.528593308799e-01       1.388184870561e+02 
       8.213469537518e-01       1.141884374086e+02 
       9.196980813302e-01       8.835938914755e+01 
       1.075112183810e+00       6.172611485286e+01 
       1.322697471132e+00       3.804278690561e+01 
       1.662328205042e+00       2.209796567611e+01 
       2.092692408506e+00       1.266922430010e+01 
       2.634543445090e+00       7.203366503908e+00 
       3.316693691389e+00       4.065162924342e+00 
       4.175469971226e+00       2.278633132115e+00 
       5.256605252960e+00       1.269356405190e+00 
       6.617673932723e+00       7.031378288996e-01 
       8.331157880872e+00       3.874782925586e-01 
       1.048830636590e+01       2.125105107364e-01 
       1.320399541071e+01       1.160369425442e-01 
       1.662284535976e+01       6.309943901354e-02 
       2.092692243973e+01       3.417981099846e-02 
       2.634543445002e+01       1.844605697488e-02 
       3.316693691389e+01       9.919113410875e-03 
       4.175469971226e+01       5.314635896610e-03 
       5.256605252960e+01       2.836677932453e-03 
       6.617673932723e+01       1.507704838912e-03 
