# Matter power spectrum P(k) at redshift z=0
# for k=1.04775e-05 to 66.1767 h/Mpc,
# number of wavenumbers equal to 130
#    1:k (h/Mpc)              2:P (Mpc/h)^3        
       1.047750691046e-05       5.020964811308e+01 
       1.319039970183e-05       6.270562594778e+01 
       1.660572937635e-05       7.831147247912e+01 
       2.090537469327e-05       9.780108069296e+01 
       2.631830744443e-05       1.221408203809e+02 
       3.313278603720e-05       1.525374501932e+02 
       4.171170630578e-05       1.904975994010e+02 
       5.251192703764e-05       2.379022224249e+02 
       6.610859936996e-05       2.970989227881e+02 
       8.322579568497e-05       3.710167318946e+02 
       1.047750691046e-04       4.633080766742e+02 
       1.319039970183e-04       5.785234129335e+02 
       1.660572937635e-04       7.223242666092e+02 
       2.090537469327e-04       9.017396271824e+02 
       2.631830744443e-04       1.125468123750e+03 
       3.313278603720e-04       1.404223053681e+03 
       4.171170630578e-04       1.751108028790e+03 
       5.251192703764e-04       2.181998448133e+03 
       6.610859936996e-04       2.715889983592e+03 
       8.322579568497e-04       3.375152337131e+03 
       1.047750691046e-03       4.185552174305e+03 
       1.319039970183e-03       5.175742743350e+03 
       1.660572937635e-03       6.376123051790e+03 
       2.090537469327e-03       7.815671864559e+03 
       2.631830744443e-03       9.517783069112e+03 
       3.313278603720e-03       1.149357460345e+04 
       4.171170630578e-03       1.373266010982e+04 
       5.251192703764e-03       1.619063614454e+04 
       6.610859936996e-03       1.877460447448e+04 
       8.322579568497e-03       2.132607232603e+04 
       1.047750691046e-02       2.360547924068e+04 
       1.319039970183e-02       2.528218657189e+04 
       1.660572937633e-02       2.595026535785e+04 
       2.090537453514e-02       2.520931733611e+04 
       2.631818545635e-02       2.287030965168e+04 
       3.311571692125e-02       1.928620512485e+04 
       4.113809243311e-02       1.568423508110e+04 
       4.792590854610e-02       1.361060595062e+04 
       5.284436902701e-02       1.259130429541e+04 
       5.689644391095e-02       1.195556722519e+04 
       6.051252627066e-02       1.147545498535e+04 
       6.388413457411e-02       1.105588450720e+04 
       6.711249296401e-02       1.064899231101e+04 
       7.025823437965e-02       1.022929667623e+04 
       7.336115587705e-02       9.784507305798e+03 
       7.644928796912e-02       9.311639927209e+03 
       7.954353299775e-02       8.814535358238e+03 
       8.266024078725e-02       8.302169597187e+03 
       8.581273398637e-02       7.786963060816e+03 
       8.901225918437e-02       7.283198816795e+03 
       9.226860540985e-02       6.805168238129e+03 
       9.559052048996e-02       6.365647127891e+03 
       9.898599946599e-02       5.974392282321e+03 
       1.024624891378e-01       5.637297688109e+03 
       1.060270359164e-01       5.355808180613e+03 
       1.096863943056e-01       5.126247694575e+03 
       1.134471073830e-01       4.940482971076e+03 
       1.173155669539e-01       4.786161904260e+03 
       1.212980586983e-01       4.647953353082e+03 
       1.254007961065e-01       4.509139480536e+03 
       1.296299459934e-01       4.354548885469e+03 
       1.339916477160e-01       4.173203668032e+03 
       1.384920277736e-01       3.961182666551e+03 
       1.431372111762e-01       3.722680707532e+03 
       1.479333307714e-01       3.469545244070e+03 
       1.528865355934e-01       3.218335699069e+03 
       1.580029992204e-01       2.986269889700e+03 
       1.632889290723e-01       2.786960462030e+03 
       1.687505775527e-01       2.626827909494e+03 
       1.743942559171e-01       2.503763780991e+03 
       1.802263517371e-01       2.407322281938e+03 
       1.862533508214e-01       2.322243867571e+03 
       1.924818644494e-01       2.231553640229e+03 
       1.989186627765e-01       2.122171488276e+03 
       2.055707152847e-01       1.992021835807e+03 
       2.124452391818e-01       1.850317600145e+03 
       2.195497567139e-01       1.712164558506e+03 
       2.268921624510e-01       1.590983122429e+03 
       2.344808017550e-01       1.493661913932e+03 
       2.423245618548e-01       1.418316098899e+03 
       2.504329772620e-01       1.354462006018e+03 
       2.588163516754e-01       1.288933123461e+03 
       2.674858990930e-01       1.213933301698e+03 
       2.764539076010e-01       1.130689790621e+03 
       2.857339303080e-01       1.048096194067e+03 
       2.953410092148e-01       9.761778537534e+02 
       3.052919395542e-01       9.178063923639e+02 
       3.156055844677e-01       8.678931943946e+02 
       3.263032530092e-01       8.185270389270e+02 
       3.374091587054e-01       7.651410501778e+02 
       3.489509817175e-01       7.106659162265e+02 
       3.609605657343e-01       6.607828543227e+02 
       3.734747921333e-01       6.180804105176e+02 
       3.865366902904e-01       5.793104765531e+02 
       4.001968667448e-01       5.403901991145e+02 
       4.145153713076e-01       5.011483365405e+02 
       4.295641718077e-01       4.644966102096e+02 
       4.454304922144e-01       4.314064670775e+02 
       4.622214006969e-01       4.001121244467e+02 
       4.800702491654e-01       3.690865720016e+02 
       4.991459272112e-01       3.394735633412e+02 
       5.196665217302e-01       3.119828287211e+02 
       5.419201087032e-01       2.852433166471e+02 
       5.662975451962e-01       2.593276254806e+02 
       5.933463737275e-01       2.345464999324e+02 
       6.238638458458e-01       2.102284621852e+02 
       6.590669257916e-01       1.864330556486e+02 
       7.009246080454e-01       1.627240688751e+02 
       7.528593308799e-01       1.388173557156e+02 
       8.213469537518e-01       1.141878042930e+02 
       9.196980813302e-01       8.835857533045e+01 
       1.075112183810e+00       6.172571486975e+01 
       1.322697471132e+00       3.804284585814e+01 
       1.662328205042e+00       2.209786164124e+01 
       2.092692408506e+00       1.266911308089e+01 
       2.634543445090e+00       7.203299295006e+00 
       3.316693691389e+00       4.065037044792e+00 
       4.175469971226e+00       2.278549448345e+00 
       5.256605252960e+00       1.269255445768e+00 
       6.617673932723e+00       7.030200905793e-01 
       8.331157880872e+00       3.873286582595e-01 
       1.048830636590e+01       2.123198063588e-01 
       1.320399541071e+01       1.157959269300e-01 
       1.662284535976e+01       6.279732070116e-02 
       2.092692243973e+01       3.380434189798e-02 
       2.634543445002e+01       1.798541984255e-02 
       3.316693691389e+01       9.365484136398e-03 
       4.175469971226e+01       4.670754972450e-03 
       5.256605252960e+01       2.126639297158e-03 
       6.617673932723e+01       7.902077124420e-04 
