# Matter power spectrum P(k) at redshift z=0
# for k=1.04775e-05 to 67.6233 h/Mpc,
# number of wavenumbers equal to 246
#    1:k (h/Mpc)              2:P (Mpc/h)^3        
       1.047750691046e-05       5.020964811313e+01 
       1.131335172503e-05       5.407050701927e+01 
       1.221587619537e-05       5.822819068542e+01 
       1.319039970183e-05       6.270562594775e+01 
       1.424266597921e-05       6.752732240880e+01 
       1.537887696968e-05       7.271977206173e+01 
       1.660572937635e-05       7.831147247912e+01 
       1.793045413292e-05       8.433311821988e+01 
       1.936085902198e-05       9.081778249833e+01 
       2.090537469327e-05       9.780108069295e+01 
       2.257310435294e-05       1.053213197893e+02 
       2.437387741694e-05       1.134197377890e+02 
       2.631830744443e-05       1.221408203809e+02 
       2.841785469300e-05       1.315324642468e+02 
       3.068489366414e-05       1.416462094881e+02 
       3.313278603720e-05       1.525374501932e+02 
       3.577595942169e-05       1.642660688414e+02 
       3.862999239199e-05       1.768963506307e+02 
       4.171170630578e-05       1.904975994010e+02 
       4.503926444729e-05       2.051444491974e+02 
       4.863227907969e-05       2.209171465549e+02 
       5.251192703764e-05       2.379022224249e+02 
       5.670107454120e-05       2.561927927626e+02 
       6.122441196689e-05       2.758890444041e+02 
       6.610859936996e-05       2.970989227880e+02 
       7.138242361596e-05       3.199385560802e+02 
       7.707696804727e-05       3.445329783680e+02 
       8.322579568497e-05       3.710167318945e+02 
       8.986514704559e-05       3.995346444203e+02 
       9.703415373875e-05       4.302425407383e+02 
       1.047750691046e-04       4.633080766742e+02 
       1.131335172503e-04       4.989116271564e+02 
       1.221587619537e-04       5.372471950929e+02 
       1.319039970183e-04       5.785234129338e+02 
       1.424266597921e-04       6.229645936045e+02 
       1.537887696968e-04       6.708118490405e+02 
       1.660572937635e-04       7.223242666092e+02 
       1.793045413292e-04       7.777801560409e+02 
       1.936085902198e-04       8.374783614141e+02 
       2.090537469327e-04       9.017396271824e+02 
       2.257310435294e-04       9.709080268041e+02 
       2.437387741694e-04       1.045352449493e+03 
       2.631830744443e-04       1.125468123750e+03 
       2.841785469300e-04       1.211678180495e+03 
       3.068489366414e-04       1.304435250150e+03 
       3.313278603720e-04       1.404223053681e+03 
       3.577595942169e-04       1.511558014616e+03 
       3.862999239199e-04       1.626990837819e+03 
       4.171170630578e-04       1.751108028790e+03 
       4.503926444729e-04       1.884533382872e+03 
       4.863227907969e-04       2.027929378112e+03 
       5.251192703764e-04       2.181998448133e+03 
       5.670107454121e-04       2.347484102755e+03 
       6.122441196689e-04       2.525171871366e+03 
       6.610859936996e-04       2.715889983592e+03 
       7.138242361596e-04       2.920509688382e+03 
       7.707696804727e-04       3.139945100279e+03 
       8.322579568497e-04       3.375152337585e+03 
       8.986514704559e-04       3.627127831140e+03 
       9.703415373875e-04       3.896905453136e+03 
       1.047750691046e-03       4.185552174298e+03 
       1.131335172503e-03       4.494162430373e+03 
       1.221587619537e-03       4.823850706496e+03 
       1.319039970183e-03       5.175742738865e+03 
       1.424266597921e-03       5.551019596900e+03 
       1.537887696968e-03       5.950788340553e+03 
       1.660572937635e-03       6.376123051773e+03 
       1.793045413292e-03       6.828073901446e+03 
       1.936085902198e-03       7.307625381066e+03 
       2.090537469327e-03       7.815671868413e+03 
       2.257310435294e-03       8.352990375817e+03 
       2.437387741694e-03       8.920211064352e+03 
       2.631830744443e-03       9.517783069110e+03 
       2.841785469300e-03       1.014593704435e+04 
       3.068489366414e-03       1.080464502795e+04 
       3.313278603720e-03       1.149357460346e+04 
       3.577595942169e-03       1.221203621721e+04 
       3.862999239199e-03       1.295892539445e+04 
       4.171170630578e-03       1.373266012956e+04 
       4.503926444729e-03       1.453111835624e+04 
       4.863227907969e-03       1.535154985263e+04 
       5.251192703764e-03       1.619063614340e+04 
       5.670107454120e-03       1.704431257703e+04 
       6.122441196689e-03       1.790755939778e+04 
       6.610859936996e-03       1.877460426705e+04 
       7.138242361596e-03       1.963872430776e+04 
       7.707696804727e-03       2.049215714617e+04 
       8.322579568496e-03       2.132607233492e+04 
       8.986514704559e-03       2.213055059994e+04 
       9.703415373875e-03       2.289445473806e+04 
       1.047750691046e-02       2.360547999633e+04 
       1.131335172503e-02       2.425022854704e+04 
       1.221587619537e-02       2.481423923389e+04 
       1.319039970183e-02       2.528218662102e+04 
       1.424266597920e-02       2.563814387164e+04 
       1.537887696964e-02       2.586607426048e+04 
       1.660572937560e-02       2.595027662915e+04 
       1.793045412207e-02       2.587634022103e+04 
       1.936085889642e-02       2.563220335392e+04 
       2.090537351881e-02       2.520937284097e+04 
       2.257309534705e-02       2.460445775390e+04 
       2.437382002240e-02       2.382086774358e+04 
       2.631799943729e-02       2.287046244291e+04 
       2.841644544598e-02       2.177449374530e+04 
       3.067933354524e-02       2.056555887059e+04 
       3.311368469821e-02       1.928733283312e+04 
       3.571840442514e-02       1.799406739357e+04 
       3.847720347390e-02       1.674685319385e+04 
       4.135335537314e-02       1.560463362793e+04 
       4.429361666563e-02       1.461035785392e+04 
       4.724366437916e-02       1.378056605421e+04 
       5.016480834039e-02       1.310505862257e+04 
       5.303989618930e-02       1.255715645878e+04 
       5.586870668205e-02       1.210424202744e+04 
       5.866042679206e-02       1.171463574061e+04 
       6.142798931504e-02       1.136054674768e+04 
       6.418496438662e-02       1.101857633719e+04 
       6.694418832236e-02       1.067065856968e+04 
       6.971731104453e-02       1.030354111563e+04 
       7.251476154108e-02       9.909012230473e+03 
       7.534587669814e-02       9.483757907642e+03 
       7.821907664495e-02       9.029483305096e+03 
       8.114203771084e-02       8.552354310678e+03 
       8.412184533139e-02       8.061971140315e+03 
       8.716512277352e-02       7.570808244134e+03 
       9.027813693913e-02       7.092491617759e+03 
       9.346688429613e-02       6.640561174578e+03 
       9.673716026122e-02       6.226735220743e+03 
       1.000946150608e-01       5.859930789281e+03 
       1.035447986307e-01       5.545260762772e+03 
       1.070931966524e-01       5.283177958598e+03 
       1.107452594180e-01       5.069462072182e+03 
       1.145064248899e-01       4.895246690237e+03 
       1.183821370656e-01       4.747879602716e+03 
       1.223778605591e-01       4.611753343117e+03 
       1.264990921707e-01       4.470599185646e+03 
       1.307513701078e-01       4.310264452498e+03 
       1.351402814485e-01       4.121373886492e+03 
       1.396714683894e-01       3.902084115603e+03 
       1.443506337875e-01       3.658660908467e+03 
       1.491835464900e-01       3.404494919867e+03 
       1.541760469368e-01       3.156680124389e+03 
       1.593340535209e-01       2.931955275205e+03 
       1.646635701934e-01       2.742374112603e+03 
       1.701706958081e-01       2.592245136660e+03 
       1.758616357070e-01       2.477231340217e+03 
       1.817427160581e-01       2.385193307744e+03 
       1.878204014651e-01       2.300337989742e+03 
       1.941013163855e-01       2.205753719148e+03 
       2.005922709060e-01       2.090798673218e+03 
       2.073002914514e-01       1.956461897202e+03 
       2.142326570343e-01       1.814184748144e+03 
       2.213969417044e-01       1.679272331179e+03 
       2.288010639201e-01       1.563841355867e+03 
       2.364533436625e-01       1.472680137946e+03 
       2.443625682390e-01       1.401518274504e+03 
       2.525380678946e-01       1.338401713969e+03 
       2.609898025770e-01       1.270895830812e+03 
       2.697284614969e-01       1.193384855180e+03 
       2.787655775073e-01       1.109336843349e+03 
       2.881136588192e-01       1.028764123054e+03 
       2.977863412019e-01       9.604758286585e+02 
       3.077985646248e-01       9.050159541040e+02 
       3.181667793367e-01       8.561437970055e+02 
       3.289091877084e-01       8.061870117870e+02 
       3.400460298905e-01       7.523924126511e+02 
       3.515999235695e-01       6.989208205216e+02 
       3.635962710278e-01       6.510581946740e+02 
       3.760637505499e-01       6.101209045647e+02 
       3.890349143014e-01       5.721298767112e+02 
       4.025469215929e-01       5.337799676086e+02 
       4.166424455447e-01       4.956288359011e+02 
       4.313708034899e-01       4.604650206850e+02 
       4.467893781976e-01       4.287732752779e+02 
       4.629654198623e-01       3.987700387872e+02 
       4.799783500912e-01       3.692387907089e+02 
       4.979227318246e-01       3.412376959963e+02 
       5.169121269689e-01       3.154812853418e+02 
       5.370841403262e-01       2.908323931498e+02 
       5.586070463286e-01       2.671020080336e+02 
       5.816885093582e-01       2.448059182252e+02 
       6.065870143577e-01       2.235648042203e+02 
       6.336266466978e-01       2.032090215276e+02 
       6.632156057925e-01       1.838776254404e+02 
       6.958678637575e-01       1.653534039155e+02 
       7.322247983784e-01       1.476944382173e+02 
       7.730680193171e-01       1.308335031954e+02 
       8.193049551574e-01       1.148307917881e+02 
       8.718988013754e-01       9.976265178851e+01 
       9.317218028590e-01       8.577743128923e+01 
       9.993660906273e-01       7.305420224466e+01 
       1.075037109879e+00       6.173554107244e+01 
       1.158653485387e+00       5.187904088532e+01 
       1.250099156961e+00       4.344017378820e+01 
       1.349432400897e+00       3.628883263175e+01 
       1.456947456991e+00       3.026790819932e+01 
       1.573135110893e+00       2.521443294299e+01 
       1.698621895119e+00       2.098193681898e+01 
       1.834127512423e+00       1.744222454747e+01 
       1.980444933977e+00       1.448554893925e+01 
       2.138435191130e+00       1.201881340460e+01 
       2.309029198543e+00       9.963169642294e+00 
       2.493232376993e+00       8.251811993591e+00 
       2.692130394536e+00       6.828555308066e+00 
       2.906895533764e+00       5.646197666605e+00 
       3.138793596840e+00       4.664820594219e+00 
       3.389191365541e+00       3.851091287928e+00 
       3.659564656886e+00       3.176907142089e+00 
       3.951507021438e+00       2.618850933516e+00 
       4.266739135513e+00       2.157325555357e+00 
       4.607118942658e+00       1.775904040949e+00 
       4.974652604172e+00       1.460964213554e+00 
       5.371506323193e+00       1.201101194879e+00 
       5.800019112071e+00       9.868512289911e-01 
       6.262716578240e+00       8.103288519816e-01 
       6.762325809881e+00       6.649865938436e-01 
       7.301791449077e+00       5.454031171783e-01 
       7.884293047211e+00       4.470751425502e-01 
       8.513263804891e+00       3.662754847031e-01 
       9.192410806865e+00       2.999195490686e-01 
       9.925736871166e+00       2.454586343093e-01 
       1.071756414128e+01       2.007861933218e-01 
       1.157255956041e+01       1.641635493785e-01 
       1.249576237789e+01       1.341559086014e-01 
       1.349261385000e+01       1.095831048506e-01 
       1.456898931011e+01       8.946847751314e-02 
       1.573123279727e+01       7.301377473578e-02 
       1.698619444729e+01       5.955876970591e-02 
       1.834127086665e+01       4.856167578684e-02 
       1.980444872733e+01       3.957770749461e-02 
       2.138435183937e+01       3.224200478098e-02 
       2.309029197863e+01       2.625470414547e-02 
       2.493232376942e+01       2.136948491341e-02 
       2.692130394533e+01       1.738595403792e-02 
       2.906895533764e+01       1.413855835920e-02 
       3.138793596840e+01       1.149254785573e-02 
       3.389191365541e+01       9.337224385943e-03 
       3.659564656886e+01       7.582279619934e-03 
       3.951507021438e+01       6.154111231011e-03 
       4.266739135513e+01       4.991981617385e-03 
       4.607118942658e+01       4.046752965731e-03 
       4.974652604172e+01       3.278321796426e-03 
       5.371506323193e+01       2.653733214413e-03 
       5.800019112071e+01       2.146194645322e-03 
       6.262716578240e+01       1.733922274932e-03 
       6.762325809881e+01       1.399157568270e-03 
