# Matter power spectrum P(k) at redshift z=99
# for k=1.04775e-05 to 66.1767 h/Mpc,
# number of wavenumbers equal to 130
#    1:k (h/Mpc)              2:P (Mpc/h)^3        
       1.047750691046e-05       7.261927680861e-03 
       1.319039970183e-05       9.069258201848e-03 
       1.660572937635e-05       1.132639106725e-02 
       2.090537469327e-05       1.414527123399e-02 
       2.631830744443e-05       1.766569584058e-02 
       3.313278603720e-05       2.206225515942e-02 
       4.171170630578e-05       2.755297766277e-02 
       5.251192703764e-05       3.441013522947e-02 
       6.610859936996e-05       4.297372172777e-02 
       8.322579568497e-05       5.366826852944e-02 
       1.047750691046e-04       6.702379872774e-02 
       1.319039970183e-04       8.370193441285e-02 
       1.660572937635e-04       1.045283355384e-01 
       2.090537469327e-04       1.305329134104e-01 
       2.631830744443e-04       1.629994506605e-01 
       3.313278603720e-04       2.035264004601e-01 
       4.171170630578e-04       2.541004744243e-01 
       5.251192703764e-04       3.171839528557e-01 
       6.610859936996e-04       3.958147256513e-01 
       8.322579568497e-04       4.937136006276e-01 
       1.047750691046e-03       6.153841636041e-01 
       1.319039970183e-03       7.661720592353e-01 
       1.660572937635e-03       9.522588016469e-01 
       2.090537469327e-03       1.180312991700e+00 
       2.631830744443e-03       1.456802684686e+00 
       3.313278603720e-03       1.786503854036e+00 
       4.171170630578e-03       2.169896193158e+00 
       5.251192703764e-03       2.599430630723e+00 
       6.610859936996e-03       3.055668703882e+00 
       8.322579568497e-03       3.505725274705e+00 
       1.047750691046e-02       3.905490618865e+00 
       1.319039970183e-02       4.200915354441e+00 
       1.660572937633e-02       4.325063358926e+00 
       2.090537453514e-02       4.210203169788e+00 
       2.631818545635e-02       3.825157590486e+00 
       3.311571692125e-02       3.229060968525e+00 
       4.113809243311e-02       2.627737765776e+00 
       4.792590854610e-02       2.280792617955e+00 
       5.284436902701e-02       2.110091162411e+00 
       5.689644391095e-02       2.003538622243e+00 
       6.051252627066e-02       1.923052594801e+00 
       6.388413457411e-02       1.852730624720e+00 
       6.711249296401e-02       1.784563535746e+00 
       7.025823437965e-02       1.714275118168e+00 
       7.336115587705e-02       1.639813494263e+00 
       7.644928796912e-02       1.560661062612e+00 
       7.954353299775e-02       1.477458041620e+00 
       8.266024078725e-02       1.391696402144e+00 
       8.581273398637e-02       1.305459607598e+00 
       8.901225918437e-02       1.221122651675e+00 
       9.226860540985e-02       1.141080350696e+00 
       9.559052048996e-02       1.067452069047e+00 
       9.898599946599e-02       1.001896028832e+00 
       1.024624891378e-01       9.453846965492e-01 
       1.060270359164e-01       8.981495028555e-01 
       1.096863943056e-01       8.596132529052e-01 
       1.134471073830e-01       8.284046624165e-01 
       1.173155669539e-01       8.024678836482e-01 
       1.212980586983e-01       7.792307322554e-01 
       1.254007961065e-01       7.559188279702e-01 
       1.296299459934e-01       7.299832021259e-01 
       1.339916477160e-01       6.995935594094e-01 
       1.384920277736e-01       6.640787887665e-01 
       1.431372111762e-01       6.241466132187e-01 
       1.479333307714e-01       5.817641938693e-01 
       1.528865355934e-01       5.396945603588e-01 
       1.580029992204e-01       5.008134526505e-01 
       1.632889290723e-01       4.673991700264e-01 
       1.687505775527e-01       4.405348167101e-01 
       1.743942559171e-01       4.198639224893e-01 
       1.802263517371e-01       4.036606634599e-01 
       1.862533508214e-01       3.893602590518e-01 
       1.924818644494e-01       3.741345447579e-01 
       1.989186627765e-01       3.558016298384e-01 
       2.055707152847e-01       3.339977681056e-01 
       2.124452391818e-01       3.102655830827e-01 
       2.195497567139e-01       2.871227704983e-01 
       2.268921624510e-01       2.668088303789e-01 
       2.344808017550e-01       2.504835560344e-01 
       2.423245618548e-01       2.378331399658e-01 
       2.504329772620e-01       2.271118360158e-01 
       2.588163516754e-01       2.161172265602e-01 
       2.674858990930e-01       2.035454648614e-01 
       2.764539076010e-01       1.895972688674e-01 
       2.857339303080e-01       1.757571892245e-01 
       2.953410092148e-01       1.636999590080e-01 
       3.052919395542e-01       1.539067200023e-01 
       3.156055844677e-01       1.455313933020e-01 
       3.263032530092e-01       1.372501127699e-01 
       3.374091587054e-01       1.283020706867e-01 
       3.489509817175e-01       1.191716031298e-01 
       3.609605657343e-01       1.108077011350e-01 
       3.734747921333e-01       1.036450203004e-01 
       3.865366902904e-01       9.714141410242e-02 
       4.001968667448e-01       9.061546012389e-02 
       4.145153713076e-01       8.403721860251e-02 
       4.295641718077e-01       7.789132305452e-02 
       4.454304922144e-01       7.234184669050e-02 
       4.622214006969e-01       6.709384166682e-02 
       4.800702491654e-01       6.189198848476e-02 
       4.991459272112e-01       5.692633721773e-02 
       5.196665217302e-01       5.231631110083e-02 
       5.419201087032e-01       4.783271061053e-02 
       5.662975451962e-01       4.348704859539e-02 
       5.933463737275e-01       3.933104386045e-02 
       6.238638458458e-01       3.525336959747e-02 
       6.590669257916e-01       3.126293690445e-02 
       7.009246080454e-01       2.728732458304e-02 
       7.528593308799e-01       2.327847038494e-02 
       8.213469537518e-01       1.914824819060e-02 
       9.196980813302e-01       1.481706453166e-02 
       1.075112183810e+00       1.035091741891e-02 
       1.322697471132e+00       6.379471847622e-03 
       1.662328205042e+00       3.705672289217e-03 
       2.092692408506e+00       2.124553026451e-03 
       2.634543445090e+00       1.207967804892e-03 
       3.316693691389e+00       6.817197925048e-04 
       4.175469971226e+00       3.821221178031e-04 
       5.256605252960e+00       2.128752608223e-04 
       6.617673932723e+00       1.179237005824e-04 
       8.331157880872e+00       6.498812102304e-05 
       1.048830636590e+01       3.564571425534e-05 
       1.320399541071e+01       1.946657931277e-05 
       1.662284535976e+01       1.058810792427e-05 
       2.092692243973e+01       5.737492570990e-06 
       2.634543445002e+01       3.098263789684e-06 
       3.316693691389e+01       1.667597815936e-06 
       4.175469971226e+01       8.948037467088e-07 
       5.256605252960e+01       4.787149910218e-07 
       6.617673932723e+01       2.553750403751e-07 
