# Matter power spectrum P(k) at redshift z=0
# for k=1.04775e-05 to 67.6233 h/Mpc,
# number of wavenumbers equal to 246
#    1:k (h/Mpc)              2:P (Mpc/h)^3        
       1.047750691046e-05       5.020964811308e+01 
       1.131335172503e-05       5.407050701928e+01 
       1.221587619537e-05       5.822819068606e+01 
       1.319039970183e-05       6.270562594782e+01 
       1.424266597921e-05       6.752732240880e+01 
       1.537887696968e-05       7.271977206173e+01 
       1.660572937635e-05       7.831147247911e+01 
       1.793045413292e-05       8.433311821988e+01 
       1.936085902198e-05       9.081778249833e+01 
       2.090537469327e-05       9.780108069296e+01 
       2.257310435294e-05       1.053213197893e+02 
       2.437387741694e-05       1.134197377890e+02 
       2.631830744443e-05       1.221408203809e+02 
       2.841785469300e-05       1.315324642463e+02 
       3.068489366414e-05       1.416462094881e+02 
       3.313278603720e-05       1.525374501932e+02 
       3.577595942169e-05       1.642660688414e+02 
       3.862999239199e-05       1.768963506307e+02 
       4.171170630578e-05       1.904975994010e+02 
       4.503926444729e-05       2.051444491974e+02 
       4.863227907969e-05       2.209171465549e+02 
       5.251192703764e-05       2.379022224249e+02 
       5.670107454120e-05       2.561927927797e+02 
       6.122441196689e-05       2.758890444041e+02 
       6.610859936996e-05       2.970989227883e+02 
       7.138242361596e-05       3.199385560802e+02 
       7.707696804727e-05       3.445329783680e+02 
       8.322579568497e-05       3.710167318946e+02 
       8.986514704559e-05       3.995346444203e+02 
       9.703415373875e-05       4.302425407383e+02 
       1.047750691046e-04       4.633080766742e+02 
       1.131335172503e-04       4.989116271564e+02 
       1.221587619537e-04       5.372471950929e+02 
       1.319039970183e-04       5.785234129336e+02 
       1.424266597921e-04       6.229645936045e+02 
       1.537887696968e-04       6.708118490405e+02 
       1.660572937635e-04       7.223242666092e+02 
       1.793045413292e-04       7.777801558978e+02 
       1.936085902198e-04       8.374783614140e+02 
       2.090537469327e-04       9.017396271823e+02 
       2.257310435294e-04       9.709080268040e+02 
       2.437387741694e-04       1.045352449493e+03 
       2.631830744443e-04       1.125468123750e+03 
       2.841785469300e-04       1.211678180494e+03 
       3.068489366414e-04       1.304435250150e+03 
       3.313278603720e-04       1.404223053681e+03 
       3.577595942169e-04       1.511558014616e+03 
       3.862999239199e-04       1.626990837767e+03 
       4.171170630578e-04       1.751108028789e+03 
       4.503926444729e-04       1.884533382872e+03 
       4.863227907969e-04       2.027929378110e+03 
       5.251192703764e-04       2.181998448132e+03 
       5.670107454121e-04       2.347484102753e+03 
       6.122441196689e-04       2.525171871364e+03 
       6.610859936996e-04       2.715889983590e+03 
       7.138242361596e-04       2.920509688377e+03 
       7.707696804727e-04       3.139945100275e+03 
       8.322579568497e-04       3.375152337578e+03 
       8.986514704559e-04       3.627127831135e+03 
       9.703415373875e-04       3.896905453129e+03 
       1.047750691046e-03       4.185552174273e+03 
       1.131335172503e-03       4.494162430362e+03 
       1.221587619537e-03       4.823850706491e+03 
       1.319039970183e-03       5.175742738780e+03 
       1.424266597921e-03       5.551019596907e+03 
       1.537887696968e-03       5.950788340527e+03 
       1.660572937635e-03       6.376123051679e+03 
       1.793045413292e-03       6.828073901401e+03 
       1.936085902198e-03       7.307625381003e+03 
       2.090537469327e-03       7.815671861531e+03 
       2.257310435294e-03       8.352990375706e+03 
       2.437387741694e-03       8.920211064227e+03 
       2.631830744443e-03       9.517783068945e+03 
       2.841785469300e-03       1.014593704414e+04 
       3.068489366414e-03       1.080464502777e+04 
       3.313278603720e-03       1.149357460307e+04 
       3.577595942169e-03       1.221203621679e+04 
       3.862999239199e-03       1.295892539391e+04 
       4.171170630578e-03       1.373266009274e+04 
       4.503926444729e-03       1.453111835539e+04 
       4.863227907969e-03       1.535154982232e+04 
       5.251192703764e-03       1.619063596384e+04 
       5.670107454120e-03       1.704431256769e+04 
       6.122441196689e-03       1.790755950151e+04 
       6.610859936996e-03       1.877460427471e+04 
       7.138242361596e-03       1.963872464213e+04 
       7.707696804727e-03       2.049215712894e+04 
       8.322579568496e-03       2.132611108572e+04 
       8.986514704559e-03       2.213055064714e+04 
       9.703415373875e-03       2.289445590924e+04 
       1.047750691046e-02       2.360548620816e+04 
       1.131335172503e-02       2.425022578910e+04 
       1.221587619537e-02       2.481423925630e+04 
       1.319039970183e-02       2.528219351993e+04 
       1.424266597920e-02       2.563814520657e+04 
       1.537887696964e-02       2.586608981948e+04 
       1.660572937560e-02       2.595027630803e+04 
       1.793045412207e-02       2.587636828360e+04 
       1.936085889642e-02       2.563218300233e+04 
       2.090537351881e-02       2.520932934983e+04 
       2.257309534705e-02       2.460461492139e+04 
       2.437382002240e-02       2.382091220627e+04 
       2.631799943729e-02       2.287039149134e+04 
       2.841644544598e-02       2.177447222995e+04 
       3.067933354524e-02       2.056543191951e+04 
       3.311368469821e-02       1.928723515610e+04 
       3.571840442514e-02       1.799390805147e+04 
       3.847720347390e-02       1.674677460482e+04 
       4.135335537314e-02       1.560463178180e+04 
       4.429361666563e-02       1.461027717464e+04 
       4.724366437916e-02       1.378055238392e+04 
       5.016480834039e-02       1.310505372832e+04 
       5.303989618930e-02       1.255713902699e+04 
       5.586870668205e-02       1.210422726700e+04 
       5.866042679206e-02       1.171462472170e+04 
       6.142798931504e-02       1.136048017315e+04 
       6.418496438662e-02       1.101860835423e+04 
       6.694418832236e-02       1.067067297343e+04 
       6.971731104453e-02       1.030345919882e+04 
       7.251476154108e-02       9.909072824495e+03 
       7.534587669814e-02       9.483663724578e+03 
       7.821907664495e-02       9.029375555163e+03 
       8.114203771084e-02       8.552147674110e+03 
       8.412184533139e-02       8.061966486874e+03 
       8.716512277352e-02       7.570789110145e+03 
       9.027813693913e-02       7.092504335296e+03 
       9.346688429613e-02       6.640519210872e+03 
       9.673716026122e-02       6.226714064233e+03 
       1.000946150608e-01       5.859952993089e+03 
       1.035447986307e-01       5.545221572906e+03 
       1.070931966524e-01       5.283163164801e+03 
       1.107452594180e-01       5.069454693839e+03 
       1.145064248899e-01       4.895277446636e+03 
       1.183821370656e-01       4.747856324413e+03 
       1.223778605591e-01       4.611715278767e+03 
       1.264990921707e-01       4.470614638771e+03 
       1.307513701078e-01       4.310275418980e+03 
       1.351402814485e-01       4.121399398640e+03 
       1.396714683894e-01       3.902044276921e+03 
       1.443506337875e-01       3.658670201581e+03 
       1.491835464900e-01       3.404467388734e+03 
       1.541760469368e-01       3.156642727980e+03 
       1.593340535209e-01       2.931938345544e+03 
       1.646635701934e-01       2.742356139373e+03 
       1.701706958081e-01       2.592229620099e+03 
       1.758616357070e-01       2.477213824624e+03 
       1.817427160581e-01       2.385165297974e+03 
       1.878204014651e-01       2.300346064135e+03 
       1.941013163855e-01       2.205774864458e+03 
       2.005922709060e-01       2.090837575056e+03 
       2.073002914514e-01       1.956454839569e+03 
       2.142326570343e-01       1.814178461300e+03 
       2.213969417044e-01       1.679275770790e+03 
       2.288010639201e-01       1.563847548432e+03 
       2.364533436625e-01       1.472669874719e+03 
       2.443625682390e-01       1.401512058641e+03 
       2.525380678946e-01       1.338418234880e+03 
       2.609898025770e-01       1.270899444677e+03 
       2.697284614969e-01       1.193359790852e+03 
       2.787655775073e-01       1.109331384592e+03 
       2.881136588192e-01       1.028761721392e+03 
       2.977863412019e-01       9.604755732399e+02 
       3.077985646248e-01       9.050152465261e+02 
       3.181667793367e-01       8.561345632750e+02 
       3.289091877084e-01       8.061794013709e+02 
       3.400460298905e-01       7.523799655384e+02 
       3.515999235695e-01       6.989118651584e+02 
       3.635962710278e-01       6.510593376086e+02 
       3.760637505499e-01       6.101162986829e+02 
       3.890349143014e-01       5.721245152060e+02 
       4.025469215929e-01       5.337744439569e+02 
       4.166424455447e-01       4.956222501810e+02 
       4.313708034899e-01       4.604635647827e+02 
       4.467893781976e-01       4.287685710293e+02 
       4.629654198623e-01       3.987671601655e+02 
       4.799783500912e-01       3.692346174476e+02 
       4.979227318246e-01       3.412354185371e+02 
       5.169121269689e-01       3.154769041553e+02 
       5.370841403262e-01       2.908293387023e+02 
       5.586070463286e-01       2.671004694993e+02 
       5.816885093582e-01       2.448042093015e+02 
       6.065870143577e-01       2.235641307472e+02 
       6.336266466978e-01       2.032072697331e+02 
       6.632156057925e-01       1.838751992477e+02 
       6.958678637575e-01       1.653512128057e+02 
       7.322247983784e-01       1.476926736097e+02 
       7.730680193171e-01       1.308312669371e+02 
       8.193049551574e-01       1.148292310918e+02 
       8.718988013754e-01       9.976057423671e+01 
       9.317218028590e-01       8.577539463521e+01 
       9.993660906273e-01       7.305226197841e+01 
       1.075037109879e+00       6.173362833795e+01 
       1.158653485387e+00       5.187674801184e+01 
       1.250099156961e+00       4.343776355857e+01 
       1.349432400897e+00       3.628656469635e+01 
       1.456947456991e+00       3.026551063519e+01 
       1.573135110893e+00       2.521207222552e+01 
       1.698621895119e+00       2.097976678150e+01 
       1.834127512423e+00       1.744004965851e+01 
       1.980444933977e+00       1.448327286596e+01 
       2.138435191130e+00       1.201655797020e+01 
       2.309029198543e+00       9.960902987120e+00 
       2.493232376993e+00       8.249575468149e+00 
       2.692130394536e+00       6.826331074834e+00 
       2.906895533764e+00       5.643990136840e+00 
       3.138793596840e+00       4.662642403170e+00 
       3.389191365541e+00       3.848929228295e+00 
       3.659564656886e+00       3.174790150851e+00 
       3.951507021438e+00       2.616749660864e+00 
       4.266739135513e+00       2.155249798849e+00 
       4.607118942658e+00       1.773857401789e+00 
       4.974652604172e+00       1.458963079644e+00 
       5.371506323193e+00       1.199128923911e+00 
       5.800019112071e+00       9.849107561068e-01 
       6.262716578240e+00       8.084215481609e-01 
       6.762325809881e+00       6.631129284072e-01 
       7.301791449077e+00       5.435687969832e-01 
       7.884293047211e+00       4.452776924278e-01 
       8.513263804891e+00       3.645161297996e-01 
       9.192410806865e+00       2.981994531900e-01 
       9.925736871166e+00       2.437780862629e-01 
       1.071756414128e+01       1.991446336476e-01 
       1.157255956041e+01       1.625619296153e-01 
       1.249576237789e+01       1.325934433371e-01 
       1.349261385000e+01       1.080607076223e-01 
       1.456898931011e+01       8.798605347240e-02 
       1.573123279727e+01       7.157121172942e-02 
       1.698619444729e+01       5.815636903144e-02 
       1.834127086665e+01       4.719881930259e-02 
       1.980444872733e+01       3.825519904769e-02 
       2.138435183937e+01       3.095936528962e-02 
       2.309029197863e+01       2.501140767560e-02 
       2.493232376942e+01       2.016617602431e-02 
       2.692130394533e+01       1.622237657082e-02 
       2.906895533764e+01       1.301473399275e-02 
       3.138793596840e+01       1.040853732209e-02 
       3.389191365541e+01       8.293436871481e-03 
       3.659564656886e+01       6.579004317913e-03 
       3.951507021438e+01       5.191667972001e-03 
       4.266739135513e+01       4.071244639359e-03 
       4.607118942658e+01       3.168507303173e-03 
       4.974652604172e+01       2.443536848747e-03 
       5.371506323193e+01       1.863627421333e-03 
       5.800019112071e+01       1.402238786010e-03 
       6.262716578240e+01       1.037682360167e-03 
       6.762325809881e+01       7.523064544278e-04 
