# Matter power spectrum P(k) at redshift z=0
# for k=1.04775e-05 to 67.6233 h/Mpc,
# number of wavenumbers equal to 246
#    1:k (h/Mpc)              2:P (Mpc/h)^3        
       1.047750691046e-05       5.020964811307e+01 
       1.131335172503e-05       5.407050701929e+01 
       1.221587619537e-05       5.822819068794e+01 
       1.319039970183e-05       6.270562594781e+01 
       1.424266597921e-05       6.752732240880e+01 
       1.537887696968e-05       7.271977206173e+01 
       1.660572937635e-05       7.831147247911e+01 
       1.793045413292e-05       8.433311821988e+01 
       1.936085902198e-05       9.081778249833e+01 
       2.090537469327e-05       9.780108069296e+01 
       2.257310435294e-05       1.053213197893e+02 
       2.437387741694e-05       1.134197377890e+02 
       2.631830744443e-05       1.221408203810e+02 
       2.841785469300e-05       1.315324642469e+02 
       3.068489366414e-05       1.416462094881e+02 
       3.313278603720e-05       1.525374501932e+02 
       3.577595942169e-05       1.642660688414e+02 
       3.862999239199e-05       1.768963506307e+02 
       4.171170630578e-05       1.904975994009e+02 
       4.503926444729e-05       2.051444491974e+02 
       4.863227907969e-05       2.209171465549e+02 
       5.251192703764e-05       2.379022224249e+02 
       5.670107454120e-05       2.561927928129e+02 
       6.122441196689e-05       2.758890444040e+02 
       6.610859936996e-05       2.970989227881e+02 
       7.138242361596e-05       3.199385560802e+02 
       7.707696804727e-05       3.445329783680e+02 
       8.322579568497e-05       3.710167318946e+02 
       8.986514704559e-05       3.995346444203e+02 
       9.703415373875e-05       4.302425407383e+02 
       1.047750691046e-04       4.633080766742e+02 
       1.131335172503e-04       4.989116271565e+02 
       1.221587619537e-04       5.372471950929e+02 
       1.319039970183e-04       5.785234129336e+02 
       1.424266597921e-04       6.229645936045e+02 
       1.537887696968e-04       6.708118490405e+02 
       1.660572937635e-04       7.223242666092e+02 
       1.793045413292e-04       7.777801564036e+02 
       1.936085902198e-04       8.374783614140e+02 
       2.090537469327e-04       9.017396271824e+02 
       2.257310435294e-04       9.709080268041e+02 
       2.437387741694e-04       1.045352449493e+03 
       2.631830744443e-04       1.125468123750e+03 
       2.841785469300e-04       1.211678180495e+03 
       3.068489366414e-04       1.304435250150e+03 
       3.313278603720e-04       1.404223053681e+03 
       3.577595942169e-04       1.511558014616e+03 
       3.862999239199e-04       1.626990837855e+03 
       4.171170630578e-04       1.751108028790e+03 
       4.503926444729e-04       1.884533382872e+03 
       4.863227907969e-04       2.027929378112e+03 
       5.251192703764e-04       2.181998448133e+03 
       5.670107454121e-04       2.347484102755e+03 
       6.122441196689e-04       2.525171871366e+03 
       6.610859936996e-04       2.715889983592e+03 
       7.138242361596e-04       2.920509688378e+03 
       7.707696804727e-04       3.139945100279e+03 
       8.322579568497e-04       3.375152337584e+03 
       8.986514704559e-04       3.627127831141e+03 
       9.703415373875e-04       3.896905453136e+03 
       1.047750691046e-03       4.185552174298e+03 
       1.131335172503e-03       4.494162430373e+03 
       1.221587619537e-03       4.823850706502e+03 
       1.319039970183e-03       5.175742743878e+03 
       1.424266597921e-03       5.551019596914e+03 
       1.537887696968e-03       5.950788340547e+03 
       1.660572937635e-03       6.376123051785e+03 
       1.793045413292e-03       6.828073901459e+03 
       1.936085902198e-03       7.307625381066e+03 
       2.090537469327e-03       7.815671864627e+03 
       2.257310435294e-03       8.352990375822e+03 
       2.437387741694e-03       8.920211064363e+03 
       2.631830744443e-03       9.517783069109e+03 
       2.841785469300e-03       1.014593704435e+04 
       3.068489366414e-03       1.080464502782e+04 
       3.313278603720e-03       1.149357460344e+04 
       3.577595942169e-03       1.221203621721e+04 
       3.862999239199e-03       1.295892539444e+04 
       4.171170630578e-03       1.373266011933e+04 
       4.503926444729e-03       1.453111835621e+04 
       4.863227907969e-03       1.535154985267e+04 
       5.251192703764e-03       1.619063614380e+04 
       5.670107454120e-03       1.704431257731e+04 
       6.122441196689e-03       1.790755939737e+04 
       6.610859936996e-03       1.877460421597e+04 
       7.138242361596e-03       1.963872430655e+04 
       7.707696804727e-03       2.049215714647e+04 
       8.322579568496e-03       2.132607233144e+04 
       8.986514704559e-03       2.213055019703e+04 
       9.703415373875e-03       2.289445473323e+04 
       1.047750691046e-02       2.360548874340e+04 
       1.131335172503e-02       2.425022855121e+04 
       1.221587619537e-02       2.481423922140e+04 
       1.319039970183e-02       2.528218618777e+04 
       1.424266597920e-02       2.563814586065e+04 
       1.537887696964e-02       2.586606523878e+04 
       1.660572937560e-02       2.595027655730e+04 
       1.793045412207e-02       2.587634797255e+04 
       1.936085889642e-02       2.563220904800e+04 
       2.090537351881e-02       2.520934452813e+04 
       2.257309534705e-02       2.460445187826e+04 
       2.437382002240e-02       2.382084578542e+04 
       2.631799943729e-02       2.287045189997e+04 
       2.841644544598e-02       2.177450121101e+04 
       3.067933354524e-02       2.056556473175e+04 
       3.311368469821e-02       1.928733711129e+04 
       3.571840442514e-02       1.799399042744e+04 
       3.847720347390e-02       1.674679513567e+04 
       4.135335537314e-02       1.560458671400e+04 
       4.429361666563e-02       1.461037569076e+04 
       4.724366437916e-02       1.378054948111e+04 
       5.016480834039e-02       1.310504159691e+04 
       5.303989618930e-02       1.255714856122e+04 
       5.586870668205e-02       1.210426085216e+04 
       5.866042679206e-02       1.171462102702e+04 
       6.142798931504e-02       1.136043927992e+04 
       6.418496438662e-02       1.101857044716e+04 
       6.694418832236e-02       1.067065310792e+04 
       6.971731104453e-02       1.030356063891e+04 
       7.251476154108e-02       9.909053884191e+03 
       7.534587669814e-02       9.483724400107e+03 
       7.821907664495e-02       9.029486427274e+03 
       8.114203771084e-02       8.552285427978e+03 
       8.412184533139e-02       8.061930605075e+03 
       8.716512277352e-02       7.570765989851e+03 
       9.027813693913e-02       7.092460070526e+03 
       9.346688429613e-02       6.640471641484e+03 
       9.673716026122e-02       6.226691358749e+03 
       1.000946150608e-01       5.859894810305e+03 
       1.035447986307e-01       5.545242425412e+03 
       1.070931966524e-01       5.283103226451e+03 
       1.107452594180e-01       5.069413114857e+03 
       1.145064248899e-01       4.895230201274e+03 
       1.183821370656e-01       4.747832099500e+03 
       1.223778605591e-01       4.611720574830e+03 
       1.264990921707e-01       4.470623741676e+03 
       1.307513701078e-01       4.310252789993e+03 
       1.351402814485e-01       4.121375170076e+03 
       1.396714683894e-01       3.902046124921e+03 
       1.443506337875e-01       3.658647814196e+03 
       1.491835464900e-01       3.404473343294e+03 
       1.541760469368e-01       3.156666780972e+03 
       1.593340535209e-01       2.931962994333e+03 
       1.646635701934e-01       2.742360301592e+03 
       1.701706958081e-01       2.592242771238e+03 
       1.758616357070e-01       2.477232494387e+03 
       1.817427160581e-01       2.385169650919e+03 
       1.878204014651e-01       2.300341611646e+03 
       1.941013163855e-01       2.205740616146e+03 
       2.005922709060e-01       2.090797056216e+03 
       2.073002914514e-01       1.956451528263e+03 
       2.142326570343e-01       1.814177216376e+03 
       2.213969417044e-01       1.679275050523e+03 
       2.288010639201e-01       1.563824449249e+03 
       2.364533436625e-01       1.472662775545e+03 
       2.443625682390e-01       1.401489500460e+03 
       2.525380678946e-01       1.338385688437e+03 
       2.609898025770e-01       1.270872502870e+03 
       2.697284614969e-01       1.193351621804e+03 
       2.787655775073e-01       1.109308418011e+03 
       2.881136588192e-01       1.028737328422e+03 
       2.977863412019e-01       9.604478521147e+02 
       3.077985646248e-01       9.049890554317e+02 
       3.181667793367e-01       8.561095136446e+02 
       3.289091877084e-01       8.061490714527e+02 
       3.400460298905e-01       7.523484882820e+02 
       3.515999235695e-01       6.988798189594e+02 
       3.635962710278e-01       6.510176338041e+02 
       3.760637505499e-01       6.100753969558e+02 
       3.890349143014e-01       5.720809524227e+02 
       4.025469215929e-01       5.337284262604e+02 
       4.166424455447e-01       4.955743598429e+02 
       4.313708034899e-01       4.604097350889e+02 
       4.467893781976e-01       4.287153296720e+02 
       4.629654198623e-01       3.987088879582e+02 
       4.799783500912e-01       3.691737704146e+02 
       4.979227318246e-01       3.411685011221e+02 
       5.169121269689e-01       3.154080869001e+02 
       5.370841403262e-01       2.907569818634e+02 
       5.586070463286e-01       2.670233940176e+02 
       5.816885093582e-01       2.447222652704e+02 
       6.065870143577e-01       2.234751066614e+02 
       6.336266466978e-01       2.031131627457e+02 
       6.632156057925e-01       1.837764254898e+02 
       6.958678637575e-01       1.652452533033e+02 
       7.322247983784e-01       1.475799830510e+02 
       7.730680193171e-01       1.307104417022e+02 
       8.193049551574e-01       1.146994556747e+02 
       8.718988013754e-01       9.962121971034e+01 
       9.317218028590e-01       8.562568385663e+01 
       9.993660906273e-01       7.289060968878e+01 
       1.075037109879e+00       6.155814295213e+01 
       1.158653485387e+00       5.168692710255e+01 
       1.250099156961e+00       4.323256397071e+01 
       1.349432400897e+00       3.606559124859e+01 
       1.456947456991e+00       3.002668083168e+01 
       1.573135110893e+00       2.495534406617e+01 
       1.698621895119e+00       2.070406212404e+01 
       1.834127512423e+00       1.714491286563e+01 
       1.980444933977e+00       1.416825194724e+01 
       2.138435191130e+00       1.168114258449e+01 
       2.309029198543e+00       9.604615513632e+00 
       2.493232376993e+00       7.872506672226e+00 
       2.692130394536e+00       6.428660303716e+00 
       2.906895533764e+00       5.226247428089e+00 
       3.138793596840e+00       4.225603272122e+00 
       3.389191365541e+00       3.393911240054e+00 
       3.659564656886e+00       2.703628503049e+00 
       3.951507021438e+00       2.131950279444e+00 
       4.266739135513e+00       1.659877933199e+00 
       4.607118942658e+00       1.271787622975e+00 
       4.974652604172e+00       9.547883497843e-01 
       5.371506323193e+00       6.982697977619e-01 
       5.800019112071e+00       4.934984470713e-01 
       6.262716578240e+00       3.331808764710e-01 
       6.762325809881e+00       2.111724022886e-01 
       7.301791449077e+00       1.220991607326e-01 
       7.884293047211e+00       6.108388156003e-02 
       8.513263804891e+00       2.348194794687e-02 
       9.192410806865e+00       4.689095638613e-03 
       9.925736871166e+00       3.759456401979e-05 
       1.071756414128e+01       4.818751879396e-03 
       1.157255956041e+01       1.444411176192e-02 
       1.249576237789e+01       2.474752791926e-02 
       1.349261385000e+01       3.239876393254e-02 
       1.456898931011e+01       3.530686588712e-02 
       1.573123279727e+01       3.291647566063e-02 
       1.698619444729e+01       2.621145311891e-02 
       1.834127086665e+01       1.734038034238e-02 
       1.980444872733e+01       8.874042152980e-03 
       2.138435183937e+01       2.889985458178e-03 
       2.309029197863e+01       2.288367974504e-04 
       2.493232376942e+01       2.905151978348e-04 
       2.692130394533e+01       1.522024596869e-03 
       2.906895533764e+01       2.372750453545e-03 
       3.138793596840e+01       2.146853674964e-03 
       3.389191365541e+01       1.189138376594e-03 
       3.659564656886e+01       3.130085200750e-04 
       3.951507021438e+01       1.667012402629e-06 
       4.266739135513e+01       1.026246971479e-04 
       4.607118942658e+01       2.013821546053e-04 
       4.974652604172e+01       1.312930760333e-04 
       5.371506323193e+01       2.515277937345e-05 
       5.800019112071e+01       1.295644943832e-06 
       6.262716578240e+01       1.692455219668e-05 
       6.762325809881e+01       1.205082973933e-05 
