# Matter power spectrum P(k) at redshift z=99
# for k=1.04775e-05 to 66.1767 h/Mpc,
# number of wavenumbers equal to 130
#    1:k (h/Mpc)              2:P (Mpc/h)^3        
       1.047750691046e-05       7.261927680862e-03 
       1.319039970183e-05       9.069258201849e-03 
       1.660572937635e-05       1.132639106725e-02 
       2.090537469327e-05       1.414527123399e-02 
       2.631830744443e-05       1.766569584058e-02 
       3.313278603720e-05       2.206225515942e-02 
       4.171170630578e-05       2.755297766277e-02 
       5.251192703764e-05       3.441013522947e-02 
       6.610859936996e-05       4.297372172778e-02 
       8.322579568497e-05       5.366826852944e-02 
       1.047750691046e-04       6.702379872774e-02 
       1.319039970183e-04       8.370193441286e-02 
       1.660572937635e-04       1.045283355384e-01 
       2.090537469327e-04       1.305329134104e-01 
       2.631830744443e-04       1.629994506605e-01 
       3.313278603720e-04       2.035264004601e-01 
       4.171170630578e-04       2.541004744243e-01 
       5.251192703764e-04       3.171839528557e-01 
       6.610859936996e-04       3.958147256513e-01 
       8.322579568497e-04       4.937136006303e-01 
       1.047750691046e-03       6.153841636042e-01 
       1.319039970183e-03       7.661720592396e-01 
       1.660572937635e-03       9.522588016482e-01 
       2.090537469327e-03       1.180312991698e+00 
       2.631830744443e-03       1.456802684686e+00 
       3.313278603720e-03       1.786503854043e+00 
       4.171170630578e-03       2.169896195305e+00 
       5.251192703764e-03       2.599430630721e+00 
       6.610859936996e-03       3.055668704694e+00 
       8.322579568497e-03       3.505725598662e+00 
       1.047750691046e-02       3.905489858502e+00 
       1.319039970183e-02       4.200915305389e+00 
       1.660572937633e-02       4.325061604296e+00 
       2.090537453514e-02       4.210202111018e+00 
       2.631818545635e-02       3.825145529550e+00 
       3.311571692125e-02       3.229060765258e+00 
       4.113809243311e-02       2.627724805926e+00 
       4.792590854610e-02       2.280793750303e+00 
       5.284436902701e-02       2.110085635813e+00 
       5.689644391095e-02       2.003540758781e+00 
       6.051252627066e-02       1.923056888685e+00 
       6.388413457411e-02       1.852733701313e+00 
       6.711249296401e-02       1.784565052463e+00 
       7.025823437965e-02       1.714279136233e+00 
       7.336115587705e-02       1.639814100769e+00 
       7.644928796912e-02       1.560659498594e+00 
       7.954353299775e-02       1.477461338484e+00 
       8.266024078725e-02       1.391698803638e+00 
       8.581273398637e-02       1.305462121243e+00 
       8.901225918437e-02       1.221126766622e+00 
       9.226860540985e-02       1.141076644942e+00 
       9.559052048996e-02       1.067451817445e+00 
       9.898599946599e-02       1.001890793045e+00 
       1.024624891378e-01       9.453810104795e-01 
       1.060270359164e-01       8.981490250052e-01 
       1.096863943056e-01       8.596140635198e-01 
       1.134471073830e-01       8.284062500557e-01 
       1.173155669539e-01       8.024661841130e-01 
       1.212980586983e-01       7.792284498045e-01 
       1.254007961065e-01       7.559175489580e-01 
       1.296299459934e-01       7.299839825489e-01 
       1.339916477160e-01       6.995934727029e-01 
       1.384920277736e-01       6.640788715964e-01 
       1.431372111762e-01       6.241478262463e-01 
       1.479333307714e-01       5.817628349126e-01 
       1.528865355934e-01       5.396939672976e-01 
       1.580029992204e-01       5.008144285190e-01 
       1.632889290723e-01       4.673990976713e-01 
       1.687505775527e-01       4.405343588811e-01 
       1.743942559171e-01       4.198654361158e-01 
       1.802263517371e-01       4.036599639018e-01 
       1.862533508214e-01       3.893588776676e-01 
       1.924818644494e-01       3.741346558839e-01 
       1.989186627765e-01       3.558016357451e-01 
       2.055707152847e-01       3.339989183365e-01 
       2.124452391818e-01       3.102650683018e-01 
       2.195497567139e-01       2.871229350766e-01 
       2.268921624510e-01       2.668087789944e-01 
       2.344808017550e-01       2.504837135796e-01 
       2.423245618548e-01       2.378340849282e-01 
       2.504329772620e-01       2.271120238582e-01 
       2.588163516754e-01       2.161169680679e-01 
       2.674858990930e-01       2.035452423644e-01 
       2.764539076010e-01       1.895974221624e-01 
       2.857339303080e-01       1.757574700184e-01 
       2.953410092148e-01       1.636993933526e-01 
       3.052919395542e-01       1.539064971218e-01 
       3.156055844677e-01       1.455311851900e-01 
       3.263032530092e-01       1.372499872296e-01 
       3.374091587054e-01       1.283019846948e-01 
       3.489509817175e-01       1.191718018326e-01 
       3.609605657343e-01       1.108074631187e-01 
       3.734747921333e-01       1.036448927092e-01 
       3.865366902904e-01       9.714168046219e-02 
       4.001968667448e-01       9.061572350919e-02 
       4.145153713076e-01       8.403719749732e-02 
       4.295641718077e-01       7.789130947603e-02 
       4.454304922144e-01       7.234173059645e-02 
       4.622214006969e-01       6.709382363148e-02 
       4.800702491654e-01       6.189185473471e-02 
       4.991459272112e-01       5.692652240407e-02 
       5.196665217302e-01       5.231614833387e-02 
       5.419201087032e-01       4.783269915162e-02 
       5.662975451962e-01       4.348688081923e-02 
       5.933463737275e-01       3.933115079741e-02 
       6.238638458458e-01       3.525340423788e-02 
       6.590669257916e-01       3.126299091318e-02 
       7.009246080454e-01       2.728731342146e-02 
       7.528593308799e-01       2.327844002959e-02 
       8.213469537518e-01       1.914827103179e-02 
       9.196980813302e-01       1.481705649214e-02 
       1.075112183810e+00       1.035091856516e-02 
       1.322697471132e+00       6.379474993946e-03 
       1.662328205042e+00       3.705646098006e-03 
       2.092692408506e+00       2.124540975031e-03 
       2.634543445090e+00       1.207958723205e-03 
       3.316693691389e+00       6.817045054180e-04 
       4.175469971226e+00       3.821066285510e-04 
       5.256605252960e+00       2.128560839648e-04 
       6.617673932723e+00       1.178978071178e-04 
       8.331157880872e+00       6.495633052683e-05 
       1.048830636590e+01       3.560566801504e-05 
       1.320399541071e+01       1.941599096548e-05 
       1.662284535976e+01       1.052467927305e-05 
       2.092692243973e+01       5.658756426351e-06 
       2.634543445002e+01       3.001949693564e-06 
       3.316693691389e+01       1.552493801119e-06 
       4.175469971226e+01       7.622302647941e-07 
       5.256605252960e+01       3.348234218537e-07 
       6.617673932723e+01       1.139444975891e-07 
