# Matter power spectrum P(k) at redshift z=0
# for k=1.04775e-05 to 66.1767 h/Mpc,
# number of wavenumbers equal to 130
#    1:k (h/Mpc)              2:P (Mpc/h)^3        
       1.047750691046e-05       5.020964811308e+01 
       1.319039970183e-05       6.270562594770e+01 
       1.660572937635e-05       7.831147247912e+01 
       2.090537469327e-05       9.780108069295e+01 
       2.631830744443e-05       1.221408203809e+02 
       3.313278603720e-05       1.525374501932e+02 
       4.171170630578e-05       1.904975994009e+02 
       5.251192703764e-05       2.379022224249e+02 
       6.610859936996e-05       2.970989227881e+02 
       8.322579568497e-05       3.710167318946e+02 
       1.047750691046e-04       4.633080766742e+02 
       1.319039970183e-04       5.785234129337e+02 
       1.660572937635e-04       7.223242666092e+02 
       2.090537469327e-04       9.017396271824e+02 
       2.631830744443e-04       1.125468123750e+03 
       3.313278603720e-04       1.404223053681e+03 
       4.171170630578e-04       1.751108028790e+03 
       5.251192703764e-04       2.181998448133e+03 
       6.610859936996e-04       2.715889983592e+03 
       8.322579568497e-04       3.375152337135e+03 
       1.047750691046e-03       4.185552174295e+03 
       1.319039970183e-03       5.175742738758e+03 
       1.660572937635e-03       6.376123051788e+03 
       2.090537469327e-03       7.815671865915e+03 
       2.631830744443e-03       9.517783069097e+03 
       3.313278603720e-03       1.149357460342e+04 
       4.171170630578e-03       1.373266014459e+04 
       5.251192703764e-03       1.619063612856e+04 
       6.610859936996e-03       1.877460420007e+04 
       8.322579568497e-03       2.132607245302e+04 
       1.047750691046e-02       2.360548677639e+04 
       1.319039970183e-02       2.528218763283e+04 
       1.660572937633e-02       2.595027989895e+04 
       2.090537453514e-02       2.520936727011e+04 
       2.631818545635e-02       2.287038386481e+04 
       3.311571692125e-02       1.928625701275e+04 
       4.113809243311e-02       1.568422977410e+04 
       4.792590854610e-02       1.361059768119e+04 
       5.284436902701e-02       1.259127141728e+04 
       5.689644391095e-02       1.195560216479e+04 
       6.051252627066e-02       1.147553210714e+04 
       6.388413457411e-02       1.105597345419e+04 
       6.711249296401e-02       1.064904635841e+04 
       7.025823437965e-02       1.022934399420e+04 
       7.336115587705e-02       9.784573277945e+03 
       7.644928796912e-02       9.311665715672e+03 
       7.954353299775e-02       8.814580494675e+03 
       8.266024078725e-02       8.302177573404e+03 
       8.581273398637e-02       7.786987769565e+03 
       8.901225918437e-02       7.283247719432e+03 
       9.226860540985e-02       6.805206474024e+03 
       9.559052048996e-02       6.365640962452e+03 
       9.898599946599e-02       5.974423212933e+03 
       1.024624891378e-01       5.637366350678e+03 
       1.060270359164e-01       5.355790596019e+03 
       1.096863943056e-01       5.126251710723e+03 
       1.134471073830e-01       4.940503341751e+03 
       1.173155669539e-01       4.786170365592e+03 
       1.212980586983e-01       4.647941795195e+03 
       1.254007961065e-01       4.509158882872e+03 
       1.296299459934e-01       4.354535975652e+03 
       1.339916477160e-01       4.173175360183e+03 
       1.384920277736e-01       3.961136460186e+03 
       1.431372111762e-01       3.722676259085e+03 
       1.479333307714e-01       3.469556866861e+03 
       1.528865355934e-01       3.218321544877e+03 
       1.580029992204e-01       2.986260161316e+03 
       1.632889290723e-01       2.786951671228e+03 
       1.687505775527e-01       2.626809384061e+03 
       1.743942559171e-01       2.503757607682e+03 
       1.802263517371e-01       2.407303853231e+03 
       1.862533508214e-01       2.322255355250e+03 
       1.924818644494e-01       2.231558017893e+03 
       1.989186627765e-01       2.122191178396e+03 
       2.055707152847e-01       1.992040982120e+03 
       2.124452391818e-01       1.850319127805e+03 
       2.195497567139e-01       1.712161910530e+03 
       2.268921624510e-01       1.590970308377e+03 
       2.344808017550e-01       1.493657797927e+03 
       2.423245618548e-01       1.418305405715e+03 
       2.504329772620e-01       1.354450121112e+03 
       2.588163516754e-01       1.288932186841e+03 
       2.674858990930e-01       1.213909339362e+03 
       2.764539076010e-01       1.130680734736e+03 
       2.857339303080e-01       1.048085657379e+03 
       2.953410092148e-01       9.761719345793e+02 
       3.052919395542e-01       9.178027025128e+02 
       3.156055844677e-01       8.678858862315e+02 
       3.263032530092e-01       8.185220731788e+02 
       3.374091587054e-01       7.651394500347e+02 
       3.489509817175e-01       7.106610213324e+02 
       3.609605657343e-01       6.607773056088e+02 
       3.734747921333e-01       6.180794618842e+02 
       3.865366902904e-01       5.793007027427e+02 
       4.001968667448e-01       5.403820648457e+02 
       4.145153713076e-01       5.011414189625e+02 
       4.295641718077e-01       4.644947214082e+02 
       4.454304922144e-01       4.313998683478e+02 
       4.622214006969e-01       4.001092682622e+02 
       4.800702491654e-01       3.690834804909e+02 
       4.991459272112e-01       3.394706794590e+02 
       5.196665217302e-01       3.119797129587e+02 
       5.419201087032e-01       2.852421576563e+02 
       5.662975451962e-01       2.593265302110e+02 
       5.933463737275e-01       2.345447362299e+02 
       6.238638458458e-01       2.102287903535e+02 
       6.590669257916e-01       1.864325915129e+02 
       7.009246080454e-01       1.627240940562e+02 
       7.528593308799e-01       1.388173604099e+02 
       8.213469537518e-01       1.141879506332e+02 
       9.196980813302e-01       8.835859630280e+01 
       1.075112183810e+00       6.172549933715e+01 
       1.322697471132e+00       3.804280378595e+01 
       1.662328205042e+00       2.209770001411e+01 
       2.092692408506e+00       1.266889345846e+01 
       2.634543445090e+00       7.203029655999e+00 
       3.316693691389e+00       4.064913406474e+00 
       4.175469971226e+00       2.278415902029e+00 
       5.256605252960e+00       1.269156269903e+00 
       6.617673932723e+00       7.029521713613e-01 
       8.331157880872e+00       3.873081054593e-01 
       1.048830636590e+01       2.123529361992e-01 
       1.320399541071e+01       1.158915869981e-01 
       1.662284535976e+01       6.296434910326e-02 
       2.092692243973e+01       3.405638375252e-02 
       2.634543445002e+01       1.833372341498e-02 
       3.316693691389e+01       9.817112302369e-03 
       4.175469971226e+01       5.222471757380e-03 
       5.256605252960e+01       2.753939462892e-03 
       6.617673932723e+01       1.433891550980e-03 
