# Matter power spectrum P(k) at redshift z=0
# for k=1.04775e-05 to 66.1767 h/Mpc,
# number of wavenumbers equal to 130
#    1:k (h/Mpc)              2:P (Mpc/h)^3        
       1.047750691046e-05       5.020964811308e+01 
       1.319039970183e-05       6.270562594768e+01 
       1.660572937635e-05       7.831147247911e+01 
       2.090537469327e-05       9.780108069296e+01 
       2.631830744443e-05       1.221408203809e+02 
       3.313278603720e-05       1.525374501932e+02 
       4.171170630578e-05       1.904975994010e+02 
       5.251192703764e-05       2.379022224249e+02 
       6.610859936996e-05       2.970989227881e+02 
       8.322579568497e-05       3.710167318945e+02 
       1.047750691046e-04       4.633080766742e+02 
       1.319039970183e-04       5.785234129340e+02 
       1.660572937635e-04       7.223242666092e+02 
       2.090537469327e-04       9.017396271823e+02 
       2.631830744443e-04       1.125468123750e+03 
       3.313278603720e-04       1.404223053681e+03 
       4.171170630578e-04       1.751108028789e+03 
       5.251192703764e-04       2.181998448132e+03 
       6.610859936996e-04       2.715889983591e+03 
       8.322579568497e-04       3.375152337130e+03 
       1.047750691046e-03       4.185552174326e+03 
       1.319039970183e-03       5.175742743508e+03 
       1.660572937635e-03       6.376123051731e+03 
       2.090537469327e-03       7.815671862151e+03 
       2.631830744443e-03       9.517783069023e+03 
       3.313278603720e-03       1.149357460328e+04 
       4.171170630578e-03       1.373266011954e+04 
       5.251192703764e-03       1.619063604899e+04 
       6.610859936996e-03       1.877460440914e+04 
       8.322579568497e-03       2.132611395161e+04 
       1.047750691046e-02       2.360548784725e+04 
       1.319039970183e-02       2.528219074636e+04 
       1.660572937633e-02       2.595026450363e+04 
       2.090537453514e-02       2.520933619488e+04 
       2.631818545635e-02       2.287029567292e+04 
       3.311571692125e-02       1.928626128620e+04 
       4.113809243311e-02       1.568424891766e+04 
       4.792590854610e-02       1.361061836789e+04 
       5.284436902701e-02       1.259131525015e+04 
       5.689644391095e-02       1.195555099527e+04 
       6.051252627066e-02       1.147547442557e+04 
       6.388413457411e-02       1.105591784401e+04 
       6.711249296401e-02       1.064900266512e+04 
       7.025823437965e-02       1.022929762754e+04 
       7.336115587705e-02       9.784558247188e+03 
       7.644928796912e-02       9.311489993118e+03 
       7.954353299775e-02       8.814542847384e+03 
       8.266024078725e-02       8.302179171690e+03 
       8.581273398637e-02       7.786951887556e+03 
       8.901225918437e-02       7.283244925460e+03 
       9.226860540985e-02       6.805183913095e+03 
       9.559052048996e-02       6.365637769973e+03 
       9.898599946599e-02       5.974394531802e+03 
       1.024624891378e-01       5.637335787555e+03 
       1.060270359164e-01       5.355787929896e+03 
       1.096863943056e-01       5.126230737831e+03 
       1.134471073830e-01       4.940477667795e+03 
       1.173155669539e-01       4.786177157171e+03 
       1.212980586983e-01       4.647918312935e+03 
       1.254007961065e-01       4.509059859132e+03 
       1.296299459934e-01       4.354545063836e+03 
       1.339916477160e-01       4.173227033902e+03 
       1.384920277736e-01       3.961176428745e+03 
       1.431372111762e-01       3.722597064861e+03 
       1.479333307714e-01       3.469552755511e+03 
       1.528865355934e-01       3.218323081987e+03 
       1.580029992204e-01       2.986239870047e+03 
       1.632889290723e-01       2.786941039871e+03 
       1.687505775527e-01       2.626807387644e+03 
       1.743942559171e-01       2.503755595521e+03 
       1.802263517371e-01       2.407305087408e+03 
       1.862533508214e-01       2.322255760324e+03 
       1.924818644494e-01       2.231568110019e+03 
       1.989186627765e-01       2.122208507318e+03 
       2.055707152847e-01       1.992040380293e+03 
       2.124452391818e-01       1.850299358396e+03 
       2.195497567139e-01       1.712158994012e+03 
       2.268921624510e-01       1.590970665984e+03 
       2.344808017550e-01       1.493654143326e+03 
       2.423245618548e-01       1.418305640425e+03 
       2.504329772620e-01       1.354444628876e+03 
       2.588163516754e-01       1.288932772133e+03 
       2.674858990930e-01       1.213905132109e+03 
       2.764539076010e-01       1.130681097082e+03 
       2.857339303080e-01       1.048083786550e+03 
       2.953410092148e-01       9.761723460284e+02 
       3.052919395542e-01       9.178011466556e+02 
       3.156055844677e-01       8.678857238034e+02 
       3.263032530092e-01       8.185231291234e+02 
       3.374091587054e-01       7.651466754732e+02 
       3.489509817175e-01       7.106572402571e+02 
       3.609605657343e-01       6.607783149401e+02 
       3.734747921333e-01       6.180780407995e+02 
       3.865366902904e-01       5.793000164667e+02 
       4.001968667448e-01       5.403814508180e+02 
       4.145153713076e-01       5.011428854213e+02 
       4.295641718077e-01       4.644943336102e+02 
       4.454304922144e-01       4.314005418503e+02 
       4.622214006969e-01       4.001079966878e+02 
       4.800702491654e-01       3.690816583223e+02 
       4.991459272112e-01       3.394694565035e+02 
       5.196665217302e-01       3.119788508376e+02 
       5.419201087032e-01       2.852410548934e+02 
       5.662975451962e-01       2.593250981929e+02 
       5.933463737275e-01       2.345433166741e+02 
       6.238638458458e-01       2.102277551643e+02 
       6.590669257916e-01       1.864308235172e+02 
       7.009246080454e-01       1.627227943376e+02 
       7.528593308799e-01       1.388165018364e+02 
       8.213469537518e-01       1.141866279409e+02 
       9.196980813302e-01       8.835751854696e+01 
       1.075112183810e+00       6.172451491992e+01 
       1.322697471132e+00       3.804095038630e+01 
       1.662328205042e+00       2.209644849604e+01 
       2.092692408506e+00       1.266763288345e+01 
       2.634543445090e+00       7.201709992811e+00 
       3.316693691389e+00       4.063468061843e+00 
       4.175469971226e+00       2.276854342740e+00 
       5.256605252960e+00       1.267449488015e+00 
       6.617673932723e+00       7.010313187430e-01 
       8.331157880872e+00       3.851143964225e-01 
       1.048830636590e+01       2.098120182256e-01 
       1.320399541071e+01       1.129283011487e-01 
       1.662284535976e+01       5.951542558226e-02 
       2.092692243973e+01       3.010778178756e-02 
       2.634543445002e+01       1.398587330841e-02 
       3.316693691389e+01       5.378444973296e-03 
       4.175469971226e+01       1.275644042799e-03 
       5.256605252960e+01       2.454914918109e-05 
       6.617673932723e+01       2.577471876635e-04 
