# Matter power spectrum P(k) at redshift z=99
# for k=1.04775e-05 to 66.1767 h/Mpc,
# number of wavenumbers equal to 130
#    1:k (h/Mpc)              2:P (Mpc/h)^3        
       1.047750691046e-05       7.261927680862e-03 
       1.319039970183e-05       9.069258201849e-03 
       1.660572937635e-05       1.132639106725e-02 
       2.090537469327e-05       1.414527123399e-02 
       2.631830744443e-05       1.766569584058e-02 
       3.313278603720e-05       2.206225515942e-02 
       4.171170630578e-05       2.755297766277e-02 
       5.251192703764e-05       3.441013522947e-02 
       6.610859936996e-05       4.297372172778e-02 
       8.322579568497e-05       5.366826852944e-02 
       1.047750691046e-04       6.702379872775e-02 
       1.319039970183e-04       8.370193441286e-02 
       1.660572937635e-04       1.045283355384e-01 
       2.090537469327e-04       1.305329134104e-01 
       2.631830744443e-04       1.629994506605e-01 
       3.313278603720e-04       2.035264004601e-01 
       4.171170630578e-04       2.541004744243e-01 
       5.251192703764e-04       3.171839528557e-01 
       6.610859936996e-04       3.958147256513e-01 
       8.322579568497e-04       4.937136006269e-01 
       1.047750691046e-03       6.153841636041e-01 
       1.319039970183e-03       7.661720592697e-01 
       1.660572937635e-03       9.522588016487e-01 
       2.090537469327e-03       1.180312991699e+00 
       2.631830744443e-03       1.456802684686e+00 
       3.313278603720e-03       1.786503854038e+00 
       4.171170630578e-03       2.169896191284e+00 
       5.251192703764e-03       2.599430630720e+00 
       6.610859936996e-03       3.055668705685e+00 
       8.322579568497e-03       3.505725598611e+00 
       1.047750691046e-02       3.905492734152e+00 
       1.319039970183e-02       4.200915313103e+00 
       1.660572937633e-02       4.325058859585e+00 
       2.090537453514e-02       4.210198147429e+00 
       2.631818545635e-02       3.825150985591e+00 
       3.311571692125e-02       3.229059073140e+00 
       4.113809243311e-02       2.627725572299e+00 
       4.792590854610e-02       2.280789084185e+00 
       5.284436902701e-02       2.110081623425e+00 
       5.689644391095e-02       2.003541643577e+00 
       6.051252627066e-02       1.923052740323e+00 
       6.388413457411e-02       1.852732395732e+00 
       6.711249296401e-02       1.784563149043e+00 
       7.025823437965e-02       1.714276144562e+00 
       7.336115587705e-02       1.639814911171e+00 
       7.644928796912e-02       1.560665392765e+00 
       7.954353299775e-02       1.477456311508e+00 
       8.266024078725e-02       1.391696928464e+00 
       8.581273398637e-02       1.305461714964e+00 
       8.901225918437e-02       1.221125556954e+00 
       9.226860540985e-02       1.141078053562e+00 
       9.559052048996e-02       1.067450575914e+00 
       9.898599946599e-02       1.001888673652e+00 
       1.024624891378e-01       9.453811509335e-01 
       1.060270359164e-01       8.981501101270e-01 
       1.096863943056e-01       8.596121843184e-01 
       1.134471073830e-01       8.284061676005e-01 
       1.173155669539e-01       8.024662032770e-01 
       1.212980586983e-01       7.792294982258e-01 
       1.254007961065e-01       7.559181461779e-01 
       1.296299459934e-01       7.299821146959e-01 
       1.339916477160e-01       6.995927580597e-01 
       1.384920277736e-01       6.640775335117e-01 
       1.431372111762e-01       6.241462178712e-01 
       1.479333307714e-01       5.817649887325e-01 
       1.528865355934e-01       5.396944191340e-01 
       1.580029992204e-01       5.008133665060e-01 
       1.632889290723e-01       4.673981676315e-01 
       1.687505775527e-01       4.405342097387e-01 
       1.743942559171e-01       4.198665952005e-01 
       1.802263517371e-01       4.036599079040e-01 
       1.862533508214e-01       3.893594478598e-01 
       1.924818644494e-01       3.741352204882e-01 
       1.989186627765e-01       3.558012928366e-01 
       2.055707152847e-01       3.340008141673e-01 
       2.124452391818e-01       3.102659702078e-01 
       2.195497567139e-01       2.871218592351e-01 
       2.268921624510e-01       2.668078804381e-01 
       2.344808017550e-01       2.504833012450e-01 
       2.423245618548e-01       2.378336204953e-01 
       2.504329772620e-01       2.271115370272e-01 
       2.588163516754e-01       2.161165139672e-01 
       2.674858990930e-01       2.035456531917e-01 
       2.764539076010e-01       1.895982234325e-01 
       2.857339303080e-01       1.757571044848e-01 
       2.953410092148e-01       1.636991102184e-01 
       3.052919395542e-01       1.539065259380e-01 
       3.156055844677e-01       1.455306959969e-01 
       3.263032530092e-01       1.372507745182e-01 
       3.374091587054e-01       1.283026227201e-01 
       3.489509817175e-01       1.191712839799e-01 
       3.609605657343e-01       1.108075743203e-01 
       3.734747921333e-01       1.036451309442e-01 
       3.865366902904e-01       9.714126755374e-02 
       4.001968667448e-01       9.061556905138e-02 
       4.145153713076e-01       8.403705158260e-02 
       4.295641718077e-01       7.789120208209e-02 
       4.454304922144e-01       7.234150535449e-02 
       4.622214006969e-01       6.709359690865e-02 
       4.800702491654e-01       6.189198512479e-02 
       4.991459272112e-01       5.692643470928e-02 
       5.196665217302e-01       5.231608917883e-02 
       5.419201087032e-01       4.783274862061e-02 
       5.662975451962e-01       4.348699394501e-02 
       5.933463737275e-01       3.933114524970e-02 
       6.238638458458e-01       3.525325831390e-02 
       6.590669257916e-01       3.126291426870e-02 
       7.009246080454e-01       2.728735228235e-02 
       7.528593308799e-01       2.327845343510e-02 
       8.213469537518e-01       1.914824754437e-02 
       9.196980813302e-01       1.481699045336e-02 
       1.075112183810e+00       1.035088532248e-02 
       1.322697471132e+00       6.379426575647e-03 
       1.662328205042e+00       3.705604951105e-03 
       2.092692408506e+00       2.124469258049e-03 
       2.634543445090e+00       1.207855094905e-03 
       3.316693691389e+00       6.815758586100e-04 
       4.175469971226e+00       3.819435153430e-04 
       5.256605252960e+00       2.126395826998e-04 
       6.617673932723e+00       1.176203494397e-04 
       8.331157880872e+00       6.460302159987e-05 
       1.048830636590e+01       3.516182823599e-05 
       1.320399541071e+01       1.886826133090e-05 
       1.662284535976e+01       9.866739622683e-06 
       2.092692243973e+01       4.899419318257e-06 
       2.634543445002e+01       2.180657752422e-06 
       3.316693691389e+01       7.567418704020e-07 
       4.175469971226e+01       1.297445591355e-07 
       5.256605252960e+01       2.157922294249e-09 
       6.617673932723e+01       8.973293465740e-08 
