# Matter power spectrum P(k) at redshift z=0
# for k=1.04775e-05 to 66.1767 h/Mpc,
# number of wavenumbers equal to 130
#    1:k (h/Mpc)              2:P (Mpc/h)^3        
       1.047750691046e-05       5.020964811312e+01 
       1.319039970183e-05       6.270562594773e+01 
       1.660572937635e-05       7.831147247911e+01 
       2.090537469327e-05       9.780108069295e+01 
       2.631830744443e-05       1.221408203809e+02 
       3.313278603720e-05       1.525374501932e+02 
       4.171170630578e-05       1.904975994010e+02 
       5.251192703764e-05       2.379022224249e+02 
       6.610859936996e-05       2.970989227882e+02 
       8.322579568497e-05       3.710167318946e+02 
       1.047750691046e-04       4.633080766742e+02 
       1.319039970183e-04       5.785234129333e+02 
       1.660572937635e-04       7.223242666092e+02 
       2.090537469327e-04       9.017396271824e+02 
       2.631830744443e-04       1.125468123750e+03 
       3.313278603720e-04       1.404223053681e+03 
       4.171170630578e-04       1.751108028790e+03 
       5.251192703764e-04       2.181998448133e+03 
       6.610859936996e-04       2.715889983592e+03 
       8.322579568497e-04       3.375152337134e+03 
       1.047750691046e-03       4.185552174307e+03 
       1.319039970183e-03       5.175742737197e+03 
       1.660572937635e-03       6.376123051781e+03 
       2.090537469327e-03       7.815671866035e+03 
       2.631830744443e-03       9.517783069112e+03 
       3.313278603720e-03       1.149357460346e+04 
       4.171170630578e-03       1.373266010043e+04 
       5.251192703764e-03       1.619063614560e+04 
       6.610859936996e-03       1.877460417092e+04 
       8.322579568497e-03       2.132607231769e+04 
       1.047750691046e-02       2.360549267964e+04 
       1.319039970183e-02       2.528218749455e+04 
       1.660572937633e-02       2.595026862911e+04 
       2.090537453514e-02       2.520934411439e+04 
       2.631818545635e-02       2.287033828517e+04 
       3.311571692125e-02       1.928624206887e+04 
       4.113809243311e-02       1.568427395524e+04 
       4.792590854610e-02       1.361063479190e+04 
       5.284436902701e-02       1.259130159613e+04 
       5.689644391095e-02       1.195557109770e+04 
       6.051252627066e-02       1.147547509367e+04 
       6.388413457411e-02       1.105589658970e+04 
       6.711249296401e-02       1.064899803108e+04 
       7.025823437965e-02       1.022930280766e+04 
       7.336115587705e-02       9.784544877757e+03 
       7.644928796912e-02       9.311659991058e+03 
       7.954353299775e-02       8.814544539222e+03 
       8.266024078725e-02       8.302111872426e+03 
       8.581273398637e-02       7.786969897684e+03 
       8.901225918437e-02       7.283184383679e+03 
       9.226860540985e-02       6.805155973068e+03 
       9.559052048996e-02       6.365631046150e+03 
       9.898599946599e-02       5.974405139926e+03 
       1.024624891378e-01       5.637327643850e+03 
       1.060270359164e-01       5.355769646360e+03 
       1.096863943056e-01       5.126237909408e+03 
       1.134471073830e-01       4.940484884693e+03 
       1.173155669539e-01       4.786169099410e+03 
       1.212980586983e-01       4.647935872550e+03 
       1.254007961065e-01       4.509138833855e+03 
       1.296299459934e-01       4.354555838379e+03 
       1.339916477160e-01       4.173215022391e+03 
       1.384920277736e-01       3.961172917188e+03 
       1.431372111762e-01       3.722688217379e+03 
       1.479333307714e-01       3.469549668632e+03 
       1.528865355934e-01       3.218336805582e+03 
       1.580029992204e-01       2.986297582823e+03 
       1.632889290723e-01       2.786966641284e+03 
       1.687505775527e-01       2.626827720425e+03 
       1.743942559171e-01       2.503751864944e+03 
       1.802263517371e-01       2.407346227745e+03 
       1.862533508214e-01       2.322252798383e+03 
       1.924818644494e-01       2.231550260312e+03 
       1.989186627765e-01       2.122191232810e+03 
       2.055707152847e-01       1.992023330929e+03 
       2.124452391818e-01       1.850323776453e+03 
       2.195497567139e-01       1.712184402588e+03 
       2.268921624510e-01       1.590990282693e+03 
       2.344808017550e-01       1.493670274689e+03 
       2.423245618548e-01       1.418308385785e+03 
       2.504329772620e-01       1.354466842725e+03 
       2.588163516754e-01       1.288933897499e+03 
       2.674858990930e-01       1.213936419240e+03 
       2.764539076010e-01       1.130694060781e+03 
       2.857339303080e-01       1.048100489914e+03 
       2.953410092148e-01       9.761843422372e+02 
       3.052919395542e-01       9.178122719412e+02 
       3.156055844677e-01       8.678984396738e+02 
       3.263032530092e-01       8.185269585975e+02 
       3.374091587054e-01       7.651455364814e+02 
       3.489509817175e-01       7.106698468194e+02 
       3.609605657343e-01       6.607874180140e+02 
       3.734747921333e-01       6.180877965170e+02 
       3.865366902904e-01       5.793115281847e+02 
       4.001968667448e-01       5.403929415067e+02 
       4.145153713076e-01       5.011516879740e+02 
       4.295641718077e-01       4.644998495101e+02 
       4.454304922144e-01       4.314084196807e+02 
       4.622214006969e-01       4.001141195751e+02 
       4.800702491654e-01       3.690906014767e+02 
       4.991459272112e-01       3.394765850129e+02 
       5.196665217302e-01       3.119866080806e+02 
       5.419201087032e-01       2.852471189330e+02 
       5.662975451962e-01       2.593304620598e+02 
       5.933463737275e-01       2.345483171956e+02 
       6.238638458458e-01       2.102299674140e+02 
       6.590669257916e-01       1.864336436077e+02 
       7.009246080454e-01       1.627252914496e+02 
       7.528593308799e-01       1.388182090683e+02 
       8.213469537518e-01       1.141882290444e+02 
       9.196980813302e-01       8.835931014216e+01 
       1.075112183810e+00       6.172609441317e+01 
       1.322697471132e+00       3.804295896602e+01 
       1.662328205042e+00       2.209810374294e+01 
       2.092692408506e+00       1.266919658057e+01 
       2.634543445090e+00       7.203395051887e+00 
       3.316693691389e+00       4.065170464191e+00 
       4.175469971226e+00       2.278616025381e+00 
       5.256605252960e+00       1.269357237148e+00 
       6.617673932723e+00       7.031370162036e-01 
       8.331157880872e+00       3.874799819207e-01 
       1.048830636590e+01       2.125110949769e-01 
       1.320399541071e+01       1.160368186094e-01 
       1.662284535976e+01       6.309973903029e-02 
       2.092692243973e+01       3.417953361600e-02 
       2.634543445002e+01       1.844591876070e-02 
       3.316693691389e+01       9.919090684763e-03 
       4.175469971226e+01       5.314618748339e-03 
       5.256605252960e+01       2.836715488438e-03 
       6.617673932723e+01       1.507696189491e-03 
