# Matter power spectrum P(k) at redshift z=99
# for k=1.04775e-05 to 66.1767 h/Mpc,
# number of wavenumbers equal to 130
#    1:k (h/Mpc)              2:P (Mpc/h)^3        
       1.047750691046e-05       7.261927680862e-03 
       1.319039970183e-05       9.069258201849e-03 
       1.660572937635e-05       1.132639106725e-02 
       2.090537469327e-05       1.414527123399e-02 
       2.631830744443e-05       1.766569584058e-02 
       3.313278603720e-05       2.206225515943e-02 
       4.171170630578e-05       2.755297766277e-02 
       5.251192703764e-05       3.441013522948e-02 
       6.610859936996e-05       4.297372172778e-02 
       8.322579568497e-05       5.366826852945e-02 
       1.047750691046e-04       6.702379872775e-02 
       1.319039970183e-04       8.370193441287e-02 
       1.660572937635e-04       1.045283355384e-01 
       2.090537469327e-04       1.305329134104e-01 
       2.631830744443e-04       1.629994506606e-01 
       3.313278603720e-04       2.035264004602e-01 
       4.171170630578e-04       2.541004744243e-01 
       5.251192703764e-04       3.171839528557e-01 
       6.610859936996e-04       3.958147256514e-01 
       8.322579568497e-04       4.937136006268e-01 
       1.047750691046e-03       6.153841636042e-01 
       1.319039970183e-03       7.661720592899e-01 
       1.660572937635e-03       9.522588016469e-01 
       2.090537469327e-03       1.180312991700e+00 
       2.631830744443e-03       1.456802684685e+00 
       3.313278603720e-03       1.786503854042e+00 
       4.171170630578e-03       2.169896191073e+00 
       5.251192703764e-03       2.599430630717e+00 
       6.610859936996e-03       3.055668705390e+00 
       8.322579568497e-03       3.505725598489e+00 
       1.047750691046e-02       3.905490871821e+00 
       1.319039970183e-02       4.200915263085e+00 
       1.660572937633e-02       4.325061380573e+00 
       2.090537453514e-02       4.210201258749e+00 
       2.631818545635e-02       3.825144642542e+00 
       3.311571692125e-02       3.229068131645e+00 
       4.113809243311e-02       2.627733791534e+00 
       4.792590854610e-02       2.280792037699e+00 
       5.284436902701e-02       2.110090307269e+00 
       5.689644391095e-02       2.003541378546e+00 
       6.051252627066e-02       1.923058060042e+00 
       6.388413457411e-02       1.852733620717e+00 
       6.711249296401e-02       1.784567582760e+00 
       7.025823437965e-02       1.714279778276e+00 
       7.336115587705e-02       1.639813836174e+00 
       7.644928796912e-02       1.560659585945e+00 
       7.954353299775e-02       1.477459173961e+00 
       8.266024078725e-02       1.391696483852e+00 
       8.581273398637e-02       1.305461316138e+00 
       8.901225918437e-02       1.221125000500e+00 
       9.226860540985e-02       1.141078028765e+00 
       9.559052048996e-02       1.067453556916e+00 
       9.898599946599e-02       1.001888761629e+00 
       1.024624891378e-01       9.453827384914e-01 
       1.060270359164e-01       8.981502020499e-01 
       1.096863943056e-01       8.596122820748e-01 
       1.134471073830e-01       8.284042494687e-01 
       1.173155669539e-01       8.024661817803e-01 
       1.212980586983e-01       7.792289256993e-01 
       1.254007961065e-01       7.559185442566e-01 
       1.296299459934e-01       7.299821355796e-01 
       1.339916477160e-01       6.995926317010e-01 
       1.384920277736e-01       6.640789975998e-01 
       1.431372111762e-01       6.241462265130e-01 
       1.479333307714e-01       5.817637425841e-01 
       1.528865355934e-01       5.396940096902e-01 
       1.580029992204e-01       5.008150319350e-01 
       1.632889290723e-01       4.673984832377e-01 
       1.687505775527e-01       4.405343205268e-01 
       1.743942559171e-01       4.198646287805e-01 
       1.802263517371e-01       4.036604292350e-01 
       1.862533508214e-01       3.893594952479e-01 
       1.924818644494e-01       3.741349697691e-01 
       1.989186627765e-01       3.558016705866e-01 
       2.055707152847e-01       3.339999660128e-01 
       2.124452391818e-01       3.102662423615e-01 
       2.195497567139e-01       2.871231113630e-01 
       2.268921624510e-01       2.668082330123e-01 
       2.344808017550e-01       2.504832423904e-01 
       2.423245618548e-01       2.378334674860e-01 
       2.504329772620e-01       2.271118276526e-01 
       2.588163516754e-01       2.161187450883e-01 
       2.674858990930e-01       2.035462038485e-01 
       2.764539076010e-01       1.895980484722e-01 
       2.857339303080e-01       1.757567392391e-01 
       2.953410092148e-01       1.636992385730e-01 
       3.052919395542e-01       1.539063389645e-01 
       3.156055844677e-01       1.455309902531e-01 
       3.263032530092e-01       1.372503398762e-01 
       3.374091587054e-01       1.283020776901e-01 
       3.489509817175e-01       1.191710224955e-01 
       3.609605657343e-01       1.108073154130e-01 
       3.734747921333e-01       1.036450191257e-01 
       3.865366902904e-01       9.714157728311e-02 
       4.001968667448e-01       9.061563442448e-02 
       4.145153713076e-01       8.403693262068e-02 
       4.295641718077e-01       7.789124523982e-02 
       4.454304922144e-01       7.234167311165e-02 
       4.622214006969e-01       6.709369166857e-02 
       4.800702491654e-01       6.189175036869e-02 
       4.991459272112e-01       5.692626863249e-02 
       5.196665217302e-01       5.231600289864e-02 
       5.419201087032e-01       4.783253057782e-02 
       5.662975451962e-01       4.348684690538e-02 
       5.933463737275e-01       3.933107278892e-02 
       6.238638458458e-01       3.525336051498e-02 
       6.590669257916e-01       3.126296579260e-02 
       7.009246080454e-01       2.728731404063e-02 
       7.528593308799e-01       2.327839642591e-02 
       8.213469537518e-01       1.914826191254e-02 
       9.196980813302e-01       1.481702512809e-02 
       1.075112183810e+00       1.035093543697e-02 
       1.322697471132e+00       6.379444440642e-03 
       1.662328205042e+00       3.705677174403e-03 
       2.092692408506e+00       2.124531044733e-03 
       2.634543445090e+00       1.207957453343e-03 
       3.316693691389e+00       6.816984737964e-04 
       4.175469971226e+00       3.821113932637e-04 
       5.256605252960e+00       2.128639438978e-04 
       6.617673932723e+00       1.179109612471e-04 
       8.331157880872e+00       6.497460486526e-05 
       1.048830636590e+01       3.563152399381e-05 
       1.320399541071e+01       1.945112253311e-05 
       1.662284535976e+01       1.057071931371e-05 
       2.092692243973e+01       5.717613183303e-06 
       2.634543445002e+01       3.075105231639e-06 
       3.316693691389e+01       1.640408309686e-06 
       4.175469971226e+01       8.627977724308e-07 
       5.256605252960e+01       4.414796820983e-07 
       6.617673932723e+01       2.132811724367e-07 
