# Matter power spectrum P(k) at redshift z=0
# for k=1.04775e-05 to 66.1767 h/Mpc,
# number of wavenumbers equal to 130
#    1:k (h/Mpc)              2:P (Mpc/h)^3        
       1.047750691046e-05       5.020964811312e+01 
       1.319039970183e-05       6.270562594781e+01 
       1.660572937635e-05       7.831147247911e+01 
       2.090537469327e-05       9.780108069295e+01 
       2.631830744443e-05       1.221408203809e+02 
       3.313278603720e-05       1.525374501932e+02 
       4.171170630578e-05       1.904975994010e+02 
       5.251192703764e-05       2.379022224249e+02 
       6.610859936996e-05       2.970989227881e+02 
       8.322579568497e-05       3.710167318945e+02 
       1.047750691046e-04       4.633080766742e+02 
       1.319039970183e-04       5.785234129338e+02 
       1.660572937635e-04       7.223242666092e+02 
       2.090537469327e-04       9.017396271824e+02 
       2.631830744443e-04       1.125468123750e+03 
       3.313278603720e-04       1.404223053681e+03 
       4.171170630578e-04       1.751108028790e+03 
       5.251192703764e-04       2.181998448133e+03 
       6.610859936996e-04       2.715889983592e+03 
       8.322579568497e-04       3.375152337134e+03 
       1.047750691046e-03       4.185552174306e+03 
       1.319039970183e-03       5.175742744072e+03 
       1.660572937635e-03       6.376123051778e+03 
       2.090537469327e-03       7.815671865785e+03 
       2.631830744443e-03       9.517783069112e+03 
       3.313278603720e-03       1.149357460339e+04 
       4.171170630578e-03       1.373266012826e+04 
       5.251192703764e-03       1.619063614559e+04 
       6.610859936996e-03       1.877460425748e+04 
       8.322579568497e-03       2.132607231927e+04 
       1.047750691046e-02       2.360548314083e+04 
       1.319039970183e-02       2.528218624965e+04 
       1.660572937633e-02       2.595027806970e+04 
       2.090537453514e-02       2.520933717683e+04 
       2.631818545635e-02       2.287034564208e+04 
       3.311571692125e-02       1.928631818976e+04 
       4.113809243311e-02       1.568427012434e+04 
       4.792590854610e-02       1.361063185311e+04 
       5.284436902701e-02       1.259128317052e+04 
       5.689644391095e-02       1.195557661813e+04 
       6.051252627066e-02       1.147546791342e+04 
       6.388413457411e-02       1.105589092034e+04 
       6.711249296401e-02       1.064898460322e+04 
       7.025823437965e-02       1.022929812788e+04 
       7.336115587705e-02       9.784532070151e+03 
       7.644928796912e-02       9.311655945927e+03 
       7.954353299775e-02       8.814537371890e+03 
       8.266024078725e-02       8.302106693193e+03 
       8.581273398637e-02       7.786956739516e+03 
       8.901225918437e-02       7.283178061675e+03 
       9.226860540985e-02       6.805168105781e+03 
       9.559052048996e-02       6.365632913282e+03 
       9.898599946599e-02       5.974389432103e+03 
       1.024624891378e-01       5.637315229229e+03 
       1.060270359164e-01       5.355761470811e+03 
       1.096863943056e-01       5.126242588612e+03 
       1.134471073830e-01       4.940474036112e+03 
       1.173155669539e-01       4.786169825493e+03 
       1.212980586983e-01       4.647935986287e+03 
       1.254007961065e-01       4.509151732827e+03 
       1.296299459934e-01       4.354563868550e+03 
       1.339916477160e-01       4.173220074893e+03 
       1.384920277736e-01       3.961160273341e+03 
       1.431372111762e-01       3.722682327084e+03 
       1.479333307714e-01       3.469544874604e+03 
       1.528865355934e-01       3.218341296478e+03 
       1.580029992204e-01       2.986293344527e+03 
       1.632889290723e-01       2.786966334340e+03 
       1.687505775527e-01       2.626830418186e+03 
       1.743942559171e-01       2.503757969559e+03 
       1.802263517371e-01       2.407343278211e+03 
       1.862533508214e-01       2.322254862050e+03 
       1.924818644494e-01       2.231552483960e+03 
       1.989186627765e-01       2.122191817126e+03 
       2.055707152847e-01       1.992024986233e+03 
       2.124452391818e-01       1.850331148065e+03 
       2.195497567139e-01       1.712182954624e+03 
       2.268921624510e-01       1.590992697757e+03 
       2.344808017550e-01       1.493665547409e+03 
       2.423245618548e-01       1.418312465085e+03 
       2.504329772620e-01       1.354465013558e+03 
       2.588163516754e-01       1.288930920540e+03 
       2.674858990930e-01       1.213935784903e+03 
       2.764539076010e-01       1.130691032901e+03 
       2.857339303080e-01       1.048100664534e+03 
       2.953410092148e-01       9.761783748309e+02 
       3.052919395542e-01       9.178095887354e+02 
       3.156055844677e-01       8.678997773989e+02 
       3.263032530092e-01       8.185273595076e+02 
       3.374091587054e-01       7.651462167235e+02 
       3.489509817175e-01       7.106704035993e+02 
       3.609605657343e-01       6.607860264308e+02 
       3.734747921333e-01       6.180877173939e+02 
       3.865366902904e-01       5.793104203105e+02 
       4.001968667448e-01       5.403902231216e+02 
       4.145153713076e-01       5.011528158479e+02 
       4.295641718077e-01       4.644988460117e+02 
       4.454304922144e-01       4.314104006205e+02 
       4.622214006969e-01       4.001143906101e+02 
       4.800702491654e-01       3.690894064842e+02 
       4.991459272112e-01       3.394769035752e+02 
       5.196665217302e-01       3.119860536983e+02 
       5.419201087032e-01       2.852464833226e+02 
       5.662975451962e-01       2.593312235097e+02 
       5.933463737275e-01       2.345482164269e+02 
       6.238638458458e-01       2.102306184714e+02 
       6.590669257916e-01       1.864336561960e+02 
       7.009246080454e-01       1.627248628552e+02 
       7.528593308799e-01       1.388181393092e+02 
       8.213469537518e-01       1.141879031169e+02 
       9.196980813302e-01       8.835960630285e+01 
       1.075112183810e+00       6.172620144986e+01 
       1.322697471132e+00       3.804279212945e+01 
       1.662328205042e+00       2.209797578301e+01 
       2.092692408506e+00       1.266925613118e+01 
       2.634543445090e+00       7.203340231332e+00 
       3.316693691389e+00       4.065175357104e+00 
       4.175469971226e+00       2.278612601437e+00 
       5.256605252960e+00       1.269357752575e+00 
       6.617673932723e+00       7.031401576545e-01 
       8.331157880872e+00       3.874822836904e-01 
       1.048830636590e+01       2.125113279062e-01 
       1.320399541071e+01       1.160375487474e-01 
       1.662284535976e+01       6.309864612343e-02 
       2.092692243973e+01       3.417955087114e-02 
       2.634543445002e+01       1.844606688020e-02 
       3.316693691389e+01       9.919201834742e-03 
       4.175469971226e+01       5.314626688653e-03 
       5.256605252960e+01       2.836701134183e-03 
       6.617673932723e+01       1.507706400654e-03 
