# Matter power spectrum P(k) at redshift z=0
# for k=1.04775e-05 to 67.6233 h/Mpc,
# number of wavenumbers equal to 246
#    1:k (h/Mpc)              2:P (Mpc/h)^3        
       1.047750691046e-05       5.020964811313e+01 
       1.131335172503e-05       5.407050701925e+01 
       1.221587619537e-05       5.822819068796e+01 
       1.319039970183e-05       6.270562594773e+01 
       1.424266597921e-05       6.752732240880e+01 
       1.537887696968e-05       7.271977206173e+01 
       1.660572937635e-05       7.831147247912e+01 
       1.793045413292e-05       8.433311821988e+01 
       1.936085902198e-05       9.081778249833e+01 
       2.090537469327e-05       9.780108069295e+01 
       2.257310435294e-05       1.053213197893e+02 
       2.437387741694e-05       1.134197377890e+02 
       2.631830744443e-05       1.221408203809e+02 
       2.841785469300e-05       1.315324642470e+02 
       3.068489366414e-05       1.416462094881e+02 
       3.313278603720e-05       1.525374501932e+02 
       3.577595942169e-05       1.642660688414e+02 
       3.862999239199e-05       1.768963506307e+02 
       4.171170630578e-05       1.904975994010e+02 
       4.503926444729e-05       2.051444491974e+02 
       4.863227907969e-05       2.209171465549e+02 
       5.251192703764e-05       2.379022224248e+02 
       5.670107454120e-05       2.561927927833e+02 
       6.122441196689e-05       2.758890444040e+02 
       6.610859936996e-05       2.970989227881e+02 
       7.138242361596e-05       3.199385560802e+02 
       7.707696804727e-05       3.445329783679e+02 
       8.322579568497e-05       3.710167318945e+02 
       8.986514704559e-05       3.995346444203e+02 
       9.703415373875e-05       4.302425407382e+02 
       1.047750691046e-04       4.633080766741e+02 
       1.131335172503e-04       4.989116271564e+02 
       1.221587619537e-04       5.372471950928e+02 
       1.319039970183e-04       5.785234129336e+02 
       1.424266597921e-04       6.229645936044e+02 
       1.537887696968e-04       6.708118490403e+02 
       1.660572937635e-04       7.223242666089e+02 
       1.793045413292e-04       7.777801558978e+02 
       1.936085902198e-04       8.374783614136e+02 
       2.090537469327e-04       9.017396271818e+02 
       2.257310435294e-04       9.709080268034e+02 
       2.437387741694e-04       1.045352449492e+03 
       2.631830744443e-04       1.125468123749e+03 
       2.841785469300e-04       1.211678180493e+03 
       3.068489366414e-04       1.304435250148e+03 
       3.313278603720e-04       1.404223053679e+03 
       3.577595942169e-04       1.511558014613e+03 
       3.862999239199e-04       1.626990837797e+03 
       4.171170630578e-04       1.751108028785e+03 
       4.503926444729e-04       1.884533382866e+03 
       4.863227907969e-04       2.027929378105e+03 
       5.251192703764e-04       2.181998448124e+03 
       5.670107454121e-04       2.347484102743e+03 
       6.122441196689e-04       2.525171871352e+03 
       6.610859936996e-04       2.715889983574e+03 
       7.138242361596e-04       2.920509688362e+03 
       7.707696804727e-04       3.139945100251e+03 
       8.322579568497e-04       3.375152337550e+03 
       8.986514704559e-04       3.627127831095e+03 
       9.703415373875e-04       3.896905453079e+03 
       1.047750691046e-03       4.185552174221e+03 
       1.131335172503e-03       4.494162430284e+03 
       1.221587619537e-03       4.823850706387e+03 
       1.319039970183e-03       5.175742743916e+03 
       1.424266597921e-03       5.551019596722e+03 
       1.537887696968e-03       5.950788340329e+03 
       1.660572937635e-03       6.376123051438e+03 
       1.793045413292e-03       6.828073901076e+03 
       1.936085902198e-03       7.307625380570e+03 
       2.090537469327e-03       7.815671865522e+03 
       2.257310435294e-03       8.352990375001e+03 
       2.437387741694e-03       8.920211063315e+03 
       2.631830744443e-03       9.517783067795e+03 
       2.841785469300e-03       1.014593704268e+04 
       3.068489366414e-03       1.080464502573e+04 
       3.313278603720e-03       1.149357460076e+04 
       3.577595942169e-03       1.221203621383e+04 
       3.862999239199e-03       1.295892539020e+04 
       4.171170630578e-03       1.373266007997e+04 
       4.503926444729e-03       1.453111834952e+04 
       4.863227907969e-03       1.535154961169e+04 
       5.251192703764e-03       1.619063469749e+04 
       5.670107454120e-03       1.704431247625e+04 
       6.122441196689e-03       1.790756019523e+04 
       6.610859936996e-03       1.877460454519e+04 
       7.138242361596e-03       1.963872650792e+04 
       7.707696804727e-03       2.049215663295e+04 
       8.322579568496e-03       2.132611267491e+04 
       8.986514704559e-03       2.213056128101e+04 
       9.703415373875e-03       2.289442285409e+04 
       1.047750691046e-02       2.360548455633e+04 
       1.131335172503e-02       2.425024221283e+04 
       1.221587619537e-02       2.481422185515e+04 
       1.319039970183e-02       2.528218234876e+04 
       1.424266597920e-02       2.563814326418e+04 
       1.537887696964e-02       2.586610991213e+04 
       1.660572937560e-02       2.595034860682e+04 
       1.793045412207e-02       2.587629408715e+04 
       1.936085889642e-02       2.563212219933e+04 
       2.090537351881e-02       2.520927550667e+04 
       2.257309534705e-02       2.460437291638e+04 
       2.437382002240e-02       2.382085331562e+04 
       2.631799943729e-02       2.287023965308e+04 
       2.841644544598e-02       2.177440573995e+04 
       3.067933354524e-02       2.056546729499e+04 
       3.311368469821e-02       1.928714125105e+04 
       3.571840442514e-02       1.799384775704e+04 
       3.847720347390e-02       1.674678520696e+04 
       4.135335537314e-02       1.560452164791e+04 
       4.429361666563e-02       1.461030226222e+04 
       4.724366437916e-02       1.378048263140e+04 
       5.016480834039e-02       1.310496885551e+04 
       5.303989618930e-02       1.255713786814e+04 
       5.586870668205e-02       1.210424443109e+04 
       5.866042679206e-02       1.171465686562e+04 
       6.142798931504e-02       1.136014160130e+04 
       6.418496438662e-02       1.101859825302e+04 
       6.694418832236e-02       1.067065502549e+04 
       6.971731104453e-02       1.030363477512e+04 
       7.251476154108e-02       9.909063955510e+03 
       7.534587669814e-02       9.483631414074e+03 
       7.821907664495e-02       9.029318337898e+03 
       8.114203771084e-02       8.552135497750e+03 
       8.412184533139e-02       8.061893100337e+03 
       8.716512277352e-02       7.570755531741e+03 
       9.027813693913e-02       7.092493106915e+03 
       9.346688429613e-02       6.640529078866e+03 
       9.673716026122e-02       6.226718463328e+03 
       1.000946150608e-01       5.859930835812e+03 
       1.035447986307e-01       5.545245570678e+03 
       1.070931966524e-01       5.283147838679e+03 
       1.107452594180e-01       5.069441668938e+03 
       1.145064248899e-01       4.895260455244e+03 
       1.183821370656e-01       4.747846239616e+03 
       1.223778605591e-01       4.611707464601e+03 
       1.264990921707e-01       4.470609093378e+03 
       1.307513701078e-01       4.310279104770e+03 
       1.351402814485e-01       4.121397303403e+03 
       1.396714683894e-01       3.902052034294e+03 
       1.443506337875e-01       3.658650453934e+03 
       1.491835464900e-01       3.404462593762e+03 
       1.541760469368e-01       3.156638689206e+03 
       1.593340535209e-01       2.931929761357e+03 
       1.646635701934e-01       2.742355259913e+03 
       1.701706958081e-01       2.592226231769e+03 
       1.758616357070e-01       2.477205162370e+03 
       1.817427160581e-01       2.385157768333e+03 
       1.878204014651e-01       2.300335418037e+03 
       1.941013163855e-01       2.205769024604e+03 
       2.005922709060e-01       2.090829099449e+03 
       2.073002914514e-01       1.956455139698e+03 
       2.142326570343e-01       1.814169552778e+03 
       2.213969417044e-01       1.679267302421e+03 
       2.288010639201e-01       1.563834642440e+03 
       2.364533436625e-01       1.472659184024e+03 
       2.443625682390e-01       1.401503811691e+03 
       2.525380678946e-01       1.338409793209e+03 
       2.609898025770e-01       1.270888567694e+03 
       2.697284614969e-01       1.193347255763e+03 
       2.787655775073e-01       1.109316947262e+03 
       2.881136588192e-01       1.028752986315e+03 
       2.977863412019e-01       9.604646582491e+02 
       3.077985646248e-01       9.050046805430e+02 
       3.181667793367e-01       8.561235807373e+02 
       3.289091877084e-01       8.061687946294e+02 
       3.400460298905e-01       7.523685710093e+02 
       3.515999235695e-01       6.989011081830e+02 
       3.635962710278e-01       6.510473960933e+02 
       3.760637505499e-01       6.101064917748e+02 
       3.890349143014e-01       5.721146005962e+02 
       4.025469215929e-01       5.337612968234e+02 
       4.166424455447e-01       4.956099562441e+02 
       4.313708034899e-01       4.604508817435e+02 
       4.467893781976e-01       4.287554196360e+02 
       4.629654198623e-01       3.987544414130e+02 
       4.799783500912e-01       3.692209128659e+02 
       4.979227318246e-01       3.412215196727e+02 
       5.169121269689e-01       3.154625780016e+02 
       5.370841403262e-01       2.908146733954e+02 
       5.586070463286e-01       2.670858529455e+02 
       5.816885093582e-01       2.447887199789e+02 
       6.065870143577e-01       2.235492687011e+02 
       6.336266466978e-01       2.031923055916e+02 
       6.632156057925e-01       1.838608678333e+02 
       6.958678637575e-01       1.653365853736e+02 
       7.322247983784e-01       1.476772335452e+02 
       7.730680193171e-01       1.308152223982e+02 
       8.193049551574e-01       1.148125607642e+02 
       8.718988013754e-01       9.974350780042e+01 
       9.317218028590e-01       8.575843011193e+01 
       9.993660906273e-01       7.303502420441e+01 
       1.075037109879e+00       6.171587261219e+01 
       1.158653485387e+00       5.185872622788e+01 
       1.250099156961e+00       4.341936497722e+01 
       1.349432400897e+00       3.626833854968e+01 
       1.456947456991e+00       3.024674421997e+01 
       1.573135110893e+00       2.519297914896e+01 
       1.698621895119e+00       2.096007339810e+01 
       1.834127512423e+00       1.742008117544e+01 
       1.980444933977e+00       1.446298708148e+01 
       2.138435191130e+00       1.199586797064e+01 
       2.309029198543e+00       9.939735785364e+00 
       2.493232376993e+00       8.227907122027e+00 
       2.692130394536e+00       6.804234351749e+00 
       2.906895533764e+00       5.621374536189e+00 
       3.138793596840e+00       4.639533780332e+00 
       3.389191365541e+00       3.825161970471e+00 
       3.659564656886e+00       3.150370837007e+00 
       3.951507021438e+00       2.591658444801e+00 
       4.266739135513e+00       2.129385996197e+00 
       4.607118942658e+00       1.747188876342e+00 
       4.974652604172e+00       1.431423055028e+00 
       5.371506323193e+00       1.170683320636e+00 
       5.800019112071e+00       9.554926555740e-01 
       6.262716578240e+00       7.779855931032e-01 
       6.762325809881e+00       6.316294781598e-01 
       7.301791449077e+00       5.110010861932e-01 
       7.884293047211e+00       4.116234384104e-01 
       8.513263804891e+00       3.297864013821e-01 
       9.192410806865e+00       2.624363752687e-01 
       9.925736871166e+00       2.070694807719e-01 
       1.071756414128e+01       1.616180210571e-01 
       1.157255956041e+01       1.244066379196e-01 
       1.249576237789e+01       9.406560826711e-02 
       1.349261385000e+01       6.948739752669e-02 
       1.456898931011e+01       4.978032358110e-02 
       1.573123279727e+01       3.422207986155e-02 
       1.698619444729e+01       2.222576140901e-02 
       1.834127086665e+01       1.330152391212e-02 
       1.980444872733e+01       7.021119013083e-03 
       2.138435183937e+01       2.984463609903e-03 
       2.309029197863e+01       7.918153031516e-04 
       2.493232376942e+01       2.226134360819e-05 
       2.692130394533e+01       2.293248080940e-04 
       2.906895533764e+01       9.558981110344e-04 
       3.138793596840e+01       1.773241804445e-03 
       3.389191365541e+01       2.338577639088e-03 
       3.659564656886e+01       2.456454691710e-03 
       3.951507021438e+01       2.116411652679e-03 
       4.266739135513e+01       1.478499721799e-03 
       4.607118942658e+01       7.946869107022e-04 
       4.974652604172e+01       2.869582285506e-04 
       5.371506323193e+01       4.371169710681e-05 
       5.800019112071e+01       1.170006440980e-06 
       6.262716578240e+01       2.594312397362e-05 
       6.762325809881e+01       2.944195152616e-05 
