# Matter power spectrum P(k) at redshift z=0
# for k=1.04775e-05 to 66.1767 h/Mpc,
# number of wavenumbers equal to 130
#    1:k (h/Mpc)              2:P (Mpc/h)^3        
       1.047750691046e-05       5.020964811307e+01 
       1.319039970183e-05       6.270562594769e+01 
       1.660572937635e-05       7.831147247912e+01 
       2.090537469327e-05       9.780108069292e+01 
       2.631830744443e-05       1.221408203809e+02 
       3.313278603720e-05       1.525374501932e+02 
       4.171170630578e-05       1.904975994010e+02 
       5.251192703764e-05       2.379022224249e+02 
       6.610859936996e-05       2.970989227881e+02 
       8.322579568497e-05       3.710167318946e+02 
       1.047750691046e-04       4.633080766742e+02 
       1.319039970183e-04       5.785234129336e+02 
       1.660572937635e-04       7.223242666092e+02 
       2.090537469327e-04       9.017396271824e+02 
       2.631830744443e-04       1.125468123750e+03 
       3.313278603720e-04       1.404223053681e+03 
       4.171170630578e-04       1.751108028790e+03 
       5.251192703764e-04       2.181998448133e+03 
       6.610859936996e-04       2.715889983591e+03 
       8.322579568497e-04       3.375152337133e+03 
       1.047750691046e-03       4.185552174302e+03 
       1.319039970183e-03       5.175742736652e+03 
       1.660572937635e-03       6.376123051774e+03 
       2.090537469327e-03       7.815671868414e+03 
       2.631830744443e-03       9.517783069108e+03 
       3.313278603720e-03       1.149357460345e+04 
       4.171170630578e-03       1.373266012805e+04 
       5.251192703764e-03       1.619063614121e+04 
       6.610859936996e-03       1.877460425375e+04 
       8.322579568497e-03       2.132606801856e+04 
       1.047750691046e-02       2.360548426919e+04 
       1.319039970183e-02       2.528218807590e+04 
       1.660572937633e-02       2.595027297005e+04 
       2.090537453514e-02       2.520933740074e+04 
       2.631818545635e-02       2.287037082945e+04 
       3.311571692125e-02       1.928628476757e+04 
       4.113809243311e-02       1.568429946904e+04 
       4.792590854610e-02       1.361066894693e+04 
       5.284436902701e-02       1.259129083590e+04 
       5.689644391095e-02       1.195560329575e+04 
       6.051252627066e-02       1.147543182827e+04 
       6.388413457411e-02       1.105594838051e+04 
       6.711249296401e-02       1.064904766703e+04 
       7.025823437965e-02       1.022935011117e+04 
       7.336115587705e-02       9.784592849945e+03 
       7.644928796912e-02       9.311664336916e+03 
       7.954353299775e-02       8.814581094152e+03 
       8.266024078725e-02       8.302210896360e+03 
       8.581273398637e-02       7.786961504175e+03 
       8.901225918437e-02       7.283253837005e+03 
       9.226860540985e-02       6.805213622788e+03 
       9.559052048996e-02       6.365663017709e+03 
       9.898599946599e-02       5.974416838916e+03 
       1.024624891378e-01       5.637382033611e+03 
       1.060270359164e-01       5.355805953693e+03 
       1.096863943056e-01       5.126268954752e+03 
       1.134471073830e-01       4.940506176595e+03 
       1.173155669539e-01       4.786180456772e+03 
       1.212980586983e-01       4.647955317943e+03 
       1.254007961065e-01       4.509167877516e+03 
       1.296299459934e-01       4.354560136605e+03 
       1.339916477160e-01       4.173226667536e+03 
       1.384920277736e-01       3.961182689090e+03 
       1.431372111762e-01       3.722695734898e+03 
       1.479333307714e-01       3.469556255002e+03 
       1.528865355934e-01       3.218347697361e+03 
       1.580029992204e-01       2.986262617108e+03 
       1.632889290723e-01       2.786959245910e+03 
       1.687505775527e-01       2.626820888428e+03 
       1.743942559171e-01       2.503774663180e+03 
       1.802263517371e-01       2.407314776760e+03 
       1.862533508214e-01       2.322235470395e+03 
       1.924818644494e-01       2.231520469938e+03 
       1.989186627765e-01       2.122172107139e+03 
       2.055707152847e-01       1.992018290860e+03 
       2.124452391818e-01       1.850320816344e+03 
       2.195497567139e-01       1.712158382986e+03 
       2.268921624510e-01       1.590974454486e+03 
       2.344808017550e-01       1.493664392122e+03 
       2.423245618548e-01       1.418312538181e+03 
       2.504329772620e-01       1.354458108015e+03 
       2.588163516754e-01       1.288942807239e+03 
       2.674858990930e-01       1.213931278217e+03 
       2.764539076010e-01       1.130690419244e+03 
       2.857339303080e-01       1.048091657991e+03 
       2.953410092148e-01       9.761696877743e+02 
       3.052919395542e-01       9.178040657627e+02 
       3.156055844677e-01       8.678864515789e+02 
       3.263032530092e-01       8.185075557632e+02 
       3.374091587054e-01       7.651358070130e+02 
       3.489509817175e-01       7.106643578859e+02 
       3.609605657343e-01       6.607780237704e+02 
       3.734747921333e-01       6.180785301069e+02 
       3.865366902904e-01       5.793020335449e+02 
       4.001968667448e-01       5.403828867735e+02 
       4.145153713076e-01       5.011482484133e+02 
       4.295641718077e-01       4.644960007034e+02 
       4.454304922144e-01       4.314005161513e+02 
       4.622214006969e-01       4.001101998821e+02 
       4.800702491654e-01       3.690837020686e+02 
       4.991459272112e-01       3.394705515161e+02 
       5.196665217302e-01       3.119797740073e+02 
       5.419201087032e-01       2.852424359217e+02 
       5.662975451962e-01       2.593263265627e+02 
       5.933463737275e-01       2.345444768564e+02 
       6.238638458458e-01       2.102291469902e+02 
       6.590669257916e-01       1.864321444702e+02 
       7.009246080454e-01       1.627236175800e+02 
       7.528593308799e-01       1.388172795190e+02 
       8.213469537518e-01       1.141882277326e+02 
       9.196980813302e-01       8.835871192019e+01 
       1.075112183810e+00       6.172569434228e+01 
       1.322697471132e+00       3.804288189645e+01 
       1.662328205042e+00       2.209780886952e+01 
       2.092692408506e+00       1.266897868535e+01 
       2.634543445090e+00       7.203161541875e+00 
       3.316693691389e+00       4.065068294577e+00 
       4.175469971226e+00       2.278551012486e+00 
       5.256605252960e+00       1.269292871262e+00 
       6.617673932723e+00       7.030808990635e-01 
       8.331157880872e+00       3.874331933427e-01 
       1.048830636590e+01       2.124683286708e-01 
       1.320399541071e+01       1.159988785099e-01 
       1.662284535976e+01       6.306446652327e-02 
       2.092692243973e+01       3.414770313823e-02 
       2.634543445002e+01       1.841720881825e-02 
       3.316693691389e+01       9.893049245594e-03 
       4.175469971226e+01       5.291031147980e-03 
       5.256605252960e+01       2.815514819115e-03 
       6.617673932723e+01       1.488807956770e-03 
