# Matter power spectrum P(k) at redshift z=0
# for k=1.04775e-05 to 66.1767 h/Mpc,
# number of wavenumbers equal to 130
#    1:k (h/Mpc)              2:P (Mpc/h)^3        
       1.047750691046e-05       5.020964811313e+01 
       1.319039970183e-05       6.270562594780e+01 
       1.660572937635e-05       7.831147247912e+01 
       2.090537469327e-05       9.780108069294e+01 
       2.631830744443e-05       1.221408203809e+02 
       3.313278603720e-05       1.525374501932e+02 
       4.171170630578e-05       1.904975994010e+02 
       5.251192703764e-05       2.379022224247e+02 
       6.610859936996e-05       2.970989227882e+02 
       8.322579568497e-05       3.710167318944e+02 
       1.047750691046e-04       4.633080766739e+02 
       1.319039970183e-04       5.785234129325e+02 
       1.660572937635e-04       7.223242666079e+02 
       2.090537469327e-04       9.017396271799e+02 
       2.631830744443e-04       1.125468123745e+03 
       3.313278603720e-04       1.404223053671e+03 
       4.171170630578e-04       1.751108028770e+03 
       5.251192703764e-04       2.181998448094e+03 
       6.610859936996e-04       2.715889983515e+03 
       8.322579568497e-04       3.375152336981e+03 
       1.047750691046e-03       4.185552174010e+03 
       1.319039970183e-03       5.175742741111e+03 
       1.660572937635e-03       6.376123050481e+03 
       2.090537469327e-03       7.815671869064e+03 
       2.631830744443e-03       9.517783063506e+03 
       3.313278603720e-03       1.149357459199e+04 
       4.171170630578e-03       1.373266006579e+04 
       5.251192703764e-03       1.619062961938e+04 
       6.610859936996e-03       1.877460558438e+04 
       8.322579568497e-03       2.132610822137e+04 
       1.047750691046e-02       2.360546392259e+04 
       1.319039970183e-02       2.528217116145e+04 
       1.660572937633e-02       2.594999352179e+04 
       2.090537453514e-02       2.520928684702e+04 
       2.631818545635e-02       2.287010412681e+04 
       3.311571692125e-02       1.928610701260e+04 
       4.113809243311e-02       1.568412222187e+04 
       4.792590854610e-02       1.361052716692e+04 
       5.284436902701e-02       1.259124158465e+04 
       5.689644391095e-02       1.195549571898e+04 
       6.051252627066e-02       1.147544268780e+04 
       6.388413457411e-02       1.105559459235e+04 
       6.711249296401e-02       1.064881129364e+04 
       7.025823437965e-02       1.022924239187e+04 
       7.336115587705e-02       9.784564829244e+03 
       7.644928796912e-02       9.311698123882e+03 
       7.954353299775e-02       8.814473206895e+03 
       8.266024078725e-02       8.301883782780e+03 
       8.581273398637e-02       7.786903489493e+03 
       8.901225918437e-02       7.283156630435e+03 
       9.226860540985e-02       6.805153142946e+03 
       9.559052048996e-02       6.365601596233e+03 
       9.898599946599e-02       5.974371829017e+03 
       1.024624891378e-01       5.637311733598e+03 
       1.060270359164e-01       5.355758648735e+03 
       1.096863943056e-01       5.126207283090e+03 
       1.134471073830e-01       4.940446626007e+03 
       1.173155669539e-01       4.786099176389e+03 
       1.212980586983e-01       4.647893415070e+03 
       1.254007961065e-01       4.509007549718e+03 
       1.296299459934e-01       4.354518204997e+03 
       1.339916477160e-01       4.173096574418e+03 
       1.384920277736e-01       3.961128698336e+03 
       1.431372111762e-01       3.722541046629e+03 
       1.479333307714e-01       3.469499466680e+03 
       1.528865355934e-01       3.218264196766e+03 
       1.580029992204e-01       2.986196950566e+03 
       1.632889290723e-01       2.786891752016e+03 
       1.687505775527e-01       2.626754825055e+03 
       1.743942559171e-01       2.503696170444e+03 
       1.802263517371e-01       2.407240665630e+03 
       1.862533508214e-01       2.322193402254e+03 
       1.924818644494e-01       2.231498654269e+03 
       1.989186627765e-01       2.122137146324e+03 
       2.055707152847e-01       1.991965692602e+03 
       2.124452391818e-01       1.850225341579e+03 
       2.195497567139e-01       1.712075995860e+03 
       2.268921624510e-01       1.590883716153e+03 
       2.344808017550e-01       1.493568571571e+03 
       2.423245618548e-01       1.418207845726e+03 
       2.504329772620e-01       1.354349696318e+03 
       2.588163516754e-01       1.288827812213e+03 
       2.674858990930e-01       1.213796094918e+03 
       2.764539076010e-01       1.130568738709e+03 
       2.857339303080e-01       1.047969138014e+03 
       2.953410092148e-01       9.760540076098e+02 
       3.052919395542e-01       9.176802589835e+02 
       3.156055844677e-01       8.677550577883e+02 
       3.263032530092e-01       8.183889738071e+02 
       3.374091587054e-01       7.649988928907e+02 
       3.489509817175e-01       7.105134242856e+02 
       3.609605657343e-01       6.606246087063e+02 
       3.734747921333e-01       6.179217239972e+02 
       3.865366902904e-01       5.791353102598e+02 
       4.001968667448e-01       5.402121125925e+02 
       4.145153713076e-01       5.009651898629e+02 
       4.295641718077e-01       4.643108636403e+02 
       4.454304922144e-01       4.312078842945e+02 
       4.622214006969e-01       3.999060898935e+02 
       4.800702491654e-01       3.688724945598e+02 
       4.991459272112e-01       3.392500414951e+02 
       5.196665217302e-01       3.117486552713e+02 
       5.419201087032e-01       2.849991586484e+02 
       5.662975451962e-01       2.590716301662e+02 
       5.933463737275e-01       2.342754756755e+02 
       6.238638458458e-01       2.099417484616e+02 
       6.590669257916e-01       1.861285076744e+02 
       7.009246080454e-01       1.623982548326e+02 
       7.528593308799e-01       1.384641632130e+02 
       8.213469537518e-01       1.137978732654e+02 
       9.196980813302e-01       8.791635571766e+01 
       1.075112183810e+00       6.119986471811e+01 
       1.322697471132e+00       3.738557675545e+01 
       1.662328205042e+00       2.126839708130e+01 
       2.092692408506e+00       1.164329186728e+01 
       2.634543445090e+00       5.980971649777e+00 
       3.316693691389e+00       2.697110428738e+00 
       4.175469971226e+00       9.028651344141e-01 
       5.256605252960e+00       1.210494774625e-01 
       6.617673932723e+00       1.821564442410e-02 
       8.331157880872e+00       1.673015103605e-01 
       1.048830636590e+01       1.424583668570e-01 
       1.320399541071e+01       8.393370295139e-03 
       1.662284535976e+01       1.849846016860e-02 
       2.092692243973e+01       3.067002717615e-03 
       2.634543445002e+01       2.022423964005e-03 
       3.316693691389e+01       1.105071578775e-04 
       4.175469971226e+01       6.125288658397e-06 
       5.256605252960e+01       1.206508148554e-07 
       6.617673932723e+01       1.129355945483e-07 
