# Matter power spectrum P(k) at redshift z=0
# for k=1.04775e-05 to 66.1767 h/Mpc,
# number of wavenumbers equal to 130
#    1:k (h/Mpc)              2:P (Mpc/h)^3        
       1.047750691046e-05       5.020964811308e+01 
       1.319039970183e-05       6.270562594770e+01 
       1.660572937635e-05       7.831147247912e+01 
       2.090537469327e-05       9.780108069295e+01 
       2.631830744443e-05       1.221408203809e+02 
       3.313278603720e-05       1.525374501932e+02 
       4.171170630578e-05       1.904975994010e+02 
       5.251192703764e-05       2.379022224249e+02 
       6.610859936996e-05       2.970989227882e+02 
       8.322579568497e-05       3.710167318945e+02 
       1.047750691046e-04       4.633080766741e+02 
       1.319039970183e-04       5.785234129333e+02 
       1.660572937635e-04       7.223242666090e+02 
       2.090537469327e-04       9.017396271820e+02 
       2.631830744443e-04       1.125468123749e+03 
       3.313278603720e-04       1.404223053679e+03 
       4.171170630578e-04       1.751108028786e+03 
       5.251192703764e-04       2.181998448126e+03 
       6.610859936996e-04       2.715889983579e+03 
       8.322579568497e-04       3.375152337107e+03 
       1.047750691046e-03       4.185552174272e+03 
       1.319039970183e-03       5.175742741152e+03 
       1.660572937635e-03       6.376123051525e+03 
       2.090537469327e-03       7.815671914916e+03 
       2.631830744443e-03       9.517783068141e+03 
       3.313278603720e-03       1.149357460144e+04 
       4.171170630578e-03       1.373266012873e+04 
       5.251192703764e-03       1.619063508262e+04 
       6.610859936996e-03       1.877460442725e+04 
       8.322579568497e-03       2.132611308885e+04 
       1.047750691046e-02       2.360548420179e+04 
       1.319039970183e-02       2.528218985113e+04 
       1.660572937633e-02       2.595023654355e+04 
       2.090537453514e-02       2.520923811986e+04 
       2.631818545635e-02       2.287029215571e+04 
       3.311571692125e-02       1.928627965813e+04 
       4.113809243311e-02       1.568419974335e+04 
       4.792590854610e-02       1.361053159400e+04 
       5.284436902701e-02       1.259121627904e+04 
       5.689644391095e-02       1.195550359030e+04 
       6.051252627066e-02       1.147546261140e+04 
       6.388413457411e-02       1.105560814803e+04 
       6.711249296401e-02       1.064885793616e+04 
       7.025823437965e-02       1.022928203172e+04 
       7.336115587705e-02       9.784552187910e+03 
       7.644928796912e-02       9.311692070110e+03 
       7.954353299775e-02       8.814480171674e+03 
       8.266024078725e-02       8.301929510775e+03 
       8.581273398637e-02       7.786950315118e+03 
       8.901225918437e-02       7.283205467133e+03 
       9.226860540985e-02       6.805181879283e+03 
       9.559052048996e-02       6.365618861335e+03 
       9.898599946599e-02       5.974374283993e+03 
       1.024624891378e-01       5.637329601455e+03 
       1.060270359164e-01       5.355783841316e+03 
       1.096863943056e-01       5.126232009376e+03 
       1.134471073830e-01       4.940478451791e+03 
       1.173155669539e-01       4.786146501448e+03 
       1.212980586983e-01       4.647941683555e+03 
       1.254007961065e-01       4.509032184853e+03 
       1.296299459934e-01       4.354550134289e+03 
       1.339916477160e-01       4.173131829584e+03 
       1.384920277736e-01       3.961163139956e+03 
       1.431372111762e-01       3.722586047310e+03 
       1.479333307714e-01       3.469546173247e+03 
       1.528865355934e-01       3.218311327506e+03 
       1.580029992204e-01       2.986243788603e+03 
       1.632889290723e-01       2.786939373722e+03 
       1.687505775527e-01       2.626807884168e+03 
       1.743942559171e-01       2.503752877004e+03 
       1.802263517371e-01       2.407294320924e+03 
       1.862533508214e-01       2.322246059048e+03 
       1.924818644494e-01       2.231564509986e+03 
       1.989186627765e-01       2.122200539166e+03 
       2.055707152847e-01       1.992029108142e+03 
       2.124452391818e-01       1.850294886559e+03 
       2.195497567139e-01       1.712149596350e+03 
       2.268921624510e-01       1.590965033125e+03 
       2.344808017550e-01       1.493649950476e+03 
       2.423245618548e-01       1.418296742674e+03 
       2.504329772620e-01       1.354435721845e+03 
       2.588163516754e-01       1.288922302319e+03 
       2.674858990930e-01       1.213901032891e+03 
       2.764539076010e-01       1.130671957672e+03 
       2.857339303080e-01       1.048076221716e+03 
       2.953410092148e-01       9.761617288385e+02 
       3.052919395542e-01       9.177948655663e+02 
       3.156055844677e-01       8.678786333486e+02 
       3.263032530092e-01       8.185141139969e+02 
       3.374091587054e-01       7.651381956514e+02 
       3.489509817175e-01       7.106494973888e+02 
       3.609605657343e-01       6.607688828157e+02 
       3.734747921333e-01       6.180695436340e+02 
       3.865366902904e-01       5.792897828760e+02 
       4.001968667448e-01       5.403715497430e+02 
       4.145153713076e-01       5.011320418605e+02 
       4.295641718077e-01       4.644840309115e+02 
       4.454304922144e-01       4.313899327493e+02 
       4.622214006969e-01       4.000978646892e+02 
       4.800702491654e-01       3.690718621571e+02 
       4.991459272112e-01       3.394587240198e+02 
       5.196665217302e-01       3.119693342458e+02 
       5.419201087032e-01       2.852319307847e+02 
       5.662975451962e-01       2.593152515892e+02 
       5.933463737275e-01       2.345326895344e+02 
       6.238638458458e-01       2.102177662652e+02 
       6.590669257916e-01       1.864197203927e+02 
       7.009246080454e-01       1.627116332741e+02 
       7.528593308799e-01       1.388051449436e+02 
       8.213469537518e-01       1.141753521056e+02 
       9.196980813302e-01       8.834574384913e+01 
       1.075112183810e+00       6.171242377215e+01 
       1.322697471132e+00       3.802898224972e+01 
       1.662328205042e+00       2.208435751624e+01 
       2.092692408506e+00       1.265568284982e+01 
       2.634543445090e+00       7.190036707058e+00 
       3.316693691389e+00       4.052219011167e+00 
       4.175469971226e+00       2.266067019164e+00 
       5.256605252960e+00       1.257247784100e+00 
       6.617673932723e+00       6.915267922907e-01 
       8.331157880872e+00       3.763788319116e-01 
       1.048830636590e+01       2.019325357229e-01 
       1.320399541071e+01       1.060014776904e-01 
       1.662284535976e+01       5.365936003863e-02 
       2.092692243973e+01       2.546441910558e-02 
       2.634543445002e+01       1.070420881743e-02 
       3.316693691389e+01       3.532230831241e-03 
       4.175469971226e+01       6.749787485266e-04 
       5.256605252960e+01       1.728239046330e-05 
       6.617673932723e+01       1.615282643358e-05 
