# Matter power spectrum P(k) at redshift z=0
# for k=1.04775e-05 to 67.6233 h/Mpc,
# number of wavenumbers equal to 246
#    1:k (h/Mpc)              2:P (Mpc/h)^3        
       1.047750691046e-05       5.020964811308e+01 
       1.131335172503e-05       5.407050701928e+01 
       1.221587619537e-05       5.822819068534e+01 
       1.319039970183e-05       6.270562594774e+01 
       1.424266597921e-05       6.752732240880e+01 
       1.537887696968e-05       7.271977206173e+01 
       1.660572937635e-05       7.831147247912e+01 
       1.793045413292e-05       8.433311821988e+01 
       1.936085902198e-05       9.081778249833e+01 
       2.090537469327e-05       9.780108069297e+01 
       2.257310435294e-05       1.053213197893e+02 
       2.437387741694e-05       1.134197377890e+02 
       2.631830744443e-05       1.221408203809e+02 
       2.841785469300e-05       1.315324642459e+02 
       3.068489366414e-05       1.416462094882e+02 
       3.313278603720e-05       1.525374501932e+02 
       3.577595942169e-05       1.642660688414e+02 
       3.862999239199e-05       1.768963506307e+02 
       4.171170630578e-05       1.904975994010e+02 
       4.503926444729e-05       2.051444491973e+02 
       4.863227907969e-05       2.209171465549e+02 
       5.251192703764e-05       2.379022224248e+02 
       5.670107454120e-05       2.561927927583e+02 
       6.122441196689e-05       2.758890444041e+02 
       6.610859936996e-05       2.970989227881e+02 
       7.138242361596e-05       3.199385560802e+02 
       7.707696804727e-05       3.445329783679e+02 
       8.322579568497e-05       3.710167318945e+02 
       8.986514704559e-05       3.995346444202e+02 
       9.703415373875e-05       4.302425407382e+02 
       1.047750691046e-04       4.633080766741e+02 
       1.131335172503e-04       4.989116271563e+02 
       1.221587619537e-04       5.372471950928e+02 
       1.319039970183e-04       5.785234129342e+02 
       1.424266597921e-04       6.229645936043e+02 
       1.537887696968e-04       6.708118490401e+02 
       1.660572937635e-04       7.223242666087e+02 
       1.793045413292e-04       7.777801562519e+02 
       1.936085902198e-04       8.374783614133e+02 
       2.090537469327e-04       9.017396271814e+02 
       2.257310435294e-04       9.709080268029e+02 
       2.437387741694e-04       1.045352449492e+03 
       2.631830744443e-04       1.125468123748e+03 
       2.841785469300e-04       1.211678180492e+03 
       3.068489366414e-04       1.304435250147e+03 
       3.313278603720e-04       1.404223053677e+03 
       3.577595942169e-04       1.511558014612e+03 
       3.862999239199e-04       1.626990837738e+03 
       4.171170630578e-04       1.751108028782e+03 
       4.503926444729e-04       1.884533382863e+03 
       4.863227907969e-04       2.027929378101e+03 
       5.251192703764e-04       2.181998448118e+03 
       5.670107454121e-04       2.347484102736e+03 
       6.122441196689e-04       2.525171871342e+03 
       6.610859936996e-04       2.715889983564e+03 
       7.138242361596e-04       2.920509688345e+03 
       7.707696804727e-04       3.139945100234e+03 
       8.322579568497e-04       3.375152337522e+03 
       8.986514704559e-04       3.627127831068e+03 
       9.703415373875e-04       3.896905453046e+03 
       1.047750691046e-03       4.185552174174e+03 
       1.131335172503e-03       4.494162430231e+03 
       1.221587619537e-03       4.823850706321e+03 
       1.319039970183e-03       5.175742739109e+03 
       1.424266597921e-03       5.551019596642e+03 
       1.537887696968e-03       5.950788340180e+03 
       1.660572937635e-03       6.376123051276e+03 
       1.793045413292e-03       6.828073900837e+03 
       1.936085902198e-03       7.307625380275e+03 
       2.090537469327e-03       7.815671913485e+03 
       2.257310435294e-03       8.352990374521e+03 
       2.437387741694e-03       8.920211062702e+03 
       2.631830744443e-03       9.517783067015e+03 
       2.841785469300e-03       1.014593704169e+04 
       3.068489366414e-03       1.080464502458e+04 
       3.313278603720e-03       1.149357459918e+04 
       3.577595942169e-03       1.221203621183e+04 
       3.862999239199e-03       1.295892538767e+04 
       4.171170630578e-03       1.373266010843e+04 
       4.503926444729e-03       1.453111834554e+04 
       4.863227907969e-03       1.535154946811e+04 
       5.251192703764e-03       1.619063381571e+04 
       5.670107454120e-03       1.704431239204e+04 
       6.122441196689e-03       1.790756064000e+04 
       6.610859936996e-03       1.877460477829e+04 
       7.138242361596e-03       1.963872738467e+04 
       7.707696804727e-03       2.049215598077e+04 
       8.322579568496e-03       2.132611163573e+04 
       8.986514704559e-03       2.213055704019e+04 
       9.703415373875e-03       2.289441031820e+04 
       1.047750691046e-02       2.360547351086e+04 
       1.131335172503e-02       2.425023624106e+04 
       1.221587619537e-02       2.481419840437e+04 
       1.319039970183e-02       2.528215717736e+04 
       1.424266597920e-02       2.563810572810e+04 
       1.537887696964e-02       2.586611546323e+04 
       1.660572937560e-02       2.595024506184e+04 
       1.793045412207e-02       2.587629973731e+04 
       1.936085889642e-02       2.563216880533e+04 
       2.090537351881e-02       2.520925382933e+04 
       2.257309534705e-02       2.460435824845e+04 
       2.437382002240e-02       2.382079290993e+04 
       2.631799943729e-02       2.287035830624e+04 
       2.841644544598e-02       2.177443049282e+04 
       3.067933354524e-02       2.056538328214e+04 
       3.311368469821e-02       1.928714143527e+04 
       3.571840442514e-02       1.799383540206e+04 
       3.847720347390e-02       1.674673446086e+04 
       4.135335537314e-02       1.560450231433e+04 
       4.429361666563e-02       1.461027409257e+04 
       4.724366437916e-02       1.378043852522e+04 
       5.016480834039e-02       1.310498886740e+04 
       5.303989618930e-02       1.255713451562e+04 
       5.586870668205e-02       1.210424529949e+04 
       5.866042679206e-02       1.171465745329e+04 
       6.142798931504e-02       1.136014665396e+04 
       6.418496438662e-02       1.101860941119e+04 
       6.694418832236e-02       1.067067193475e+04 
       6.971731104453e-02       1.030362333877e+04 
       7.251476154108e-02       9.909044647880e+03 
       7.534587669814e-02       9.483614164377e+03 
       7.821907664495e-02       9.029313833173e+03 
       8.114203771084e-02       8.552113057699e+03 
       8.412184533139e-02       8.061930625435e+03 
       8.716512277352e-02       7.570709893877e+03 
       9.027813693913e-02       7.092464252470e+03 
       9.346688429613e-02       6.640520460554e+03 
       9.673716026122e-02       6.226711497792e+03 
       1.000946150608e-01       5.859908455695e+03 
       1.035447986307e-01       5.545243474180e+03 
       1.070931966524e-01       5.283147728381e+03 
       1.107452594180e-01       5.069455484432e+03 
       1.145064248899e-01       4.895275289068e+03 
       1.183821370656e-01       4.747833524457e+03 
       1.223778605591e-01       4.611719733845e+03 
       1.264990921707e-01       4.470609606810e+03 
       1.307513701078e-01       4.310278015246e+03 
       1.351402814485e-01       4.121395868244e+03 
       1.396714683894e-01       3.902049023799e+03 
       1.443506337875e-01       3.658649612363e+03 
       1.491835464900e-01       3.404454578142e+03 
       1.541760469368e-01       3.156630679440e+03 
       1.593340535209e-01       2.931921551894e+03 
       1.646635701934e-01       2.742346178746e+03 
       1.701706958081e-01       2.592223999318e+03 
       1.758616357070e-01       2.477206308838e+03 
       1.817427160581e-01       2.385150382418e+03 
       1.878204014651e-01       2.300329755750e+03 
       1.941013163855e-01       2.205764752667e+03 
       2.005922709060e-01       2.090825283903e+03 
       2.073002914514e-01       1.956448632700e+03 
       2.142326570343e-01       1.814166317657e+03 
       2.213969417044e-01       1.679259871276e+03 
       2.288010639201e-01       1.563827713086e+03 
       2.364533436625e-01       1.472653744315e+03 
       2.443625682390e-01       1.401498499629e+03 
       2.525380678946e-01       1.338405090670e+03 
       2.609898025770e-01       1.270882357959e+03 
       2.697284614969e-01       1.193341667669e+03 
       2.787655775073e-01       1.109312842636e+03 
       2.881136588192e-01       1.028744049699e+03 
       2.977863412019e-01       9.604564434009e+02 
       3.077985646248e-01       9.049981954723e+02 
       3.181667793367e-01       8.561151891905e+02 
       3.289091877084e-01       8.061595479804e+02 
       3.400460298905e-01       7.523620198257e+02 
       3.515999235695e-01       6.988920589135e+02 
       3.635962710278e-01       6.510361341033e+02 
       3.760637505499e-01       6.100982045799e+02 
       3.890349143014e-01       5.721052184245e+02 
       4.025469215929e-01       5.337517094114e+02 
       4.166424455447e-01       4.955997370854e+02 
       4.313708034899e-01       4.604397484443e+02 
       4.467893781976e-01       4.287442140656e+02 
       4.629654198623e-01       3.987416959496e+02 
       4.799783500912e-01       3.692092280933e+02 
       4.979227318246e-01       3.412101966688e+02 
       5.169121269689e-01       3.154486996627e+02 
       5.370841403262e-01       2.908016805257e+02 
       5.586070463286e-01       2.670724690633e+02 
       5.816885093582e-01       2.447754934106e+02 
       6.065870143577e-01       2.235356070214e+02 
       6.336266466978e-01       2.031773555859e+02 
       6.632156057925e-01       1.838456297625e+02 
       6.958678637575e-01       1.653206867827e+02 
       7.322247983784e-01       1.476612571658e+02 
       7.730680193171e-01       1.307989224786e+02 
       8.193049551574e-01       1.147956471746e+02 
       8.718988013754e-01       9.972626211969e+01 
       9.317218028590e-01       8.573992041267e+01 
       9.993660906273e-01       7.301584181591e+01 
       1.075037109879e+00       6.169531608255e+01 
       1.158653485387e+00       5.183732142945e+01 
       1.250099156961e+00       4.339684874782e+01 
       1.349432400897e+00       3.624441365720e+01 
       1.456947456991e+00       3.022123158997e+01 
       1.573135110893e+00       2.516596290166e+01 
       1.698621895119e+00       2.093135246294e+01 
       1.834127512423e+00       1.738963399142e+01 
       1.980444933977e+00       1.443060033761e+01 
       2.138435191130e+00       1.196139964892e+01 
       2.309029198543e+00       9.903006559750e+00 
       2.493232376993e+00       8.188768359297e+00 
       2.692130394536e+00       6.762596445710e+00 
       2.906895533764e+00       5.576950769726e+00 
       3.138793596840e+00       4.592119539695e+00 
       3.389191365541e+00       3.774571773479e+00 
       3.659564656886e+00       3.096592885777e+00 
       3.951507021438e+00       2.534359515715e+00 
       4.266739135513e+00       2.068587867301e+00 
       4.607118942658e+00       1.682747953183e+00 
       4.974652604172e+00       1.363287806375e+00 
       5.371506323193e+00       1.098869339368e+00 
       5.800019112071e+00       8.801127827317e-01 
       6.262716578240e+00       6.992763723693e-01 
       6.762325809881e+00       5.499474825393e-01 
       7.301791449077e+00       4.268840432677e-01 
       7.884293047211e+00       3.258179341291e-01 
       8.513263804891e+00       2.432613204013e-01 
       9.192410806865e+00       1.764207332081e-01 
       9.925736871166e+00       1.230415237801e-01 
       1.071756414128e+01       8.130365022330e-02 
       1.157255956041e+01       4.971653582720e-02 
       1.249576237789e+01       2.699524614860e-02 
       1.349261385000e+01       1.196355407155e-02 
       1.456898931011e+01       3.442373360932e-03 
       1.573123279727e+01       1.659517970727e-04 
       1.698619444729e+01       7.335609643201e-04 
       1.834127086665e+01       3.620955844614e-03 
       1.980444872733e+01       7.275496297737e-03 
       2.138435183937e+01       1.029471855386e-02 
       2.309029197863e+01       1.166694599179e-02 
       2.493232376942e+01       1.099371688675e-02 
       2.692130394533e+01       8.590629947948e-03 
       2.906895533764e+01       5.361819933105e-03 
       3.138793596840e+01       2.420619819864e-03 
       3.389191365541e+01       5.844995272337e-04 
       3.659564656886e+01       4.169555717489e-06 
       3.951507021438e+01       1.898920082460e-04 
       4.266739135513e+01       4.518046043570e-04 
       4.607118942658e+01       4.200057829318e-04 
       4.974652604172e+01       1.935796568932e-04 
       5.371506323193e+01       3.030371789755e-05 
       5.800019112071e+01       5.925536010493e-07 
       6.262716578240e+01       7.896095301322e-06 
       6.762325809881e+01       1.785587667265e-06 
