# Matter power spectrum P(k) at redshift z=0
# for k=1.04775e-05 to 67.6233 h/Mpc,
# number of wavenumbers equal to 246
#    1:k (h/Mpc)              2:P (Mpc/h)^3        
       1.047750691046e-05       5.020964811306e+01 
       1.131335172503e-05       5.407050701925e+01 
       1.221587619537e-05       5.822819068712e+01 
       1.319039970183e-05       6.270562594780e+01 
       1.424266597921e-05       6.752732240880e+01 
       1.537887696968e-05       7.271977206173e+01 
       1.660572937635e-05       7.831147247912e+01 
       1.793045413292e-05       8.433311821988e+01 
       1.936085902198e-05       9.081778249833e+01 
       2.090537469327e-05       9.780108069296e+01 
       2.257310435294e-05       1.053213197893e+02 
       2.437387741694e-05       1.134197377890e+02 
       2.631830744443e-05       1.221408203809e+02 
       2.841785469300e-05       1.315324642465e+02 
       3.068489366414e-05       1.416462094880e+02 
       3.313278603720e-05       1.525374501932e+02 
       3.577595942169e-05       1.642660688414e+02 
       3.862999239199e-05       1.768963506307e+02 
       4.171170630578e-05       1.904975994009e+02 
       4.503926444729e-05       2.051444491974e+02 
       4.863227907969e-05       2.209171465549e+02 
       5.251192703764e-05       2.379022224249e+02 
       5.670107454120e-05       2.561927928201e+02 
       6.122441196689e-05       2.758890444041e+02 
       6.610859936996e-05       2.970989227880e+02 
       7.138242361596e-05       3.199385560802e+02 
       7.707696804727e-05       3.445329783680e+02 
       8.322579568497e-05       3.710167318946e+02 
       8.986514704559e-05       3.995346444203e+02 
       9.703415373875e-05       4.302425407383e+02 
       1.047750691046e-04       4.633080766742e+02 
       1.131335172503e-04       4.989116271564e+02 
       1.221587619537e-04       5.372471950930e+02 
       1.319039970183e-04       5.785234129331e+02 
       1.424266597921e-04       6.229645936045e+02 
       1.537887696968e-04       6.708118490405e+02 
       1.660572937635e-04       7.223242666092e+02 
       1.793045413292e-04       7.777801560190e+02 
       1.936085902198e-04       8.374783614141e+02 
       2.090537469327e-04       9.017396271824e+02 
       2.257310435294e-04       9.709080268041e+02 
       2.437387741694e-04       1.045352449493e+03 
       2.631830744443e-04       1.125468123750e+03 
       2.841785469300e-04       1.211678180495e+03 
       3.068489366414e-04       1.304435250150e+03 
       3.313278603720e-04       1.404223053681e+03 
       3.577595942169e-04       1.511558014616e+03 
       3.862999239199e-04       1.626990837845e+03 
       4.171170630578e-04       1.751108028790e+03 
       4.503926444729e-04       1.884533382872e+03 
       4.863227907969e-04       2.027929378111e+03 
       5.251192703764e-04       2.181998448133e+03 
       5.670107454121e-04       2.347484102755e+03 
       6.122441196689e-04       2.525171871365e+03 
       6.610859936996e-04       2.715889983592e+03 
       7.138242361596e-04       2.920509688381e+03 
       7.707696804727e-04       3.139945100279e+03 
       8.322579568497e-04       3.375152337585e+03 
       8.986514704559e-04       3.627127831140e+03 
       9.703415373875e-04       3.896905453136e+03 
       1.047750691046e-03       4.185552174299e+03 
       1.131335172503e-03       4.494162430373e+03 
       1.221587619537e-03       4.823850706503e+03 
       1.319039970183e-03       5.175742744450e+03 
       1.424266597921e-03       5.551019596909e+03 
       1.537887696968e-03       5.950788340560e+03 
       1.660572937635e-03       6.376123051791e+03 
       1.793045413292e-03       6.828073901456e+03 
       1.936085902198e-03       7.307625381066e+03 
       2.090537469327e-03       7.815671859625e+03 
       2.257310435294e-03       8.352990375823e+03 
       2.437387741694e-03       8.920211064342e+03 
       2.631830744443e-03       9.517783069112e+03 
       2.841785469300e-03       1.014593704435e+04 
       3.068489366414e-03       1.080464502798e+04 
       3.313278603720e-03       1.149357460345e+04 
       3.577595942169e-03       1.221203621722e+04 
       3.862999239199e-03       1.295892539446e+04 
       4.171170630578e-03       1.373266013827e+04 
       4.503926444729e-03       1.453111835625e+04 
       4.863227907969e-03       1.535154985299e+04 
       5.251192703764e-03       1.619063614550e+04 
       5.670107454120e-03       1.704431257746e+04 
       6.122441196689e-03       1.790755939654e+04 
       6.610859936996e-03       1.877460420279e+04 
       7.138242361596e-03       1.963872430371e+04 
       7.707696804727e-03       2.049215714756e+04 
       8.322579568496e-03       2.132606734885e+04 
       8.986514704559e-03       2.213054689653e+04 
       9.703415373875e-03       2.289445472181e+04 
       1.047750691046e-02       2.360549033698e+04 
       1.131335172503e-02       2.425022857948e+04 
       1.221587619537e-02       2.481423921571e+04 
       1.319039970183e-02       2.528218715076e+04 
       1.424266597920e-02       2.563814655533e+04 
       1.537887696964e-02       2.586609022033e+04 
       1.660572937560e-02       2.595027071584e+04 
       1.793045412207e-02       2.587635981319e+04 
       1.936085889642e-02       2.563219855839e+04 
       2.090537351881e-02       2.520938201419e+04 
       2.257309534705e-02       2.460446782841e+04 
       2.437382002240e-02       2.382088738302e+04 
       2.631799943729e-02       2.287042954512e+04 
       2.841644544598e-02       2.177445533935e+04 
       3.067933354524e-02       2.056551745110e+04 
       3.311368469821e-02       1.928726974200e+04 
       3.571840442514e-02       1.799405056320e+04 
       3.847720347390e-02       1.674684985454e+04 
       4.135335537314e-02       1.560464366341e+04 
       4.429361666563e-02       1.461035531325e+04 
       4.724366437916e-02       1.378056153201e+04 
       5.016480834039e-02       1.310505470468e+04 
       5.303989618930e-02       1.255714971679e+04 
       5.586870668205e-02       1.210426498013e+04 
       5.866042679206e-02       1.171461640386e+04 
       6.142798931504e-02       1.136048115553e+04 
       6.418496438662e-02       1.101855171305e+04 
       6.694418832236e-02       1.067067321405e+04 
       6.971731104453e-02       1.030356806212e+04 
       7.251476154108e-02       9.909003547816e+03 
       7.534587669814e-02       9.483791685544e+03 
       7.821907664495e-02       9.029493892092e+03 
       8.114203771084e-02       8.552335463788e+03 
       8.412184533139e-02       8.061938940336e+03 
       8.716512277352e-02       7.570775771265e+03 
       9.027813693913e-02       7.092501620788e+03 
       9.346688429613e-02       6.640531035842e+03 
       9.673716026122e-02       6.226696859301e+03 
       1.000946150608e-01       5.859939171922e+03 
       1.035447986307e-01       5.545213125712e+03 
       1.070931966524e-01       5.283146645346e+03 
       1.107452594180e-01       5.069423821929e+03 
       1.145064248899e-01       4.895252555890e+03 
       1.183821370656e-01       4.747867512293e+03 
       1.223778605591e-01       4.611750306135e+03 
       1.264990921707e-01       4.470609579851e+03 
       1.307513701078e-01       4.310278766738e+03 
       1.351402814485e-01       4.121369910744e+03 
       1.396714683894e-01       3.902054231878e+03 
       1.443506337875e-01       3.658642198698e+03 
       1.491835464900e-01       3.404484597702e+03 
       1.541760469368e-01       3.156675846297e+03 
       1.593340535209e-01       2.931983245497e+03 
       1.646635701934e-01       2.742375401197e+03 
       1.701706958081e-01       2.592263547954e+03 
       1.758616357070e-01       2.477245547871e+03 
       1.817427160581e-01       2.385183178505e+03 
       1.878204014651e-01       2.300363826192e+03 
       1.941013163855e-01       2.205754143959e+03 
       2.005922709060e-01       2.090819159429e+03 
       2.073002914514e-01       1.956465304311e+03 
       2.142326570343e-01       1.814192756134e+03 
       2.213969417044e-01       1.679299470023e+03 
       2.288010639201e-01       1.563849604520e+03 
       2.364533436625e-01       1.472685846213e+03 
       2.443625682390e-01       1.401512271728e+03 
       2.525380678946e-01       1.338412498653e+03 
       2.609898025770e-01       1.270906045336e+03 
       2.697284614969e-01       1.193382506327e+03 
       2.787655775073e-01       1.109340699060e+03 
       2.881136588192e-01       1.028771267325e+03 
       2.977863412019e-01       9.604828075782e+02 
       3.077985646248e-01       9.050220894179e+02 
       3.181667793367e-01       8.561440235831e+02 
       3.289091877084e-01       8.061876227906e+02 
       3.400460298905e-01       7.523922148870e+02 
       3.515999235695e-01       6.989230287731e+02 
       3.635962710278e-01       6.510623563075e+02 
       3.760637505499e-01       6.101219974856e+02 
       3.890349143014e-01       5.721328925381e+02 
       4.025469215929e-01       5.337805973914e+02 
       4.166424455447e-01       4.956323527061e+02 
       4.313708034899e-01       4.604703957993e+02 
       4.467893781976e-01       4.287779235406e+02 
       4.629654198623e-01       3.987725889054e+02 
       4.799783500912e-01       3.692421016148e+02 
       4.979227318246e-01       3.412408636420e+02 
       5.169121269689e-01       3.154833073685e+02 
       5.370841403262e-01       2.908352598559e+02 
       5.586070463286e-01       2.671064968454e+02 
       5.816885093582e-01       2.448091290713e+02 
       6.065870143577e-01       2.235678133617e+02 
       6.336266466978e-01       2.032109604710e+02 
       6.632156057925e-01       1.838789252780e+02 
       6.958678637575e-01       1.653546999985e+02 
       7.322247983784e-01       1.476957362618e+02 
       7.730680193171e-01       1.308338400376e+02 
       8.193049551574e-01       1.148314086100e+02 
       8.718988013754e-01       9.976263497344e+01 
       9.317218028590e-01       8.577805150564e+01 
       9.993660906273e-01       7.305472454202e+01 
       1.075037109879e+00       6.173592525508e+01 
       1.158653485387e+00       5.187894271302e+01 
       1.250099156961e+00       4.344013852833e+01 
       1.349432400897e+00       3.628928162582e+01 
       1.456947456991e+00       3.026801792367e+01 
       1.573135110893e+00       2.521455301128e+01 
       1.698621895119e+00       2.098198505937e+01 
       1.834127512423e+00       1.744229548346e+01 
       1.980444933977e+00       1.448567007771e+01 
       2.138435191130e+00       1.201895032368e+01 
       2.309029198543e+00       9.963135449895e+00 
       2.493232376993e+00       8.251798384436e+00 
       2.692130394536e+00       6.828584803777e+00 
       2.906895533764e+00       5.646221669082e+00 
       3.138793596840e+00       4.664868872589e+00 
       3.389191365541e+00       3.851094421905e+00 
       3.659564656886e+00       3.176925643754e+00 
       3.951507021438e+00       2.618859364165e+00 
       4.266739135513e+00       2.157351320273e+00 
       4.607118942658e+00       1.775922802775e+00 
       4.974652604172e+00       1.460987427493e+00 
       5.371506323193e+00       1.201135417696e+00 
       5.800019112071e+00       9.868791058418e-01 
       6.262716578240e+00       8.103535571450e-01 
       6.762325809881e+00       6.650144884475e-01 
       7.301791449077e+00       5.454254480297e-01 
       7.884293047211e+00       4.470939299189e-01 
       8.513263804891e+00       3.662950617135e-01 
       9.192410806865e+00       2.999417960400e-01 
       9.925736871166e+00       2.454792511919e-01 
       1.071756414128e+01       2.008060038230e-01 
       1.157255956041e+01       1.641842252252e-01 
       1.249576237789e+01       1.341769816748e-01 
       1.349261385000e+01       1.096029711330e-01 
       1.456898931011e+01       8.948804622007e-02 
       1.573123279727e+01       7.303265442845e-02 
       1.698619444729e+01       5.957725619440e-02 
       1.834127086665e+01       4.857999221206e-02 
       1.980444872733e+01       3.959630000655e-02 
       2.138435183937e+01       3.226041565848e-02 
       2.309029197863e+01       2.627285410796e-02 
       2.493232376942e+01       2.138779892459e-02 
       2.692130394533e+01       1.740433311246e-02 
       2.906895533764e+01       1.415690204946e-02 
       3.138793596840e+01       1.151074017149e-02 
       3.389191365541e+01       9.355564068738e-03 
       3.659564656886e+01       7.600800900592e-03 
       3.951507021438e+01       6.172605605591e-03 
       4.266739135513e+01       5.010662814776e-03 
       4.607118942658e+01       4.065757144361e-03 
       4.974652604172e+01       3.297546343258e-03 
       5.371506323193e+01       2.673317027172e-03 
       5.800019112071e+01       2.166190040421e-03 
       6.262716578240e+01       1.754364956359e-03 
       6.762325809881e+01       1.420106670404e-03 
