# Matter power spectrum P(k) at redshift z=0
# for k=1.04775e-05 to 67.6233 h/Mpc,
# number of wavenumbers equal to 246
#    1:k (h/Mpc)              2:P (Mpc/h)^3        
       1.047750691046e-05       5.020964811307e+01 
       1.131335172503e-05       5.407050701926e+01 
       1.221587619537e-05       5.822819068396e+01 
       1.319039970183e-05       6.270562594777e+01 
       1.424266597921e-05       6.752732240880e+01 
       1.537887696968e-05       7.271977206173e+01 
       1.660572937635e-05       7.831147247912e+01 
       1.793045413292e-05       8.433311821988e+01 
       1.936085902198e-05       9.081778249833e+01 
       2.090537469327e-05       9.780108069296e+01 
       2.257310435294e-05       1.053213197893e+02 
       2.437387741694e-05       1.134197377890e+02 
       2.631830744443e-05       1.221408203809e+02 
       2.841785469300e-05       1.315324642462e+02 
       3.068489366414e-05       1.416462094882e+02 
       3.313278603720e-05       1.525374501932e+02 
       3.577595942169e-05       1.642660688414e+02 
       3.862999239199e-05       1.768963506307e+02 
       4.171170630578e-05       1.904975994009e+02 
       4.503926444729e-05       2.051444491974e+02 
       4.863227907969e-05       2.209171465549e+02 
       5.251192703764e-05       2.379022224249e+02 
       5.670107454120e-05       2.561927927993e+02 
       6.122441196689e-05       2.758890444041e+02 
       6.610859936996e-05       2.970989227882e+02 
       7.138242361596e-05       3.199385560802e+02 
       7.707696804727e-05       3.445329783680e+02 
       8.322579568497e-05       3.710167318945e+02 
       8.986514704559e-05       3.995346444203e+02 
       9.703415373875e-05       4.302425407383e+02 
       1.047750691046e-04       4.633080766742e+02 
       1.131335172503e-04       4.989116271564e+02 
       1.221587619537e-04       5.372471950930e+02 
       1.319039970183e-04       5.785234129342e+02 
       1.424266597921e-04       6.229645936045e+02 
       1.537887696968e-04       6.708118490405e+02 
       1.660572937635e-04       7.223242666092e+02 
       1.793045413292e-04       7.777801558973e+02 
       1.936085902198e-04       8.374783614140e+02 
       2.090537469327e-04       9.017396271824e+02 
       2.257310435294e-04       9.709080268041e+02 
       2.437387741694e-04       1.045352449493e+03 
       2.631830744443e-04       1.125468123750e+03 
       2.841785469300e-04       1.211678180495e+03 
       3.068489366414e-04       1.304435250150e+03 
       3.313278603720e-04       1.404223053681e+03 
       3.577595942169e-04       1.511558014616e+03 
       3.862999239199e-04       1.626990837775e+03 
       4.171170630578e-04       1.751108028790e+03 
       4.503926444729e-04       1.884533382872e+03 
       4.863227907969e-04       2.027929378113e+03 
       5.251192703764e-04       2.181998448133e+03 
       5.670107454121e-04       2.347484102755e+03 
       6.122441196689e-04       2.525171871365e+03 
       6.610859936996e-04       2.715889983593e+03 
       7.138242361596e-04       2.920509688387e+03 
       7.707696804727e-04       3.139945100279e+03 
       8.322579568497e-04       3.375152337586e+03 
       8.986514704559e-04       3.627127831141e+03 
       9.703415373875e-04       3.896905453136e+03 
       1.047750691046e-03       4.185552174295e+03 
       1.131335172503e-03       4.494162430372e+03 
       1.221587619537e-03       4.823850706498e+03 
       1.319039970183e-03       5.175742742644e+03 
       1.424266597921e-03       5.551019596907e+03 
       1.537887696968e-03       5.950788340558e+03 
       1.660572937635e-03       6.376123051764e+03 
       1.793045413292e-03       6.828073901445e+03 
       1.936085902198e-03       7.307625381063e+03 
       2.090537469327e-03       7.815671856061e+03 
       2.257310435294e-03       8.352990375811e+03 
       2.437387741694e-03       8.920211064344e+03 
       2.631830744443e-03       9.517783069101e+03 
       2.841785469300e-03       1.014593704434e+04 
       3.068489366414e-03       1.080464502793e+04 
       3.313278603720e-03       1.149357460343e+04 
       3.577595942169e-03       1.221203621719e+04 
       3.862999239199e-03       1.295892539442e+04 
       4.171170630578e-03       1.373266008649e+04 
       4.503926444729e-03       1.453111835619e+04 
       4.863227907969e-03       1.535154985092e+04 
       5.251192703764e-03       1.619063613328e+04 
       5.670107454120e-03       1.704431257662e+04 
       6.122441196689e-03       1.790755940362e+04 
       6.610859936996e-03       1.877460421736e+04 
       7.138242361596e-03       1.963872432709e+04 
       7.707696804727e-03       2.049215713689e+04 
       8.322579568496e-03       2.132607241657e+04 
       8.986514704559e-03       2.213055028140e+04 
       9.703415373875e-03       2.289445481547e+04 
       1.047750691046e-02       2.360548213876e+04 
       1.131335172503e-02       2.425022922653e+04 
       1.221587619537e-02       2.481423928962e+04 
       1.319039970183e-02       2.528218840791e+04 
       1.424266597920e-02       2.563815021025e+04 
       1.537887696964e-02       2.586606346185e+04 
       1.660572937560e-02       2.595026271667e+04 
       1.793045412207e-02       2.587633901269e+04 
       1.936085889642e-02       2.563220703341e+04 
       2.090537351881e-02       2.520935870247e+04 
       2.257309534705e-02       2.460446650758e+04 
       2.437382002240e-02       2.382092730889e+04 
       2.631799943729e-02       2.287047228139e+04 
       2.841644544598e-02       2.177454709907e+04 
       3.067933354524e-02       2.056558982302e+04 
       3.311368469821e-02       1.928728811070e+04 
       3.571840442514e-02       1.799402809784e+04 
       3.847720347390e-02       1.674685629121e+04 
       4.135335537314e-02       1.560458508294e+04 
       4.429361666563e-02       1.461044779238e+04 
       4.724366437916e-02       1.378052898597e+04 
       5.016480834039e-02       1.310503698560e+04 
       5.303989618930e-02       1.255715954914e+04 
       5.586870668205e-02       1.210420912926e+04 
       5.866042679206e-02       1.171469858010e+04 
       6.142798931504e-02       1.136056291009e+04 
       6.418496438662e-02       1.101862815178e+04 
       6.694418832236e-02       1.067072067315e+04 
       6.971731104453e-02       1.030364865251e+04 
       7.251476154108e-02       9.909080115665e+03 
       7.534587669814e-02       9.483807789126e+03 
       7.821907664495e-02       9.029562459222e+03 
       8.114203771084e-02       8.552366196923e+03 
       8.412184533139e-02       8.061991833593e+03 
       8.716512277352e-02       7.570802355561e+03 
       9.027813693913e-02       7.092559621281e+03 
       9.346688429613e-02       6.640554775177e+03 
       9.673716026122e-02       6.226721911287e+03 
       1.000946150608e-01       5.859980562293e+03 
       1.035447986307e-01       5.545290430670e+03 
       1.070931966524e-01       5.283155438436e+03 
       1.107452594180e-01       5.069439283890e+03 
       1.145064248899e-01       4.895266072498e+03 
       1.183821370656e-01       4.747874937542e+03 
       1.223778605591e-01       4.611721342928e+03 
       1.264990921707e-01       4.470590371007e+03 
       1.307513701078e-01       4.310274702370e+03 
       1.351402814485e-01       4.121388800681e+03 
       1.396714683894e-01       3.902010993764e+03 
       1.443506337875e-01       3.658664198377e+03 
       1.491835464900e-01       3.404485255447e+03 
       1.541760469368e-01       3.156668020085e+03 
       1.593340535209e-01       2.931938406534e+03 
       1.646635701934e-01       2.742366063910e+03 
       1.701706958081e-01       2.592251028796e+03 
       1.758616357070e-01       2.477236434135e+03 
       1.817427160581e-01       2.385166572965e+03 
       1.878204014651e-01       2.300340734857e+03 
       1.941013163855e-01       2.205721440010e+03 
       2.005922709060e-01       2.090804318961e+03 
       2.073002914514e-01       1.956480621818e+03 
       2.142326570343e-01       1.814183402858e+03 
       2.213969417044e-01       1.679276564994e+03 
       2.288010639201e-01       1.563838825120e+03 
       2.364533436625e-01       1.472670289539e+03 
       2.443625682390e-01       1.401509918797e+03 
       2.525380678946e-01       1.338419165323e+03 
       2.609898025770e-01       1.270904604559e+03 
       2.697284614969e-01       1.193358352430e+03 
       2.787655775073e-01       1.109321114610e+03 
       2.881136588192e-01       1.028763349936e+03 
       2.977863412019e-01       9.604736041727e+02 
       3.077985646248e-01       9.050158839750e+02 
       3.181667793367e-01       8.561400620356e+02 
       3.289091877084e-01       8.061806864040e+02 
       3.400460298905e-01       7.523838412761e+02 
       3.515999235695e-01       6.989152729393e+02 
       3.635962710278e-01       6.510559286263e+02 
       3.760637505499e-01       6.101182567042e+02 
       3.890349143014e-01       5.721285347677e+02 
       4.025469215929e-01       5.337776345364e+02 
       4.166424455447e-01       4.956239956858e+02 
       4.313708034899e-01       4.604654154891e+02 
       4.467893781976e-01       4.287708603663e+02 
       4.629654198623e-01       3.987696799799e+02 
       4.799783500912e-01       3.692358695666e+02 
       4.979227318246e-01       3.412364723513e+02 
       5.169121269689e-01       3.154789877048e+02 
       5.370841403262e-01       2.908309006143e+02 
       5.586070463286e-01       2.671019103933e+02 
       5.816885093582e-01       2.448052299979e+02 
       6.065870143577e-01       2.235663624849e+02 
       6.336266466978e-01       2.032092028384e+02 
       6.632156057925e-01       1.838778542891e+02 
       6.958678637575e-01       1.653535502273e+02 
       7.322247983784e-01       1.476942955328e+02 
       7.730680193171e-01       1.308332002537e+02 
       8.193049551574e-01       1.148308880135e+02 
       8.718988013754e-01       9.976230432405e+01 
       9.317218028590e-01       8.577748549007e+01 
       9.993660906273e-01       7.305417960156e+01 
       1.075037109879e+00       6.173552468452e+01 
       1.158653485387e+00       5.187884926195e+01 
       1.250099156961e+00       4.343994054911e+01 
       1.349432400897e+00       3.628877859038e+01 
       1.456947456991e+00       3.026774814133e+01 
       1.573135110893e+00       2.521427570665e+01 
       1.698621895119e+00       2.098179216664e+01 
       1.834127512423e+00       1.744208960694e+01 
       1.980444933977e+00       1.448550238179e+01 
       2.138435191130e+00       1.201879976470e+01 
       2.309029198543e+00       9.963008450537e+00 
       2.493232376993e+00       8.251677156153e+00 
       2.692130394536e+00       6.828419277909e+00 
       2.906895533764e+00       5.646083381583e+00 
       3.138793596840e+00       4.664704392262e+00 
       3.389191365541e+00       3.850960195100e+00 
       3.659564656886e+00       3.176819130312e+00 
       3.951507021438e+00       2.618719687319e+00 
       4.266739135513e+00       2.157205639083e+00 
       4.607118942658e+00       1.775771089062e+00 
       4.974652604172e+00       1.460854752814e+00 
       5.371506323193e+00       1.200987064183e+00 
       5.800019112071e+00       9.867528076991e-01 
       6.262716578240e+00       8.102204073752e-01 
       6.762325809881e+00       6.648738499980e-01 
       7.301791449077e+00       5.452982624580e-01 
       7.884293047211e+00       4.469724880841e-01 
       8.513263804891e+00       3.661772654546e-01 
       9.192410806865e+00       2.998220459729e-01 
       9.925736871166e+00       2.453664847448e-01 
       1.071756414128e+01       2.006963710168e-01 
       1.157255956041e+01       1.640743895537e-01 
       1.249576237789e+01       1.340687955890e-01 
       1.349261385000e+01       1.094986303025e-01 
       1.456898931011e+01       8.938715805900e-02 
       1.573123279727e+01       7.293373166689e-02 
       1.698619444729e+01       5.948143764821e-02 
       1.834127086665e+01       4.848674235843e-02 
       1.980444872733e+01       3.950521901647e-02 
       2.138435183937e+01       3.217162206300e-02 
       2.309029197863e+01       2.618657629754e-02 
       2.493232376942e+01       2.130412700837e-02 
       2.692130394533e+01       1.732281223006e-02 
       2.906895533764e+01       1.407795165794e-02 
       3.138793596840e+01       1.143421795695e-02 
       3.389191365541e+01       9.281093049901e-03 
       3.659564656886e+01       7.528553806972e-03 
       3.951507021438e+01       6.102543066335e-03 
       4.266739135513e+01       4.942716646650e-03 
       4.607118942658e+01       3.999838559145e-03 
       4.974652604172e+01       3.233622788716e-03 
       5.371506323193e+01       2.611291971669e-03 
       5.800019112071e+01       2.106015308523e-03 
       6.262716578240e+01       1.696042241756e-03 
       6.762325809881e+01       1.363578730327e-03 
