# Matter power spectrum P(k) at redshift z=0
# for k=1.04775e-05 to 66.1767 h/Mpc,
# number of wavenumbers equal to 130
#    1:k (h/Mpc)              2:P (Mpc/h)^3        
       1.047750691046e-05       5.020964811305e+01 
       1.319039970183e-05       6.270562594782e+01 
       1.660572937635e-05       7.831147247912e+01 
       2.090537469327e-05       9.780108069294e+01 
       2.631830744443e-05       1.221408203809e+02 
       3.313278603720e-05       1.525374501932e+02 
       4.171170630578e-05       1.904975994010e+02 
       5.251192703764e-05       2.379022224249e+02 
       6.610859936996e-05       2.970989227881e+02 
       8.322579568497e-05       3.710167318946e+02 
       1.047750691046e-04       4.633080766742e+02 
       1.319039970183e-04       5.785234129334e+02 
       1.660572937635e-04       7.223242666092e+02 
       2.090537469327e-04       9.017396271824e+02 
       2.631830744443e-04       1.125468123750e+03 
       3.313278603720e-04       1.404223053681e+03 
       4.171170630578e-04       1.751108028790e+03 
       5.251192703764e-04       2.181998448133e+03 
       6.610859936996e-04       2.715889983592e+03 
       8.322579568497e-04       3.375152337134e+03 
       1.047750691046e-03       4.185552174308e+03 
       1.319039970183e-03       5.175742739781e+03 
       1.660572937635e-03       6.376123051777e+03 
       2.090537469327e-03       7.815671914426e+03 
       2.631830744443e-03       9.517783069112e+03 
       3.313278603720e-03       1.149357460344e+04 
       4.171170630578e-03       1.373266009553e+04 
       5.251192703764e-03       1.619063614560e+04 
       6.610859936996e-03       1.877460419942e+04 
       8.322579568497e-03       2.132606912840e+04 
       1.047750691046e-02       2.360548522710e+04 
       1.319039970183e-02       2.528218655503e+04 
       1.660572937633e-02       2.595027770520e+04 
       2.090537453514e-02       2.520936156862e+04 
       2.631818545635e-02       2.287037943094e+04 
       3.311571692125e-02       1.928620848643e+04 
       4.113809243311e-02       1.568430476946e+04 
       4.792590854610e-02       1.361065288364e+04 
       5.284436902701e-02       1.259128552975e+04 
       5.689644391095e-02       1.195553304954e+04 
       6.051252627066e-02       1.147548613826e+04 
       6.388413457411e-02       1.105590691957e+04 
       6.711249296401e-02       1.064900481583e+04 
       7.025823437965e-02       1.022928398901e+04 
       7.336115587705e-02       9.784552310386e+03 
       7.644928796912e-02       9.311663725076e+03 
       7.954353299775e-02       8.814543878390e+03 
       8.266024078725e-02       8.302092501706e+03 
       8.581273398637e-02       7.786957648404e+03 
       8.901225918437e-02       7.283185105941e+03 
       9.226860540985e-02       6.805153416424e+03 
       9.559052048996e-02       6.365650367879e+03 
       9.898599946599e-02       5.974394575919e+03 
       1.024624891378e-01       5.637324100547e+03 
       1.060270359164e-01       5.355760561875e+03 
       1.096863943056e-01       5.126244945694e+03 
       1.134471073830e-01       4.940490488952e+03 
       1.173155669539e-01       4.786170291645e+03 
       1.212980586983e-01       4.647935352966e+03 
       1.254007961065e-01       4.509157787952e+03 
       1.296299459934e-01       4.354556931030e+03 
       1.339916477160e-01       4.173219522553e+03 
       1.384920277736e-01       3.961163799803e+03 
       1.431372111762e-01       3.722689484296e+03 
       1.479333307714e-01       3.469555124086e+03 
       1.528865355934e-01       3.218340871372e+03 
       1.580029992204e-01       2.986287584715e+03 
       1.632889290723e-01       2.786962275406e+03 
       1.687505775527e-01       2.626833546001e+03 
       1.743942559171e-01       2.503758090348e+03 
       1.802263517371e-01       2.407342518770e+03 
       1.862533508214e-01       2.322253149850e+03 
       1.924818644494e-01       2.231552232229e+03 
       1.989186627765e-01       2.122193018108e+03 
       2.055707152847e-01       1.992021243932e+03 
       2.124452391818e-01       1.850323167056e+03 
       2.195497567139e-01       1.712182985917e+03 
       2.268921624510e-01       1.590986517749e+03 
       2.344808017550e-01       1.493667813145e+03 
       2.423245618548e-01       1.418309910890e+03 
       2.504329772620e-01       1.354465806989e+03 
       2.588163516754e-01       1.288932544350e+03 
       2.674858990930e-01       1.213935976925e+03 
       2.764539076010e-01       1.130693110339e+03 
       2.857339303080e-01       1.048099628906e+03 
       2.953410092148e-01       9.761822501479e+02 
       3.052919395542e-01       9.178098411223e+02 
       3.156055844677e-01       8.679010440684e+02 
       3.263032530092e-01       8.185242636611e+02 
       3.374091587054e-01       7.651469806033e+02 
       3.489509817175e-01       7.106729771919e+02 
       3.609605657343e-01       6.607853210092e+02 
       3.734747921333e-01       6.180865559307e+02 
       3.865366902904e-01       5.793113645647e+02 
       4.001968667448e-01       5.403924801047e+02 
       4.145153713076e-01       5.011529477882e+02 
       4.295641718077e-01       4.644982533965e+02 
       4.454304922144e-01       4.314081692201e+02 
       4.622214006969e-01       4.001137763063e+02 
       4.800702491654e-01       3.690902383212e+02 
       4.991459272112e-01       3.394772056054e+02 
       5.196665217302e-01       3.119865069476e+02 
       5.419201087032e-01       2.852466005826e+02 
       5.662975451962e-01       2.593315627054e+02 
       5.933463737275e-01       2.345481436504e+02 
       6.238638458458e-01       2.102311362549e+02 
       6.590669257916e-01       1.864334370436e+02 
       7.009246080454e-01       1.627253589261e+02 
       7.528593308799e-01       1.388186078961e+02 
       8.213469537518e-01       1.141887214139e+02 
       9.196980813302e-01       8.835967115088e+01 
       1.075112183810e+00       6.172622773368e+01 
       1.322697471132e+00       3.804306851268e+01 
       1.662328205042e+00       2.209796624644e+01 
       2.092692408506e+00       1.266918247365e+01 
       2.634543445090e+00       7.203370985524e+00 
       3.316693691389e+00       4.065146643822e+00 
       4.175469971226e+00       2.278614692955e+00 
       5.256605252960e+00       1.269358591956e+00 
       6.617673932723e+00       7.031397794207e-01 
       8.331157880872e+00       3.874791876909e-01 
       1.048830636590e+01       2.125106513000e-01 
       1.320399541071e+01       1.160362926729e-01 
       1.662284535976e+01       6.309899773440e-02 
       2.092692243973e+01       3.417964933278e-02 
       2.634543445002e+01       1.844587917409e-02 
       3.316693691389e+01       9.919179399624e-03 
       4.175469971226e+01       5.314597365437e-03 
       5.256605252960e+01       2.836675853001e-03 
       6.617673932723e+01       1.507687666748e-03 
