# Matter power spectrum P(k) at redshift z=0
# for k=1.04775e-05 to 66.1767 h/Mpc,
# number of wavenumbers equal to 130
#    1:k (h/Mpc)              2:P (Mpc/h)^3        
       1.047750691046e-05       5.020964811308e+01 
       1.319039970183e-05       6.270562594778e+01 
       1.660572937635e-05       7.831147247912e+01 
       2.090537469327e-05       9.780108069296e+01 
       2.631830744443e-05       1.221408203809e+02 
       3.313278603720e-05       1.525374501932e+02 
       4.171170630578e-05       1.904975994010e+02 
       5.251192703764e-05       2.379022224249e+02 
       6.610859936996e-05       2.970989227881e+02 
       8.322579568497e-05       3.710167318945e+02 
       1.047750691046e-04       4.633080766741e+02 
       1.319039970183e-04       5.785234129332e+02 
       1.660572937635e-04       7.223242666091e+02 
       2.090537469327e-04       9.017396271822e+02 
       2.631830744443e-04       1.125468123750e+03 
       3.313278603720e-04       1.404223053680e+03 
       4.171170630578e-04       1.751108028789e+03 
       5.251192703764e-04       2.181998448130e+03 
       6.610859936996e-04       2.715889983585e+03 
       8.322579568497e-04       3.375152337121e+03 
       1.047750691046e-03       4.185552174286e+03 
       1.319039970183e-03       5.175742743052e+03 
       1.660572937635e-03       6.376123051642e+03 
       2.090537469327e-03       7.815671864621e+03 
       2.631830744443e-03       9.517783068642e+03 
       3.313278603720e-03       1.149357460250e+04 
       4.171170630578e-03       1.373266012855e+04 
       5.251192703764e-03       1.619063563436e+04 
       6.610859936996e-03       1.877460436807e+04 
       8.322579568497e-03       2.132611401870e+04 
       1.047750691046e-02       2.360548597793e+04 
       1.319039970183e-02       2.528220032032e+04 
       1.660572937633e-02       2.595034943816e+04 
       2.090537453514e-02       2.520930322836e+04 
       2.631818545635e-02       2.287022680660e+04 
       3.311571692125e-02       1.928616903856e+04 
       4.113809243311e-02       1.568430437922e+04 
       4.792590854610e-02       1.361056307259e+04 
       5.284436902701e-02       1.259124157627e+04 
       5.689644391095e-02       1.195552562913e+04 
       6.051252627066e-02       1.147549905272e+04 
       6.388413457411e-02       1.105566533557e+04 
       6.711249296401e-02       1.064888704562e+04 
       7.025823437965e-02       1.022930014718e+04 
       7.336115587705e-02       9.784560793174e+03 
       7.644928796912e-02       9.311688925358e+03 
       7.954353299775e-02       8.814531271716e+03 
       8.266024078725e-02       8.302180341268e+03 
       8.581273398637e-02       7.786955875779e+03 
       8.901225918437e-02       7.283197975713e+03 
       9.226860540985e-02       6.805221510421e+03 
       9.559052048996e-02       6.365604588863e+03 
       9.898599946599e-02       5.974400541671e+03 
       1.024624891378e-01       5.637330624673e+03 
       1.060270359164e-01       5.355793326144e+03 
       1.096863943056e-01       5.126235573264e+03 
       1.134471073830e-01       4.940465981741e+03 
       1.173155669539e-01       4.786149990921e+03 
       1.212980586983e-01       4.647930885588e+03 
       1.254007961065e-01       4.509041895434e+03 
       1.296299459934e-01       4.354540613704e+03 
       1.339916477160e-01       4.173147237060e+03 
       1.384920277736e-01       3.961171939816e+03 
       1.431372111762e-01       3.722589228756e+03 
       1.479333307714e-01       3.469537040827e+03 
       1.528865355934e-01       3.218319284340e+03 
       1.580029992204e-01       2.986239004887e+03 
       1.632889290723e-01       2.786942593421e+03 
       1.687505775527e-01       2.626807533336e+03 
       1.743942559171e-01       2.503748479404e+03 
       1.802263517371e-01       2.407297230661e+03 
       1.862533508214e-01       2.322245792514e+03 
       1.924818644494e-01       2.231558699187e+03 
       1.989186627765e-01       2.122196968659e+03 
       2.055707152847e-01       1.992035225461e+03 
       2.124452391818e-01       1.850292975507e+03 
       2.195497567139e-01       1.712152947708e+03 
       2.268921624510e-01       1.590960792884e+03 
       2.344808017550e-01       1.493648350050e+03 
       2.423245618548e-01       1.418294634007e+03 
       2.504329772620e-01       1.354434278085e+03 
       2.588163516754e-01       1.288922223238e+03 
       2.674858990930e-01       1.213895044516e+03 
       2.764539076010e-01       1.130672030331e+03 
       2.857339303080e-01       1.048072825407e+03 
       2.953410092148e-01       9.761600573951e+02 
       3.052919395542e-01       9.177892704555e+02 
       3.156055844677e-01       8.678695496074e+02 
       3.263032530092e-01       8.185113489083e+02 
       3.374091587054e-01       7.651236057651e+02 
       3.489509817175e-01       7.106447935074e+02 
       3.609605657343e-01       6.607633737956e+02 
       3.734747921333e-01       6.180625110509e+02 
       3.865366902904e-01       5.792837007028e+02 
       4.001968667448e-01       5.403639448347e+02 
       4.145153713076e-01       5.011234093916e+02 
       4.295641718077e-01       4.644761750730e+02 
       4.454304922144e-01       4.313793507487e+02 
       4.622214006969e-01       4.000866683274e+02 
       4.800702491654e-01       3.690600280172e+02 
       4.991459272112e-01       3.394480514041e+02 
       5.196665217302e-01       3.119540323401e+02 
       5.419201087032e-01       2.852147899510e+02 
       5.662975451962e-01       2.593004735368e+02 
       5.933463737275e-01       2.345158563740e+02 
       6.238638458458e-01       2.101956361191e+02 
       6.590669257916e-01       1.863968992994e+02 
       7.009246080454e-01       1.626855752233e+02 
       7.528593308799e-01       1.387762422934e+02 
       8.213469537518e-01       1.141410331990e+02 
       9.196980813302e-01       8.830485184181e+01 
       1.075112183810e+00       6.166104107899e+01 
       1.322697471132e+00       3.795938943087e+01 
       1.662328205042e+00       2.198918246219e+01 
       2.092692408506e+00       1.252805549929e+01 
       2.634543445090e+00       7.022780994110e+00 
       3.316693691389e+00       3.838726231922e+00 
       4.175469971226e+00       2.003667019491e+00 
       5.256605252960e+00       9.523317768522e-01 
       6.617673932723e+00       3.679764059170e-01 
       8.331157880872e+00       8.236580107268e-02 
       1.048830636590e+01       3.140895414714e-04 
       1.320399541071e+01       2.898804648931e-02 
       1.662284535976e+01       5.007075701765e-02 
       2.092692243973e+01       1.467594476238e-02 
       2.634543445002e+01       1.588063097501e-03 
       3.316693691389e+01       5.265550672340e-03 
       4.175469971226e+01       3.176555113716e-04 
       5.256605252960e+01       1.432466284030e-04 
       6.617673932723e+01       7.547482871820e-05 
