# Matter power spectrum P(k) at redshift z=0
# for k=1.04775e-05 to 66.1767 h/Mpc,
# number of wavenumbers equal to 130
#    1:k (h/Mpc)              2:P (Mpc/h)^3        
       1.047750691046e-05       5.020964811308e+01 
       1.319039970183e-05       6.270562594777e+01 
       1.660572937635e-05       7.831147247912e+01 
       2.090537469327e-05       9.780108069295e+01 
       2.631830744443e-05       1.221408203809e+02 
       3.313278603720e-05       1.525374501932e+02 
       4.171170630578e-05       1.904975994010e+02 
       5.251192703764e-05       2.379022224249e+02 
       6.610859936996e-05       2.970989227882e+02 
       8.322579568497e-05       3.710167318946e+02 
       1.047750691046e-04       4.633080766742e+02 
       1.319039970183e-04       5.785234129336e+02 
       1.660572937635e-04       7.223242666092e+02 
       2.090537469327e-04       9.017396271824e+02 
       2.631830744443e-04       1.125468123750e+03 
       3.313278603720e-04       1.404223053681e+03 
       4.171170630578e-04       1.751108028790e+03 
       5.251192703764e-04       2.181998448133e+03 
       6.610859936996e-04       2.715889983592e+03 
       8.322579568497e-04       3.375152337133e+03 
       1.047750691046e-03       4.185552174311e+03 
       1.319039970183e-03       5.175742744569e+03 
       1.660572937635e-03       6.376123051718e+03 
       2.090537469327e-03       7.815671868399e+03 
       2.631830744443e-03       9.517783069069e+03 
       3.313278603720e-03       1.149357460336e+04 
       4.171170630578e-03       1.373266009382e+04 
       5.251192703764e-03       1.619063609842e+04 
       6.610859936996e-03       1.877460413314e+04 
       8.322579568497e-03       2.132607269183e+04 
       1.047750691046e-02       2.360548894520e+04 
       1.319039970183e-02       2.528218871840e+04 
       1.660572937633e-02       2.595026262777e+04 
       2.090537453514e-02       2.520933407061e+04 
       2.631818545635e-02       2.287030595875e+04 
       3.311571692125e-02       1.928626364784e+04 
       4.113809243311e-02       1.568428561702e+04 
       4.792590854610e-02       1.361061523407e+04 
       5.284436902701e-02       1.259128871802e+04 
       5.689644391095e-02       1.195552762493e+04 
       6.051252627066e-02       1.147553852410e+04 
       6.388413457411e-02       1.105593037890e+04 
       6.711249296401e-02       1.064901261502e+04 
       7.025823437965e-02       1.022934050196e+04 
       7.336115587705e-02       9.784572779765e+03 
       7.644928796912e-02       9.311696215629e+03 
       7.954353299775e-02       8.814571171974e+03 
       8.266024078725e-02       8.302167691844e+03 
       8.581273398637e-02       7.786989423464e+03 
       8.901225918437e-02       7.283248068235e+03 
       9.226860540985e-02       6.805194776149e+03 
       9.559052048996e-02       6.365610751008e+03 
       9.898599946599e-02       5.974429551844e+03 
       1.024624891378e-01       5.637366737558e+03 
       1.060270359164e-01       5.355793034050e+03 
       1.096863943056e-01       5.126241437108e+03 
       1.134471073830e-01       4.940515971436e+03 
       1.173155669539e-01       4.786148362926e+03 
       1.212980586983e-01       4.647939119882e+03 
       1.254007961065e-01       4.509061992709e+03 
       1.296299459934e-01       4.354546164645e+03 
       1.339916477160e-01       4.173169864077e+03 
       1.384920277736e-01       3.961075753331e+03 
       1.431372111762e-01       3.722695256966e+03 
       1.479333307714e-01       3.469555932381e+03 
       1.528865355934e-01       3.218319534435e+03 
       1.580029992204e-01       2.986242169113e+03 
       1.632889290723e-01       2.786943482638e+03 
       1.687505775527e-01       2.626803686534e+03 
       1.743942559171e-01       2.503754355891e+03 
       1.802263517371e-01       2.407304334853e+03 
       1.862533508214e-01       2.322258914653e+03 
       1.924818644494e-01       2.231569833834e+03 
       1.989186627765e-01       2.122159647386e+03 
       2.055707152847e-01       1.992047129672e+03 
       2.124452391818e-01       1.850299672629e+03 
       2.195497567139e-01       1.712165614241e+03 
       2.268921624510e-01       1.590970645109e+03 
       2.344808017550e-01       1.493654183427e+03 
       2.423245618548e-01       1.418305440532e+03 
       2.504329772620e-01       1.354446478274e+03 
       2.588163516754e-01       1.288932793824e+03 
       2.674858990930e-01       1.213907018157e+03 
       2.764539076010e-01       1.130681583304e+03 
       2.857339303080e-01       1.048087402285e+03 
       2.953410092148e-01       9.761733969526e+02 
       3.052919395542e-01       9.178011592929e+02 
       3.156055844677e-01       8.678815053515e+02 
       3.263032530092e-01       8.185242898677e+02 
       3.374091587054e-01       7.651468291218e+02 
       3.489509817175e-01       7.106594296477e+02 
       3.609605657343e-01       6.607769766138e+02 
       3.734747921333e-01       6.180807249234e+02 
       3.865366902904e-01       5.793002931000e+02 
       4.001968667448e-01       5.403821869600e+02 
       4.145153713076e-01       5.011431907971e+02 
       4.295641718077e-01       4.644961217725e+02 
       4.454304922144e-01       4.314003382807e+02 
       4.622214006969e-01       4.001086101121e+02 
       4.800702491654e-01       3.690827400801e+02 
       4.991459272112e-01       3.394703583796e+02 
       5.196665217302e-01       3.119796503758e+02 
       5.419201087032e-01       2.852423791418e+02 
       5.662975451962e-01       2.593258335675e+02 
       5.933463737275e-01       2.345440583269e+02 
       6.238638458458e-01       2.102287981671e+02 
       6.590669257916e-01       1.864321610138e+02 
       7.009246080454e-01       1.627238423968e+02 
       7.528593308799e-01       1.388172814599e+02 
       8.213469537518e-01       1.141872586547e+02 
       9.196980813302e-01       8.835812614095e+01 
       1.075112183810e+00       6.172513243191e+01 
       1.322697471132e+00       3.804240681913e+01 
       1.662328205042e+00       2.209733343829e+01 
       2.092692408506e+00       1.266851836696e+01 
       2.634543445090e+00       7.202703997765e+00 
       3.316693691389e+00       4.064549657959e+00 
       4.175469971226e+00       2.278062757662e+00 
       5.256605252960e+00       1.268822548027e+00 
       6.617673932723e+00       7.026370840851e-01 
       8.331157880872e+00       3.870149200212e-01 
       1.048830636590e+01       2.120766905805e-01 
       1.320399541071e+01       1.156352649149e-01 
       1.662284535976e+01       6.272894620029e-02 
       2.092692243973e+01       3.384115900222e-02 
       2.634543445002e+01       1.813848392586e-02 
       3.316693691389e+01       9.641397104746e-03 
       4.175469971226e+01       5.065935209026e-03 
       5.256605252960e+01       2.616435621524e-03 
       6.617673932723e+01       1.315418324131e-03 
