# Matter power spectrum P(k) at redshift z=0
# for k=1.04775e-05 to 66.1767 h/Mpc,
# number of wavenumbers equal to 130
#    1:k (h/Mpc)              2:P (Mpc/h)^3        
       1.047750691046e-05       5.020964811307e+01 
       1.319039970183e-05       6.270562594784e+01 
       1.660572937635e-05       7.831147247912e+01 
       2.090537469327e-05       9.780108069296e+01 
       2.631830744443e-05       1.221408203809e+02 
       3.313278603720e-05       1.525374501932e+02 
       4.171170630578e-05       1.904975994010e+02 
       5.251192703764e-05       2.379022224247e+02 
       6.610859936996e-05       2.970989227882e+02 
       8.322579568497e-05       3.710167318944e+02 
       1.047750691046e-04       4.633080766740e+02 
       1.319039970183e-04       5.785234129333e+02 
       1.660572937635e-04       7.223242666082e+02 
       2.090537469327e-04       9.017396271804e+02 
       2.631830744443e-04       1.125468123746e+03 
       3.313278603720e-04       1.404223053673e+03 
       4.171170630578e-04       1.751108028774e+03 
       5.251192703764e-04       2.181998448102e+03 
       6.610859936996e-04       2.715889983531e+03 
       8.322579568497e-04       3.375152337013e+03 
       1.047750691046e-03       4.185552174051e+03 
       1.319039970183e-03       5.175742740192e+03 
       1.660572937635e-03       6.376123050731e+03 
       2.090537469327e-03       7.815671863849e+03 
       2.631830744443e-03       9.517783064654e+03 
       3.313278603720e-03       1.149357459429e+04 
       4.171170630578e-03       1.373266017116e+04 
       5.251192703764e-03       1.619063106006e+04 
       6.610859936996e-03       1.877460528691e+04 
       8.322579568497e-03       2.132610287930e+04 
       1.047750691046e-02       2.360546063337e+04 
       1.319039970183e-02       2.528229205016e+04 
       1.660572937633e-02       2.595019865534e+04 
       2.090537453514e-02       2.520923723375e+04 
       2.631818545635e-02       2.287011558856e+04 
       3.311571692125e-02       1.928587558365e+04 
       4.113809243311e-02       1.568378798818e+04 
       4.792590854610e-02       1.360988749781e+04 
       5.284436902701e-02       1.259040141147e+04 
       5.689644391095e-02       1.195444845233e+04 
       6.051252627066e-02       1.147422720565e+04 
       6.388413457411e-02       1.105446400957e+04 
       6.711249296401e-02       1.064735487789e+04 
       7.025823437965e-02       1.022744350962e+04 
       7.336115587705e-02       9.782415930719e+03 
       7.644928796912e-02       9.309339865294e+03 
       7.954353299775e-02       8.812002527246e+03 
       8.266024078725e-02       8.299340747077e+03 
       8.581273398637e-02       7.783902473111e+03 
       8.901225918437e-02       7.279952614730e+03 
       9.226860540985e-02       6.801689447184e+03 
       9.559052048996e-02       6.361864556331e+03 
       9.898599946599e-02       5.970356495248e+03 
       1.024624891378e-01       5.633051640978e+03 
       1.060270359164e-01       5.351184482347e+03 
       1.096863943056e-01       5.121321034306e+03 
       1.134471073830e-01       4.935226530329e+03 
       1.173155669539e-01       4.780494208892e+03 
       1.212980586983e-01       4.641854296639e+03 
       1.254007961065e-01       4.502599724997e+03 
       1.296299459934e-01       4.347530385956e+03 
       1.339916477160e-01       4.165685383097e+03 
       1.384920277736e-01       3.953146823117e+03 
       1.431372111762e-01       3.714117755024e+03 
       1.479333307714e-01       3.460505398333e+03 
       1.528865355934e-01       3.208787897952e+03 
       1.580029992204e-01       2.976213916435e+03 
       1.632889290723e-01       2.776344017447e+03 
       1.687505775527e-01       2.615591966713e+03 
       1.743942559171e-01       2.491867540215e+03 
       1.802263517371e-01       2.394670098266e+03 
       1.862533508214e-01       2.308743027860e+03 
       1.924818644494e-01       2.217155869830e+03 
       1.989186627765e-01       2.106916977974e+03 
       2.055707152847e-01       1.975887817922e+03 
       2.124452391818e-01       1.833374173298e+03 
       2.195497567139e-01       1.694400815251e+03 
       2.268921624510e-01       1.572333249615e+03 
       2.344808017550e-01       1.474047080814e+03 
       2.423245618548e-01       1.397575222937e+03 
       2.504329772620e-01       1.332523850866e+03 
       2.588163516754e-01       1.265737852315e+03 
       2.674858990930e-01       1.189511629549e+03 
       2.764539076010e-01       1.105101708053e+03 
       2.857339303080e-01       1.021357513662e+03 
       2.953410092148e-01       9.482029307422e+02 
       3.052919395542e-01       8.884323832299e+02 
       3.156055844677e-01       8.369986170463e+02 
       3.263032530092e-01       7.860671740937e+02 
       3.374091587054e-01       7.311800845169e+02 
       3.489509817175e-01       6.752312218733e+02 
       3.609605657343e-01       6.238074372451e+02 
       3.734747921333e-01       5.794097894571e+02 
       3.865366902904e-01       5.388372252547e+02 
       4.001968667448e-01       4.981234826935e+02 
       4.145153713076e-01       4.571203918624e+02 
       4.295641718077e-01       4.186441953727e+02 
       4.454304922144e-01       3.836005337114e+02 
       4.622214006969e-01       3.502896995855e+02 
       4.800702491654e-01       3.172706212067e+02 
       4.991459272112e-01       2.856213247469e+02 
       5.196665217302e-01       2.559913646641e+02 
       5.419201087032e-01       2.271075360160e+02 
       5.662975451962e-01       1.990391029982e+02 
       5.933463737275e-01       1.720635117291e+02 
       6.238638458458e-01       1.456057901464e+02 
       6.590669257916e-01       1.197431938835e+02 
       7.009246080454e-01       9.419036161434e+01 
       7.528593308799e-01       6.890672193237e+01 
       8.213469537518e-01       4.399999746576e+01 
       9.196980813302e-01       2.062856087547e+01 
       1.075112183810e+00       3.389557401569e+00 
       1.322697471132e+00       1.347416679381e+00 
       1.662328205042e+00       9.172188469336e+00 
       2.092692408506e+00       6.902197419539e+00 
       2.634543445090e+00       1.379707874016e-01 
       3.316693691389e+00       1.510557742403e+00 
       4.175469971226e+00       8.540373987585e-02 
       5.256605252960e+00       2.503846162081e-01 
       6.617673932723e+00       4.976112926857e-02 
       8.331157880872e+00       8.976931039030e-03 
       1.048830636590e+01       2.372513825278e-03 
       1.320399541071e+01       3.782268144033e-05 
       1.662284535976e+01       1.560390144298e-05 
       2.092692243973e+01       3.741821921481e-07 
       2.634543445002e+01       5.157764962548e-09 
       3.316693691389e+01       4.067894185031e-10 
       4.175469971226e+01       3.772670264945e-11 
       5.256605252960e+01       6.551390472675e-12 
       6.617673932723e+01       8.327584057630e-13 
