# Matter power spectrum P(k) at redshift z=99
# for k=1.04775e-05 to 66.1767 h/Mpc,
# number of wavenumbers equal to 130
#    1:k (h/Mpc)              2:P (Mpc/h)^3        
       1.047750691046e-05       7.261927681956e-03 
       1.319039970183e-05       9.069258203216e-03 
       1.660572937635e-05       1.132639106896e-02 
       2.090537469327e-05       1.414527123612e-02 
       2.631830744443e-05       1.766569584324e-02 
       3.313278603720e-05       2.206225516275e-02 
       4.171170630578e-05       2.755297766692e-02 
       5.251192703764e-05       3.441013523466e-02 
       6.610859936996e-05       4.297372173424e-02 
       8.322579568497e-05       5.366826853750e-02 
       1.047750691046e-04       6.702379873780e-02 
       1.319039970183e-04       8.370193442539e-02 
       1.660572937635e-04       1.045283355540e-01 
       2.090537469327e-04       1.305329134297e-01 
       2.631830744443e-04       1.629994506844e-01 
       3.313278603720e-04       2.035264004894e-01 
       4.171170630578e-04       2.541004744598e-01 
       5.251192703764e-04       3.171839528979e-01 
       6.610859936996e-04       3.958147257000e-01 
       8.322579568497e-04       4.937136006785e-01 
       1.047750691046e-03       6.153841636538e-01 
       1.319039970183e-03       7.661720592933e-01 
       1.660572937635e-03       9.522588016114e-01 
       2.090537469327e-03       1.180312991488e+00 
       2.631830744443e-03       1.456802684092e+00 
       3.313278603720e-03       1.786503852640e+00 
       4.171170630578e-03       2.169896190466e+00 
       5.251192703764e-03       2.599430624413e+00 
       6.610859936996e-03       3.055668702705e+00 
       8.322579568497e-03       3.505725133185e+00 
       1.047750691046e-02       3.905490240822e+00 
       1.319039970183e-02       4.200915233004e+00 
       1.660572937633e-02       4.325063563748e+00 
       2.090537453514e-02       4.210205720431e+00 
       2.631818545635e-02       3.825154400826e+00 
       3.311571692125e-02       3.229060640448e+00 
       4.113809243311e-02       2.627729072731e+00 
       4.792590854610e-02       2.280792710604e+00 
       5.284436902701e-02       2.110083973578e+00 
       5.689644391095e-02       2.003539425411e+00 
       6.051252627066e-02       1.923056318318e+00 
       6.388413457411e-02       1.852730683028e+00 
       6.711249296401e-02       1.784562897625e+00 
       7.025823437965e-02       1.714273447760e+00 
       7.336115587705e-02       1.639814625527e+00 
       7.644928796912e-02       1.560657937605e+00 
       7.954353299775e-02       1.477455281656e+00 
       8.266024078725e-02       1.391692473137e+00 
       8.581273398637e-02       1.305456140237e+00 
       8.901225918437e-02       1.221123714296e+00 
       9.226860540985e-02       1.141076901314e+00 
       9.559052048996e-02       1.067448038589e+00 
       9.898599946599e-02       1.001887843072e+00 
       1.024624891378e-01       9.453767291321e-01 
       1.060270359164e-01       8.981466677490e-01 
       1.096863943056e-01       8.596089964320e-01 
       1.134471073830e-01       8.284002831538e-01 
       1.173155669539e-01       8.024616671012e-01 
       1.212980586983e-01       7.792237986397e-01 
       1.254007961065e-01       7.559107730147e-01 
       1.296299459934e-01       7.299762295305e-01 
       1.339916477160e-01       6.995872494624e-01 
       1.384920277736e-01       6.640735666256e-01 
       1.431372111762e-01       6.241406131761e-01 
       1.479333307714e-01       5.817584405831e-01 
       1.528865355934e-01       5.396825097136e-01 
       1.580029992204e-01       5.008051085128e-01 
       1.632889290723e-01       4.673899445109e-01 
       1.687505775527e-01       4.405254990073e-01 
       1.743942559171e-01       4.198563279042e-01 
       1.802263517371e-01       4.036489590595e-01 
       1.862533508214e-01       3.893512366122e-01 
       1.924818644494e-01       3.741281319931e-01 
       1.989186627765e-01       3.557956487199e-01 
       2.055707152847e-01       3.339910247403e-01 
       2.124452391818e-01       3.102528411313e-01 
       2.195497567139e-01       2.871100021209e-01 
       2.268921624510e-01       2.667945545191e-01 
       2.344808017550e-01       2.504686487026e-01 
       2.423245618548e-01       2.378183504981e-01 
       2.504329772620e-01       2.270963724312e-01 
       2.588163516754e-01       2.161034089236e-01 
       2.674858990930e-01       2.035303764747e-01 
       2.764539076010e-01       1.895798252019e-01 
       2.857339303080e-01       1.757385021007e-01 
       2.953410092148e-01       1.636802283497e-01 
       3.052919395542e-01       1.538865967562e-01 
       3.156055844677e-01       1.455102135200e-01 
       3.263032530092e-01       1.372287997354e-01 
       3.374091587054e-01       1.282795042410e-01 
       3.489509817175e-01       1.191481154677e-01 
       3.609605657343e-01       1.107836234471e-01 
       3.734747921333e-01       1.036200714505e-01 
       3.865366902904e-01       9.711518181182e-02 
       4.001968667448e-01       9.058854096109e-02 
       4.145153713076e-01       8.400858275699e-02 
       4.295641718077e-01       7.786183677062e-02 
       4.454304922144e-01       7.231096015368e-02 
       4.622214006969e-01       6.706162680309e-02 
       4.800702491654e-01       6.185827495645e-02 
       4.991459272112e-01       5.689119621241e-02 
       5.196665217302e-01       5.227946962846e-02 
       5.419201087032e-01       4.779413645776e-02 
       5.662975451962e-01       4.344644147680e-02 
       5.933463737275e-01       3.928836351530e-02 
       6.238638458458e-01       3.520817019533e-02 
       6.590669257916e-01       3.121478072291e-02 
       7.009246080454e-01       2.723577587635e-02 
       7.528593308799e-01       2.322261466946e-02 
       8.213469537518e-01       1.908663698464e-02 
       9.196980813302e-01       1.474716978930e-02 
       1.075112183810e+00       1.026792344553e-02 
       1.322697471132e+00       6.275800525711e-03 
       1.662328205042e+00       3.574772482639e-03 
       2.092692408506e+00       1.962444397913e-03 
       2.634543445090e+00       1.014240879984e-03 
       3.316693691389e+00       4.636808938758e-04 
       4.175469971226e+00       1.606170297711e-04 
       5.256605252960e+00       2.456600846847e-05 
       6.617673932723e+00       1.701906780187e-06 
       8.331157880872e+00       2.530055434590e-05 
       1.048830636590e+01       2.449251318818e-05 
       1.320399541071e+01       2.198524043121e-06 
       1.662284535976e+01       2.642949692944e-06 
       2.092692243973e+01       7.527744800334e-07 
       2.634543445002e+01       3.251300968368e-07 
       3.316693691389e+01       1.037958170867e-08 
       4.175469971226e+01       4.957807597552e-10 
       5.256605252960e+01       4.949156270064e-11 
       6.617673932723e+01       2.026992550936e-11 
