# Matter power spectrum P(k) at redshift z=99
# for k=1.04775e-05 to 67.6233 h/Mpc,
# number of wavenumbers equal to 246
#    1:k (h/Mpc)              2:P (Mpc/h)^3        
       1.047750691046e-05       7.261927680917e-03 
       1.131335172503e-05       7.820331652491e-03 
       1.221587619537e-05       8.421675995517e-03 
       1.319039970183e-05       9.069258201917e-03 
       1.424266597921e-05       9.766638412207e-03 
       1.537887696968e-05       1.051764070809e-02 
       1.660572937635e-05       1.132639106734e-02 
       1.793045413292e-05       1.219733232724e-02 
       1.936085902198e-05       1.313524225789e-02 
       2.090537469327e-05       1.414527123410e-02 
       2.257310435294e-05       1.523296273835e-02 
       2.437387741694e-05       1.640429446301e-02 
       2.631830744443e-05       1.766569584072e-02 
       2.841785469300e-05       1.902408737019e-02 
       3.068489366414e-05       2.048692972788e-02 
       3.313278603720e-05       2.206225515959e-02 
       3.577595942169e-05       2.375870707456e-02 
       3.862999239199e-05       2.558560730222e-02 
       4.171170630578e-05       2.755297766298e-02 
       4.503926444729e-05       2.967161930496e-02 
       4.863227907969e-05       3.195316454257e-02 
       5.251192703764e-05       3.441013522973e-02 
       5.670107454120e-05       3.705601726499e-02 
       6.122441196689e-05       3.990533417826e-02 
       6.610859936996e-05       4.297372172810e-02 
       7.138242361596e-05       4.627802146649e-02 
       7.707696804727e-05       4.983636199502e-02 
       8.322579568497e-05       5.366826852985e-02 
       8.986514704559e-05       5.779476400764e-02 
       9.703415373875e-05       6.223848250557e-02 
       1.047750691046e-04       6.702379872825e-02 
       1.131335172503e-04       7.217695161118e-02 
       1.221587619537e-04       7.772619081906e-02 
       1.319039970183e-04       8.370193441349e-02 
       1.424266597921e-04       9.013692517210e-02 
       1.537887696968e-04       9.706641252975e-02 
       1.660572937635e-04       1.045283355392e-01 
       1.793045413292e-04       1.125635350275e-01 
       1.936085902198e-04       1.212159616268e-01 
       2.090537469327e-04       1.305329134114e-01 
       2.257310435294e-04       1.405652847721e-01 
       2.437387741694e-04       1.513678304162e-01 
       2.631830744443e-04       1.629994506617e-01 
       2.841785469300e-04       1.755234923105e-01 
       3.068489366414e-04       1.890080672439e-01 
       3.313278603720e-04       2.035264004616e-01 
       3.577595942169e-04       2.191571806029e-01 
       3.862999239199e-04       2.359849440121e-01 
       4.171170630578e-04       2.541004744261e-01 
       4.503926444729e-04       2.736012083208e-01 
       4.863227907969e-04       2.945916794120e-01 
       5.251192703764e-04       3.171839528579e-01 
       5.670107454121e-04       3.414980767657e-01 
       6.122441196689e-04       3.676625417035e-01 
       6.610859936996e-04       3.958147256538e-01 
       7.138242361596e-04       4.261013289383e-01 
       7.707696804727e-04       4.586787797377e-01 
       8.322579568497e-04       4.937136006305e-01 
       8.986514704559e-04       5.313826807076e-01 
       9.703415373875e-04       5.718734978260e-01 
       1.047750691046e-03       6.153841636064e-01 
       1.131335172503e-03       6.621233246519e-01 
       1.221587619537e-03       7.123098228018e-01 
       1.319039970183e-03       7.661720592908e-01 
       1.424266597921e-03       8.239546306473e-01 
       1.537887696968e-03       8.859011182848e-01 
       1.660572937635e-03       9.522588016368e-01 
       1.793045413292e-03       1.023280100898e+00 
       1.936085902198e-03       1.099216305734e+00 
       2.090537469327e-03       1.180312991689e+00 
       2.257310435294e-03       1.266804117171e+00 
       2.437387741694e-03       1.358904854814e+00 
       2.631830744443e-03       1.456802684656e+00 
       2.841785469300e-03       1.560646892116e+00 
       3.068489366414e-03       1.670536064190e+00 
       3.313278603720e-03       1.786503853970e+00 
       3.577595942169e-03       1.908502932677e+00 
       3.862999239199e-03       2.036387732696e+00 
       4.171170630578e-03       2.169896195787e+00 
       4.503926444729e-03       2.308631881162e+00 
       4.863227907969e-03       2.452047293208e+00 
       5.251192703764e-03       2.599430630403e+00 
       5.670107454120e-03       2.749896934176e+00 
       6.122441196689e-03       2.902386515765e+00 
       6.610859936996e-03       3.055668706178e+00 
       7.138242361596e-03       3.208356463859e+00 
       7.707696804727e-03       3.358923894760e+00 
       8.322579568496e-03       3.505725125349e+00 
       8.986514704559e-03       3.647009252100e+00 
       9.703415373875e-03       3.780923305889e+00 
       1.047750691046e-02       3.905490758587e+00 
       1.131335172503e-02       4.018587641926e+00 
       1.221587619537e-02       4.117901588817e+00 
       1.319039970183e-02       4.200915454073e+00 
       1.424266597920e-02       4.264943233233e+00 
       1.537887696964e-02       4.307218078851e+00 
       1.660572937560e-02       4.325062789145e+00 
       1.793045412207e-02       4.316056825224e+00 
       1.936085889642e-02       4.278232037160e+00 
       2.090537351881e-02       4.210199415550e+00 
       2.257309534705e-02       4.111421123298e+00 
       2.437382002240e-02       3.982418942428e+00 
       2.631799943729e-02       3.825167083727e+00 
       2.841644544598e-02       3.643277720648e+00 
       3.067933354524e-02       3.442193921580e+00 
       3.311368469821e-02       3.229241929247e+00 
       3.571840442514e-02       3.013508765485e+00 
       3.847720347390e-02       2.805275464829e+00 
       4.135335537314e-02       2.614416302273e+00 
       4.429361666563e-02       2.448136819561e+00 
       4.724366437916e-02       2.309238092923e+00 
       5.016480834039e-02       2.196112254481e+00 
       5.303989618930e-02       2.104363905355e+00 
       5.586870668205e-02       2.028461560867e+00 
       5.866042679206e-02       1.963156690773e+00 
       6.142798931504e-02       1.903784336831e+00 
       6.418496438662e-02       1.846477454376e+00 
       6.694418832236e-02       1.788197879606e+00 
       6.971731104453e-02       1.726717452378e+00 
       7.251476154108e-02       1.660654105329e+00 
       7.534587669814e-02       1.589469378344e+00 
       7.821907664495e-02       1.513439524264e+00 
       8.114203771084e-02       1.433568472964e+00 
       8.412184533139e-02       1.351491878510e+00 
       8.716512277352e-02       1.269276731876e+00 
       9.027813693913e-02       1.189196660200e+00 
       9.346688429613e-02       1.113500529195e+00 
       9.673716026122e-02       1.044174980898e+00 
       1.000946150608e-01       9.827079022833e-01 
       1.035447986307e-01       9.299373650412e-01 
       1.070931966524e-01       8.859590668976e-01 
       1.107452594180e-01       8.500693941727e-01 
       1.145064248899e-01       8.208035507708e-01 
       1.183821370656e-01       7.960240215142e-01 
       1.223778605591e-01       7.731447130428e-01 
       1.264990921707e-01       7.494509969122e-01 
       1.307513701078e-01       7.225581916198e-01 
       1.351402814485e-01       6.909094653570e-01 
       1.396714683894e-01       6.541827398555e-01 
       1.443506337875e-01       6.134273783868e-01 
       1.491835464900e-01       5.708695010060e-01 
       1.541760469368e-01       5.293640001893e-01 
       1.593340535209e-01       4.917108003579e-01 
       1.646635701934e-01       4.599191317637e-01 
       1.701706958081e-01       4.347283097626e-01 
       1.758616357070e-01       4.154073469912e-01 
       1.817427160581e-01       3.999361524098e-01 
       1.878204014651e-01       3.856859888184e-01 
       1.941013163855e-01       3.698132775942e-01 
       2.005922709060e-01       3.505508863157e-01 
       2.073002914514e-01       3.280461102502e-01 
       2.142326570343e-01       3.042127672931e-01 
       2.213969417044e-01       2.816108865916e-01 
       2.288010639201e-01       2.622563510453e-01 
       2.364533436625e-01       2.469608768151e-01 
       2.443625682390e-01       2.350121298131e-01 
       2.525380678946e-01       2.244196781128e-01 
       2.609898025770e-01       2.130954563629e-01 
       2.697284614969e-01       2.001019415652e-01 
       2.787655775073e-01       1.860191485477e-01 
       2.881136588192e-01       1.725160963166e-01 
       2.977863412019e-01       1.610655220991e-01 
       3.077985646248e-01       1.517604734946e-01 
       3.181667793367e-01       1.435588132919e-01 
       3.289091877084e-01       1.351812180233e-01 
       3.400460298905e-01       1.261635240881e-01 
       3.515999235695e-01       1.172014057264e-01 
       3.635962710278e-01       1.091763432286e-01 
       3.760637505499e-01       1.023089463196e-01 
       3.890349143014e-01       9.593716846687e-02 
       4.025469215929e-01       8.950707588053e-02 
       4.166424455447e-01       8.311131596992e-02 
       4.313708034899e-01       7.721483265783e-02 
       4.467893781976e-01       7.190009806751e-02 
       4.629654198623e-01       6.686848183054e-02 
       4.799783500912e-01       6.191701447491e-02 
       4.979227318246e-01       5.722169765870e-02 
       5.169121269689e-01       5.290209632899e-02 
       5.370841403262e-01       4.876922520469e-02 
       5.586070463286e-01       4.479028417012e-02 
       5.816885093582e-01       4.105129503888e-02 
       6.065870143577e-01       3.748931005881e-02 
       6.336266466978e-01       3.407559852964e-02 
       6.632156057925e-01       3.083396991006e-02 
       6.958678637575e-01       2.772773948536e-02 
       7.322247983784e-01       2.476644821746e-02 
       7.730680193171e-01       2.193887208030e-02 
       8.193049551574e-01       1.925556585399e-02 
       8.718988013754e-01       1.672869535927e-02 
       9.317218028590e-01       1.438354991136e-02 
       9.993660906273e-01       1.225000208540e-02 
       1.075037109879e+00       1.035196759316e-02 
       1.158653485387e+00       8.699074433844e-03 
       1.250099156961e+00       7.283941854954e-03 
       1.349432400897e+00       6.084827857744e-03 
       1.456947456991e+00       5.075102509316e-03 
       1.573135110893e+00       4.227665731416e-03 
       1.698621895119e+00       3.517904056598e-03 
       1.834127512423e+00       2.924347573325e-03 
       1.980444933977e+00       2.428523344820e-03 
       2.138435191130e+00       2.014874021450e-03 
       2.309029198543e+00       1.670144629404e-03 
       2.493232376993e+00       1.383164784299e-03 
       2.692130394536e+00       1.144505840761e-03 
       2.906895533764e+00       9.462401792606e-04 
       3.138793596840e+00       7.816840624128e-04 
       3.389191365541e+00       6.452186455176e-04 
       3.659564656886e+00       5.321682144090e-04 
       3.951507021438e+00       4.385931632359e-04 
       4.266739135513e+00       3.612062084032e-04 
       4.607118942658e+00       2.972511848115e-04 
       4.974652604172e+00       2.444440509987e-04 
       5.371506323193e+00       2.008758549811e-04 
       5.800019112071e+00       1.649562693568e-04 
       6.262716578240e+00       1.353627348729e-04 
       6.762325809881e+00       1.109983947667e-04 
       7.301791449077e+00       9.095432559364e-05 
       7.884293047211e+00       7.447443964689e-05 
       8.513263804891e+00       6.093417875848e-05 
       9.192410806865e+00       4.981605278837e-05 
       9.925736871166e+00       4.069346390688e-05 
       1.071756414128e+01       3.321171964867e-05 
       1.157255956041e+01       2.707987645851e-05 
       1.249576237789e+01       2.205740149783e-05 
       1.349261385000e+01       1.794629783345e-05 
       1.456898931011e+01       1.458282044122e-05 
       1.573123279727e+01       1.183316782947e-05 
       1.698619444729e+01       9.586384448149e-06 
       1.834127086665e+01       7.751903531223e-06 
       1.980444872733e+01       6.255026214535e-06 
       2.138435183937e+01       5.034515481069e-06 
       2.309029197863e+01       4.040107095996e-06 
       2.493232376942e+01       3.230740809825e-06 
       2.692130394533e+01       2.572606229213e-06 
       2.906895533764e+01       2.038218263882e-06 
       3.138793596840e+01       1.604949150563e-06 
       3.389191365541e+01       1.254383834096e-06 
       3.659564656886e+01       9.714900818006e-07 
       3.951507021438e+01       7.440090765970e-07 
       4.266739135513e+01       5.619671659006e-07 
       4.607118942658e+01       4.172186291221e-07 
       4.974652604172e+01       3.031669076177e-07 
       5.371506323193e+01       2.143962429779e-07 
       5.800019112071e+01       1.464724659200e-07 
       6.262716578240e+01       9.569993331380e-08 
       6.762325809881e+01       5.896230523928e-08 
