# Matter power spectrum P(k) at redshift z=99
# for k=1.04775e-05 to 67.6233 h/Mpc,
# number of wavenumbers equal to 246
#    1:k (h/Mpc)              2:P (Mpc/h)^3        
       1.047750691046e-05       7.261927681992e-03 
       1.131335172503e-05       7.820331653649e-03 
       1.221587619537e-05       8.421675996765e-03 
       1.319039970183e-05       9.069258203260e-03 
       1.424266597921e-05       9.766638413653e-03 
       1.537887696968e-05       1.051764070965e-02 
       1.660572937635e-05       1.132639106902e-02 
       1.793045413292e-05       1.219733232905e-02 
       1.936085902198e-05       1.313524225983e-02 
       2.090537469327e-05       1.414527123619e-02 
       2.257310435294e-05       1.523296274060e-02 
       2.437387741694e-05       1.640429446543e-02 
       2.631830744443e-05       1.766569584333e-02 
       2.841785469300e-05       1.902408737301e-02 
       3.068489366414e-05       2.048692973091e-02 
       3.313278603720e-05       2.206225516286e-02 
       3.577595942169e-05       2.375870707808e-02 
       3.862999239199e-05       2.558560730600e-02 
       4.171170630578e-05       2.755297766705e-02 
       4.503926444729e-05       2.967161930936e-02 
       4.863227907969e-05       3.195316454730e-02 
       5.251192703764e-05       3.441013523483e-02 
       5.670107454120e-05       3.705601727051e-02 
       6.122441196689e-05       3.990533418419e-02 
       6.610859936996e-05       4.297372173445e-02 
       7.138242361596e-05       4.627802147334e-02 
       7.707696804727e-05       4.983636200238e-02 
       8.322579568497e-05       5.366826853777e-02 
       8.986514704559e-05       5.779476401617e-02 
       9.703415373875e-05       6.223848251475e-02 
       1.047750691046e-04       6.702379873813e-02 
       1.131335172503e-04       7.217695162181e-02 
       1.221587619537e-04       7.772619083049e-02 
       1.319039970183e-04       8.370193442579e-02 
       1.424266597921e-04       9.013692518532e-02 
       1.537887696968e-04       9.706641254398e-02 
       1.660572937635e-04       1.045283355545e-01 
       1.793045413292e-04       1.125635350439e-01 
       1.936085902198e-04       1.212159616444e-01 
       2.090537469327e-04       1.305329134303e-01 
       2.257310435294e-04       1.405652847925e-01 
       2.437387741694e-04       1.513678304381e-01 
       2.631830744443e-04       1.629994506852e-01 
       2.841785469300e-04       1.755234923356e-01 
       3.068489366414e-04       1.890080672707e-01 
       3.313278603720e-04       2.035264004904e-01 
       3.577595942169e-04       2.191571806336e-01 
       3.862999239199e-04       2.359849440451e-01 
       4.171170630578e-04       2.541004744609e-01 
       4.503926444729e-04       2.736012083579e-01 
       4.863227907969e-04       2.945916794513e-01 
       5.251192703764e-04       3.171839528993e-01 
       5.670107454121e-04       3.414980768095e-01 
       6.122441196689e-04       3.676625417494e-01 
       6.610859936996e-04       3.958147257016e-01 
       7.138242361596e-04       4.261013289878e-01 
       7.707696804727e-04       4.586787797885e-01 
       8.322579568497e-04       4.937136006832e-01 
       8.986514704559e-04       5.313826807596e-01 
       9.703415373875e-04       5.718734978771e-01 
       1.047750691046e-03       6.153841636555e-01 
       1.131335172503e-03       6.621233246971e-01 
       1.221587619537e-03       7.123098228412e-01 
       1.319039970183e-03       7.661720592649e-01 
       1.424266597921e-03       8.239546306616e-01 
       1.537887696968e-03       8.859011182775e-01 
       1.660572937635e-03       9.522588016007e-01 
       1.793045413292e-03       1.023280100818e+00 
       1.936085902198e-03       1.099216305599e+00 
       2.090537469327e-03       1.180312991481e+00 
       2.257310435294e-03       1.266804116867e+00 
       2.437387741694e-03       1.358904854390e+00 
       2.631830744443e-03       1.456802684072e+00 
       2.841785469300e-03       1.560646891329e+00 
       3.068489366414e-03       1.670536063143e+00 
       3.313278603720e-03       1.786503852588e+00 
       3.577595942169e-03       1.908502930882e+00 
       3.862999239199e-03       2.036387730371e+00 
       4.171170630578e-03       2.169896194828e+00 
       4.503926444729e-03       2.308631877332e+00 
       4.863227907969e-03       2.452047288327e+00 
       5.251192703764e-03       2.599430624207e+00 
       5.670107454120e-03       2.749896926330e+00 
       6.122441196689e-03       2.902386505894e+00 
       6.610859936996e-03       3.055668704085e+00 
       7.138242361596e-03       3.208356448343e+00 
       7.707696804727e-03       3.358923875374e+00 
       8.322579568496e-03       3.505725573203e+00 
       8.986514704559e-03       3.647009226328e+00 
       9.703415373875e-03       3.780923268828e+00 
       1.047750691046e-02       3.905491081510e+00 
       1.131335172503e-02       4.018587984539e+00 
       1.221587619537e-02       4.117901518528e+00 
       1.319039970183e-02       4.200915246730e+00 
       1.424266597920e-02       4.264944473527e+00 
       1.537887696964e-02       4.307216461232e+00 
       1.660572937560e-02       4.325060893905e+00 
       1.793045412207e-02       4.316057238939e+00 
       1.936085889642e-02       4.278226575351e+00 
       2.090537351881e-02       4.210200577491e+00 
       2.257309534705e-02       4.111411833698e+00 
       2.437382002240e-02       3.982421300867e+00 
       2.631799943729e-02       3.825164595901e+00 
       2.841644544598e-02       3.643279135215e+00 
       3.067933354524e-02       3.442195399318e+00 
       3.311368469821e-02       3.229242044353e+00 
       3.571840442514e-02       3.013513767479e+00 
       3.847720347390e-02       2.805281002496e+00 
       4.135335537314e-02       2.614412400641e+00 
       4.429361666563e-02       2.448130207393e+00 
       4.724366437916e-02       2.309236716072e+00 
       5.016480834039e-02       2.196113580551e+00 
       5.303989618930e-02       2.104365692362e+00 
       5.586870668205e-02       2.028462094836e+00 
       5.866042679206e-02       1.963154553043e+00 
       6.142798931504e-02       1.903778471033e+00 
       6.418496438662e-02       1.846475766459e+00 
       6.694418832236e-02       1.788191557241e+00 
       6.971731104453e-02       1.726712414802e+00 
       7.251476154108e-02       1.660650291493e+00 
       7.534587669814e-02       1.589464166328e+00 
       7.821907664495e-02       1.513434292332e+00 
       8.114203771084e-02       1.433566075694e+00 
       8.412184533139e-02       1.351487549906e+00 
       8.716512277352e-02       1.269270248554e+00 
       9.027813693913e-02       1.189187856531e+00 
       9.346688429613e-02       1.113497406534e+00 
       9.673716026122e-02       1.044170868261e+00 
       1.000946150608e-01       9.827037462235e-01 
       1.035447986307e-01       9.299286238225e-01 
       1.070931966524e-01       8.859530711266e-01 
       1.107452594180e-01       8.500669256124e-01 
       1.145064248899e-01       8.207979655894e-01 
       1.183821370656e-01       7.960178584301e-01 
       1.223778605591e-01       7.731396717477e-01 
       1.264990921707e-01       7.494459889490e-01 
       1.307513701078e-01       7.225512492554e-01 
       1.351402814485e-01       6.909028753482e-01 
       1.396714683894e-01       6.541749191918e-01 
       1.443506337875e-01       6.134202825613e-01 
       1.491835464900e-01       5.708606120186e-01 
       1.541760469368e-01       5.293560303574e-01 
       1.593340535209e-01       4.917017938856e-01 
       1.646635701934e-01       4.599101330629e-01 
       1.701706958081e-01       4.347182241897e-01 
       1.758616357070e-01       4.153968418130e-01 
       1.817427160581e-01       3.999251307407e-01 
       1.878204014651e-01       3.856740115023e-01 
       1.941013163855e-01       3.698020100602e-01 
       2.005922709060e-01       3.505381885348e-01 
       2.073002914514e-01       3.280338237993e-01 
       2.142326570343e-01       3.041999775695e-01 
       2.213969417044e-01       2.815975321997e-01 
       2.288010639201e-01       2.622418004703e-01 
       2.364533436625e-01       2.469468548115e-01 
       2.443625682390e-01       2.349969794138e-01 
       2.525380678946e-01       2.244033692072e-01 
       2.609898025770e-01       2.130783644741e-01 
       2.697284614969e-01       2.000839003401e-01 
       2.787655775073e-01       1.860005310988e-01 
       2.881136588192e-01       1.724975787245e-01 
       2.977863412019e-01       1.610451137008e-01 
       3.077985646248e-01       1.517392681185e-01 
       3.181667793367e-01       1.435367791461e-01 
       3.289091877084e-01       1.351580025005e-01 
       3.400460298905e-01       1.261395822171e-01 
       3.515999235695e-01       1.171761148513e-01 
       3.635962710278e-01       1.091502347908e-01 
       3.760637505499e-01       1.022818457935e-01 
       3.890349143014e-01       9.590868937497e-02 
       4.025469215929e-01       8.947751970432e-02 
       4.166424455447e-01       8.308048266610e-02 
       4.313708034899e-01       7.718296599393e-02 
       4.467893781976e-01       7.186682726060e-02 
       4.629654198623e-01       6.683365498321e-02 
       4.799783500912e-01       6.188086000795e-02 
       4.979227318246e-01       5.718378719428e-02 
       5.169121269689e-01       5.286273176000e-02 
       5.370841403262e-01       4.872769643654e-02 
       5.586070463286e-01       4.474691075850e-02 
       5.816885093582e-01       4.100586173343e-02 
       6.065870143577e-01       3.744171238192e-02 
       6.336266466978e-01       3.402566904416e-02 
       6.632156057925e-01       3.078113951782e-02 
       6.958678637575e-01       2.767189567995e-02 
       7.322247983784e-01       2.470728826220e-02 
       7.730680193171e-01       2.187593582333e-02 
       8.193049551574e-01       1.918817798714e-02 
       8.718988013754e-01       1.665637001201e-02 
       9.317218028590e-01       1.430564432653e-02 
       9.993660906273e-01       1.216575334990e-02 
       1.075037109879e+00       1.026055373781e-02 
       1.158653485387e+00       8.599795278970e-03 
       1.250099156961e+00       7.176187413567e-03 
       1.349432400897e+00       5.967927960231e-03 
       1.456947456991e+00       4.948446290093e-03 
       1.573135110893e+00       4.090717228719e-03 
       1.698621895119e+00       3.370155689509e-03 
       1.834127512423e+00       2.765370581720e-03 
       1.980444933977e+00       2.258008638966e-03 
       2.138435191130e+00       1.832664249809e-03 
       2.309029198543e+00       1.476287864392e-03 
       2.493232376993e+00       1.178002048666e-03 
       2.692130394536e+00       9.287311109937e-04 
       2.906895533764e+00       7.209858729382e-04 
       3.138793596840e+00       5.485894623025e-04 
       3.389191365541e+00       4.065631029881e-04 
       3.659564656886e+00       2.908798143159e-04 
       3.951507021438e+00       1.983172630974e-04 
       4.266739135513e+00       1.262671248887e-04 
       4.607118942658e+00       7.254293954187e-05 
       4.974652604172e+00       3.518505883981e-05 
       5.371506323193e+00       1.223987850368e-05 
       5.800019112071e+00       1.555427876435e-06 
       6.262716578240e+00       6.119047136094e-07 
       6.762325809881e+00       6.448972767247e-06 
       7.301791449077e+00       1.574159706943e-05 
       7.884293047211e+00       2.507640061103e-05 
       8.513263804891e+00       3.143919832319e-05 
       9.192410806865e+00       3.283169272134e-05 
       9.925736871166e+00       2.882719280500e-05 
       1.071756414128e+01       2.078952768549e-05 
       1.157255956041e+01       1.147723215571e-05 
       1.249576237789e+01       3.982062054693e-06 
       1.349261385000e+01       3.265192005218e-07 
       1.456898931011e+01       4.516876325794e-07 
       1.573123279727e+01       2.365841723074e-06 
       1.698619444729e+01       3.591700434887e-06 
       1.834127086665e+01       2.973273306856e-06 
       1.980444872733e+01       1.307841750081e-06 
       2.138435183937e+01       1.510848137071e-07 
       2.309029197863e+01       6.747470759994e-08 
       2.493232376942e+01       3.430467274126e-07 
       2.692130394533e+01       2.875368194565e-07 
       2.906895533764e+01       6.047219595451e-08 
       3.138793596840e+01       2.416962429595e-09 
       3.389191365541e+01       2.868627246990e-08 
       3.659564656886e+01       1.159184114019e-08 
       3.951507021438e+01       3.020339612440e-12 
       4.266739135513e+01       1.480594712129e-09 
       4.607118942658e+01       7.964563887396e-11 
       4.974652604172e+01       1.017843689780e-10 
       5.371506323193e+01       3.509249621458e-12 
       5.800019112071e+01       3.792942560729e-11 
       6.262716578240e+01       1.070515441603e-11 
       6.762325809881e+01       6.101156709018e-12 
