# Matter power spectrum P(k) at redshift z=0
# for k=1.04775e-05 to 67.6233 h/Mpc,
# number of wavenumbers equal to 246
#    1:k (h/Mpc)              2:P (Mpc/h)^3        
       1.047750691046e-05       5.020964811312e+01 
       1.131335172503e-05       5.407050701927e+01 
       1.221587619537e-05       5.822819068983e+01 
       1.319039970183e-05       6.270562594779e+01 
       1.424266597921e-05       6.752732240880e+01 
       1.537887696968e-05       7.271977206173e+01 
       1.660572937635e-05       7.831147247912e+01 
       1.793045413292e-05       8.433311821988e+01 
       1.936085902198e-05       9.081778249833e+01 
       2.090537469327e-05       9.780108069295e+01 
       2.257310435294e-05       1.053213197893e+02 
       2.437387741694e-05       1.134197377890e+02 
       2.631830744443e-05       1.221408203809e+02 
       2.841785469300e-05       1.315324642465e+02 
       3.068489366414e-05       1.416462094881e+02 
       3.313278603720e-05       1.525374501932e+02 
       3.577595942169e-05       1.642660688414e+02 
       3.862999239199e-05       1.768963506307e+02 
       4.171170630578e-05       1.904975994010e+02 
       4.503926444729e-05       2.051444491973e+02 
       4.863227907969e-05       2.209171465549e+02 
       5.251192703764e-05       2.379022224248e+02 
       5.670107454120e-05       2.561927927509e+02 
       6.122441196689e-05       2.758890444040e+02 
       6.610859936996e-05       2.970989227882e+02 
       7.138242361596e-05       3.199385560802e+02 
       7.707696804727e-05       3.445329783679e+02 
       8.322579568497e-05       3.710167318945e+02 
       8.986514704559e-05       3.995346444202e+02 
       9.703415373875e-05       4.302425407382e+02 
       1.047750691046e-04       4.633080766741e+02 
       1.131335172503e-04       4.989116271563e+02 
       1.221587619537e-04       5.372471950927e+02 
       1.319039970183e-04       5.785234129333e+02 
       1.424266597921e-04       6.229645936042e+02 
       1.537887696968e-04       6.708118490401e+02 
       1.660572937635e-04       7.223242666087e+02 
       1.793045413292e-04       7.777801559013e+02 
       1.936085902198e-04       8.374783614133e+02 
       2.090537469327e-04       9.017396271814e+02 
       2.257310435294e-04       9.709080268029e+02 
       2.437387741694e-04       1.045352449492e+03 
       2.631830744443e-04       1.125468123748e+03 
       2.841785469300e-04       1.211678180492e+03 
       3.068489366414e-04       1.304435250147e+03 
       3.313278603720e-04       1.404223053677e+03 
       3.577595942169e-04       1.511558014611e+03 
       3.862999239199e-04       1.626990837717e+03 
       4.171170630578e-04       1.751108028782e+03 
       4.503926444729e-04       1.884533382862e+03 
       4.863227907969e-04       2.027929378100e+03 
       5.251192703764e-04       2.181998448117e+03 
       5.670107454121e-04       2.347484102735e+03 
       6.122441196689e-04       2.525171871340e+03 
       6.610859936996e-04       2.715889983561e+03 
       7.138242361596e-04       2.920509688342e+03 
       7.707696804727e-04       3.139945100231e+03 
       8.322579568497e-04       3.375152337520e+03 
       8.986514704559e-04       3.627127831064e+03 
       9.703415373875e-04       3.896905453040e+03 
       1.047750691046e-03       4.185552174184e+03 
       1.131335172503e-03       4.494162430222e+03 
       1.221587619537e-03       4.823850706298e+03 
       1.319039970183e-03       5.175742741563e+03 
       1.424266597921e-03       5.551019596622e+03 
       1.537887696968e-03       5.950788340160e+03 
       1.660572937635e-03       6.376123051249e+03 
       1.793045413292e-03       6.828073900791e+03 
       1.936085902198e-03       7.307625380221e+03 
       2.090537469327e-03       7.815671862312e+03 
       2.257310435294e-03       8.352990374437e+03 
       2.437387741694e-03       8.920211062603e+03 
       2.631830744443e-03       9.517783066870e+03 
       2.841785469300e-03       1.014593704151e+04 
       3.068489366414e-03       1.080464502427e+04 
       3.313278603720e-03       1.149357459890e+04 
       3.577595942169e-03       1.221203621146e+04 
       3.862999239199e-03       1.295892538721e+04 
       4.171170630578e-03       1.373266012122e+04 
       4.503926444729e-03       1.453111834480e+04 
       4.863227907969e-03       1.535154944153e+04 
       5.251192703764e-03       1.619063365084e+04 
       5.670107454120e-03       1.704431237500e+04 
       6.122441196689e-03       1.790756071982e+04 
       6.610859936996e-03       1.877460480042e+04 
       7.138242361596e-03       1.963872751550e+04 
       7.707696804727e-03       2.049215583824e+04 
       8.322579568496e-03       2.132611143236e+04 
       8.986514704559e-03       2.213055549948e+04 
       9.703415373875e-03       2.289441219589e+04 
       1.047750691046e-02       2.360547334939e+04 
       1.131335172503e-02       2.425024012731e+04 
       1.221587619537e-02       2.481419834962e+04 
       1.319039970183e-02       2.528215952637e+04 
       1.424266597920e-02       2.563810155740e+04 
       1.537887696964e-02       2.586611254410e+04 
       1.660572937560e-02       2.595024602741e+04 
       1.793045412207e-02       2.587627896438e+04 
       1.936085889642e-02       2.563208390030e+04 
       2.090537351881e-02       2.520926781428e+04 
       2.257309534705e-02       2.460431383772e+04 
       2.437382002240e-02       2.382079982822e+04 
       2.631799943729e-02       2.287029686116e+04 
       2.841644544598e-02       2.177440997848e+04 
       3.067933354524e-02       2.056534627675e+04 
       3.311368469821e-02       1.928711916629e+04 
       3.571840442514e-02       1.799384126676e+04 
       3.847720347390e-02       1.674674385793e+04 
       4.135335537314e-02       1.560452036158e+04 
       4.429361666563e-02       1.461030665276e+04 
       4.724366437916e-02       1.378047977231e+04 
       5.016480834039e-02       1.310497861917e+04 
       5.303989618930e-02       1.255714364677e+04 
       5.586870668205e-02       1.210424019583e+04 
       5.866042679206e-02       1.171468169207e+04 
       6.142798931504e-02       1.136017292519e+04 
       6.418496438662e-02       1.101861650003e+04 
       6.694418832236e-02       1.067066952872e+04 
       6.971731104453e-02       1.030363267684e+04 
       7.251476154108e-02       9.909057642400e+03 
       7.534587669814e-02       9.483622157711e+03 
       7.821907664495e-02       9.029306185429e+03 
       8.114203771084e-02       8.552139578761e+03 
       8.412184533139e-02       8.061949282232e+03 
       8.716512277352e-02       7.570773701745e+03 
       9.027813693913e-02       7.092474222164e+03 
       9.346688429613e-02       6.640512669360e+03 
       9.673716026122e-02       6.226713352867e+03 
       1.000946150608e-01       5.859932132415e+03 
       1.035447986307e-01       5.545243233535e+03 
       1.070931966524e-01       5.283146582317e+03 
       1.107452594180e-01       5.069438149058e+03 
       1.145064248899e-01       4.895264431185e+03 
       1.183821370656e-01       4.747844934815e+03 
       1.223778605591e-01       4.611710158157e+03 
       1.264990921707e-01       4.470602759497e+03 
       1.307513701078e-01       4.310273848916e+03 
       1.351402814485e-01       4.121383405305e+03 
       1.396714683894e-01       3.902045051392e+03 
       1.443506337875e-01       3.658634507233e+03 
       1.491835464900e-01       3.404459396897e+03 
       1.541760469368e-01       3.156633203187e+03 
       1.593340535209e-01       2.931916403110e+03 
       1.646635701934e-01       2.742338940734e+03 
       1.701706958081e-01       2.592224469553e+03 
       1.758616357070e-01       2.477200491635e+03 
       1.817427160581e-01       2.385144741209e+03 
       1.878204014651e-01       2.300329133643e+03 
       1.941013163855e-01       2.205759653816e+03 
       2.005922709060e-01       2.090827763466e+03 
       2.073002914514e-01       1.956443769424e+03 
       2.142326570343e-01       1.814163302056e+03 
       2.213969417044e-01       1.679251624835e+03 
       2.288010639201e-01       1.563830126569e+03 
       2.364533436625e-01       1.472652168124e+03 
       2.443625682390e-01       1.401491779429e+03 
       2.525380678946e-01       1.338398932914e+03 
       2.609898025770e-01       1.270876862739e+03 
       2.697284614969e-01       1.193339849241e+03 
       2.787655775073e-01       1.109309695611e+03 
       2.881136588192e-01       1.028740160160e+03 
       2.977863412019e-01       9.604550400999e+02 
       3.077985646248e-01       9.049929639322e+02 
       3.181667793367e-01       8.561137258392e+02 
       3.289091877084e-01       8.061561541042e+02 
       3.400460298905e-01       7.523572556081e+02 
       3.515999235695e-01       6.988904114821e+02 
       3.635962710278e-01       6.510279554384e+02 
       3.760637505499e-01       6.100940208666e+02 
       3.890349143014e-01       5.721010568223e+02 
       4.025469215929e-01       5.337481964358e+02 
       4.166424455447e-01       4.955974725933e+02 
       4.313708034899e-01       4.604371598897e+02 
       4.467893781976e-01       4.287419078789e+02 
       4.629654198623e-01       3.987389698961e+02 
       4.799783500912e-01       3.692064314619e+02 
       4.979227318246e-01       3.412073649813e+02 
       5.169121269689e-01       3.154482587275e+02 
       5.370841403262e-01       2.907991819004e+02 
       5.586070463286e-01       2.670693551220e+02 
       5.816885093582e-01       2.447723377867e+02 
       6.065870143577e-01       2.235322868531e+02 
       6.336266466978e-01       2.031740085206e+02 
       6.632156057925e-01       1.838421924759e+02 
       6.958678637575e-01       1.653175033789e+02 
       7.322247983784e-01       1.476574718755e+02 
       7.730680193171e-01       1.307956899504e+02 
       8.193049551574e-01       1.147913779319e+02 
       8.718988013754e-01       9.972193516750e+01 
       9.317218028590e-01       8.573534210078e+01 
       9.993660906273e-01       7.301070004004e+01 
       1.075037109879e+00       6.169028441159e+01 
       1.158653485387e+00       5.183158397357e+01 
       1.250099156961e+00       4.339077780504e+01 
       1.349432400897e+00       3.623794170470e+01 
       1.456947456991e+00       3.021424943507e+01 
       1.573135110893e+00       2.515840856400e+01 
       1.698621895119e+00       2.092336058992e+01 
       1.834127512423e+00       1.738096348972e+01 
       1.980444933977e+00       1.442131952096e+01 
       2.138435191130e+00       1.195139438017e+01 
       2.309029198543e+00       9.892302389351e+00 
       2.493232376993e+00       8.177222189665e+00 
       2.692130394536e+00       6.750185747728e+00 
       2.906895533764e+00       5.563649107225e+00 
       3.138793596840e+00       4.577832409964e+00 
       3.389191365541e+00       3.759409612058e+00 
       3.659564656886e+00       3.080307055021e+00 
       3.951507021438e+00       2.517110230874e+00 
       4.266739135513e+00       2.050215376257e+00 
       4.607118942658e+00       1.663325984549e+00 
       4.974652604172e+00       1.342856898434e+00 
       5.371506323193e+00       1.077503310156e+00 
       5.800019112071e+00       8.579363187308e-01 
       6.262716578240e+00       6.764422579090e-01 
       6.762325809881e+00       5.266909761192e-01 
       7.301791449077e+00       4.035194603408e-01 
       7.884293047211e+00       3.027056922731e-01 
       8.513263804891e+00       2.208648028728e-01 
       9.192410806865e+00       1.552615645304e-01 
       9.925736871166e+00       1.037055752197e-01 
       1.071756414128e+01       6.439400779471e-02 
       1.157255956041e+01       3.580176291580e-02 
       1.249576237789e+01       1.654267664405e-02 
       1.349261385000e+01       5.248726309837e-03 
       1.456898931011e+01       4.590980855584e-04 
       1.573123279727e+01       5.517142101210e-04 
       1.698619444729e+01       3.740793310225e-03 
       1.834127086665e+01       8.168566399093e-03 
       1.980444872733e+01       1.210233022553e-02 
       2.138435183937e+01       1.421185601233e-02 
       2.309029197863e+01       1.385571975027e-02 
       2.493232376942e+01       1.124738912561e-02 
       2.692130394533e+01       7.370744144768e-03 
       2.906895533764e+01       3.583784333090e-03 
       3.138793596840e+01       1.013897447834e-03 
       3.389191365541e+01       3.680613595295e-05 
       3.659564656886e+01       1.809155327955e-04 
       3.951507021438e+01       5.751550554174e-04 
       4.266739135513e+01       6.250930375914e-04 
       4.607118942658e+01       3.453105162664e-04 
       4.974652604172e+01       7.863812777368e-05 
       5.371506323193e+01       2.672560259279e-07 
       5.800019112071e+01       1.128653098396e-05 
       6.262716578240e+01       7.089791458190e-06 
       6.762325809881e+01       1.180246669753e-10 
