# Matter power spectrum P(k) at redshift z=99
# for k=1.04775e-05 to 67.6233 h/Mpc,
# number of wavenumbers equal to 246
#    1:k (h/Mpc)              2:P (Mpc/h)^3        
       1.047750691046e-05       7.261927691463e-03 
       1.131335172503e-05       7.820331663845e-03 
       1.221587619537e-05       8.421676007822e-03 
       1.319039970183e-05       9.069258215115e-03 
       1.424266597921e-05       9.766638426400e-03 
       1.537887696968e-05       1.051764072327e-02 
       1.660572937635e-05       1.132639194355e-02 
       1.793045413292e-05       1.219733234495e-02 
       1.936085902198e-05       1.313524227697e-02 
       2.090537469327e-05       1.414527125465e-02 
       2.257310435294e-05       1.523296276046e-02 
       2.437387741694e-05       1.640429448694e-02 
       2.631830744443e-05       1.766569571674e-02 
       2.841785469300e-05       1.902408739622e-02 
       3.068489366414e-05       2.048692975785e-02 
       3.313278603720e-05       2.206225519143e-02 
       3.577595942169e-05       2.375870710844e-02 
       3.862999239199e-05       2.558560733934e-02 
       4.171170630578e-05       2.755297770296e-02 
       4.503926444729e-05       2.967161934890e-02 
       4.863227907969e-05       3.195316458916e-02 
       5.251192703764e-05       3.441013527962e-02 
       5.670107454120e-05       3.705601720602e-02 
       6.122441196689e-05       3.990533436387e-02 
       6.610859936996e-05       4.297372179037e-02 
       7.138242361596e-05       4.627802153209e-02 
       7.707696804727e-05       4.983636206733e-02 
       8.322579568497e-05       5.366826860764e-02 
       8.986514704559e-05       5.779476409738e-02 
       9.703415373875e-05       6.223848260039e-02 
       1.047750691046e-04       6.702379882562e-02 
       1.131335172503e-04       7.217695171779e-02 
       1.221587619537e-04       7.772619094082e-02 
       1.319039970183e-04       8.370193465576e-02 
       1.424266597921e-04       9.013692530045e-02 
       1.537887696968e-04       9.706641266988e-02 
       1.660572937635e-04       1.045283356901e-01 
       1.793045413292e-04       1.125635351893e-01 
       1.936085902198e-04       1.212159618010e-01 
       2.090537469327e-04       1.305329135985e-01 
       2.257310435294e-04       1.405652849735e-01 
       2.437387741694e-04       1.513678306326e-01 
       2.631830744443e-04       1.629994508934e-01 
       2.841785469300e-04       1.755234925599e-01 
       3.068489366414e-04       1.890080675115e-01 
       3.313278603720e-04       2.035264007483e-01 
       3.577595942169e-04       2.191571809102e-01 
       3.862999239199e-04       2.359849443407e-01 
       4.171170630578e-04       2.541004747776e-01 
       4.503926444729e-04       2.736012086955e-01 
       4.863227907969e-04       2.945916798121e-01 
       5.251192703764e-04       3.171839532800e-01 
       5.670107454121e-04       3.414980772175e-01 
       6.122441196689e-04       3.676625421823e-01 
       6.610859936996e-04       3.958147261589e-01 
       7.138242361596e-04       4.261013294600e-01 
       7.707696804727e-04       4.586787802933e-01 
       8.322579568497e-04       4.937136012094e-01 
       8.986514704559e-04       5.313826813011e-01 
       9.703415373875e-04       5.718734984346e-01 
       1.047750691046e-03       6.153841642200e-01 
       1.131335172503e-03       6.621233252590e-01 
       1.221587619537e-03       7.123098233848e-01 
       1.319039970183e-03       7.661720598314e-01 
       1.424266597921e-03       8.239546311554e-01 
       1.537887696968e-03       8.859011186978e-01 
       1.660572937635e-03       9.522588018331e-01 
       1.793045413292e-03       1.023280100696e+00 
       1.936085902198e-03       1.099216304853e+00 
       2.090537469327e-03       1.180312989720e+00 
       2.257310435294e-03       1.266804113476e+00 
       2.437387741694e-03       1.358904848445e+00 
       2.631830744443e-03       1.456802674236e+00 
       2.841785469300e-03       1.560646875572e+00 
       3.068489366414e-03       1.670536038456e+00 
       3.313278603720e-03       1.786503814365e+00 
       3.577595942169e-03       1.908502872338e+00 
       3.862999239199e-03       2.036387641259e+00 
       4.171170630578e-03       2.169896063664e+00 
       4.503926444729e-03       2.308631673174e+00 
       4.863227907969e-03       2.452046980418e+00 
       5.251192703764e-03       2.599430160671e+00 
       5.670107454120e-03       2.749896236830e+00 
       6.122441196689e-03       2.902385259909e+00 
       6.610859936996e-03       3.055666910986e+00 
       7.138242361596e-03       3.208353881069e+00 
       7.707696804727e-03       3.358920574125e+00 
       8.322579568496e-03       3.505720145011e+00 
       8.986514704559e-03       3.647002633447e+00 
       9.703415373875e-03       3.780912608408e+00 
       1.047750691046e-02       3.905476089981e+00 
       1.131335172503e-02       4.018565319156e+00 
       1.221587619537e-02       4.117871162109e+00 
       1.319039970183e-02       4.200873736236e+00 
       1.424266597920e-02       4.264884731477e+00 
       1.537887696964e-02       4.307140919386e+00 
       1.660572937560e-02       4.324956034785e+00 
       1.793045412207e-02       4.315915862521e+00 
       1.936085889642e-02       4.278039761872e+00 
       2.090537351881e-02       4.209950946288e+00 
       2.257309534705e-02       4.111091307783e+00 
       2.437382002240e-02       3.982002799258e+00 
       2.631799943729e-02       3.824623847133e+00 
       2.841644544598e-02       3.642596185435e+00 
       3.067933354524e-02       3.441329783030e+00 
       3.311368469821e-02       3.228142946936e+00 
       3.571840442514e-02       3.012181284127e+00 
       3.847720347390e-02       2.803663296610e+00 
       4.135335537314e-02       2.612465878398e+00 
       4.429361666563e-02       2.445834755797e+00 
       4.724366437916e-02       2.306562859198e+00 
       5.016480834039e-02       2.193033024965e+00 
       5.303989618930e-02       2.100861115128e+00 
       5.586870668205e-02       2.024517085366e+00 
       5.866042679206e-02       1.958738600922e+00 
       6.142798931504e-02       1.898877078459e+00 
       6.418496438662e-02       1.841064386354e+00 
       6.694418832236e-02       1.782245491005e+00 
       6.971731104453e-02       1.720201059778e+00 
       7.251476154108e-02       1.653548948976e+00 
       7.534587669814e-02       1.581753458355e+00 
       7.821907664495e-02       1.505084123895e+00 
       8.114203771084e-02       1.424564752575e+00 
       8.412184533139e-02       1.341816519023e+00 
       8.716512277352e-02       1.258914002935e+00 
       9.027813693913e-02       1.178135443686e+00 
       9.346688429613e-02       1.101727470909e+00 
       9.673716026122e-02       1.031658251307e+00 
       1.000946150608e-01       9.694197831619e-01 
       1.035447986307e-01       9.158356985771e-01 
       1.070931966524e-01       8.709853612342e-01 
       1.107452594180e-01       8.341629007556e-01 
       1.145064248899e-01       8.038942548748e-01 
       1.183821370656e-01       7.780456753610e-01 
       1.223778605591e-01       7.540369397081e-01 
       1.264990921707e-01       7.291738777224e-01 
       1.307513701078e-01       7.010923521029e-01 
       1.351402814485e-01       6.682595493052e-01 
       1.396714683894e-01       6.303693000721e-01 
       1.443506337875e-01       5.884871767710e-01 
       1.491835464900e-01       5.448280402730e-01 
       1.541760469368e-01       5.022257966090e-01 
       1.593340535209e-01       4.634323097484e-01 
       1.646635701934e-01       4.304053597237e-01 
       1.701706958081e-01       4.038394215417e-01 
       1.758616357070e-01       3.829919923613e-01 
       1.817427160581e-01       3.658722006283e-01 
       1.878204014651e-01       3.499204598939e-01 
       1.941013163855e-01       3.324030933542e-01 
       2.005922709060e-01       3.116436224940e-01 
       2.073002914514e-01       2.878224179248e-01 
       2.142326570343e-01       2.628090344066e-01 
       2.213969417044e-01       2.390441025557e-01 
       2.288010639201e-01       2.184210055653e-01 
       2.364533436625e-01       2.016616468668e-01 
       2.443625682390e-01       1.880664292335e-01 
       2.525380678946e-01       1.757919698729e-01 
       2.609898025770e-01       1.629586791877e-01 
       2.697284614969e-01       1.487586989181e-01 
       2.787655775073e-01       1.337521175948e-01 
       2.881136588192e-01       1.194296610008e-01 
       2.977863412019e-01       1.070513267250e-01 
       3.077985646248e-01       9.666478878748e-02 
       3.181667793367e-01       8.738408021238e-02 
       3.289091877084e-01       7.817947731599e-02 
       3.400460298905e-01       6.871985645733e-02 
       3.515999235695e-01       5.957378317226e-02 
       3.635962710278e-01       5.140884741555e-02 
       3.760637505499e-01       4.436428561691e-02 
       3.890349143014e-01       3.796993326362e-02 
       4.025469215929e-01       3.186935696447e-02 
       4.166424455447e-01       2.614589518620e-02 
       4.313708034899e-01       2.108758146736e-02 
       4.467893781976e-01       1.672916358547e-02 
       4.629654198623e-01       1.290870898292e-02 
       4.799783500912e-01       9.536442325033e-03 
       4.979227318246e-01       6.694231474786e-03 
       5.169121269689e-01       4.416848917094e-03 
       5.370841403262e-01       2.628545280705e-03 
       5.586070463286e-01       1.312215411656e-03 
       5.816885093582e-01       4.678969657843e-04 
       6.065870143577e-01       5.592187886265e-05 
       6.336266466978e-01       3.798258179112e-05 
       6.632156057925e-01       3.619968681862e-04 
       6.958678637575e-01       9.578456725066e-04 
       7.322247983784e-01       1.727572109546e-03 
       7.730680193171e-01       2.546113000283e-03 
       8.193049551574e-01       3.254547917999e-03 
       8.718988013754e-01       3.679134928715e-03 
       9.317218028590e-01       3.671415466998e-03 
       9.993660906273e-01       3.179884522485e-03 
       1.075037109879e+00       2.313580391864e-03 
       1.158653485387e+00       1.329850485007e-03 
       1.250099156961e+00       5.236574380864e-04 
       1.349432400897e+00       8.365578279440e-05 
       1.456947456991e+00       8.297613300390e-06 
       1.573135110893e+00       1.346083842768e-04 
       1.698621895119e+00       2.566843017124e-04 
       1.834127512423e+00       2.557046591348e-04 
       1.980444933977e+00       1.514951130624e-04 
       2.138435191130e+00       4.317521057444e-05 
       2.309029198543e+00       5.705593912021e-07 
       2.493232376993e+00       1.141765728439e-05 
       2.692130394536e+00       2.381653392085e-05 
       2.906895533764e+00       1.533986959861e-05 
       3.138793596840e+00       2.630544679654e-06 
       3.389191365541e+00       2.736409926027e-07 
       3.659564656886e+00       2.185792040234e-06 
       3.951507021438e+00       1.307759852974e-06 
       4.266739135513e+00       5.327211903170e-08 
       4.607118942658e+00       1.584165696407e-07 
       4.974652604172e+00       1.593437999210e-07 
       5.371506323193e+00       4.331987397976e-09 
       5.800019112071e+00       1.955364162739e-08 
       6.262716578240e+00       7.333078165441e-09 
       6.762325809881e+00       8.406330434653e-10 
       7.301791449077e+00       1.585044040523e-09 
       7.884293047211e+00       1.439799860673e-11 
       8.513263804891e+00       1.269468808138e-10 
       9.192410806865e+00       1.304908730381e-11 
       9.925736871166e+00       1.418256796349e-11 
       1.071756414128e+01       2.328381664407e-13 
       1.157255956041e+01       6.274678684092e-13 
       1.249576237789e+01       7.612618677239e-13 
       1.349261385000e+01       6.255396447150e-14 
       1.456898931011e+01       3.474120186905e-13 
       1.573123279727e+01       2.745675719592e-13 
       1.698619444729e+01       4.973098954488e-14 
       1.834127086665e+01       7.185560069779e-14 
       1.980444872733e+01       1.368634502573e-13 
       2.138435183937e+01       7.689412318959e-15 
       2.309029197863e+01       6.116558063849e-14 
       2.493232376942e+01       1.555914270276e-14 
       2.692130394533e+01       1.662772222961e-14 
       2.906895533764e+01       8.753429017231e-15 
       3.138793596840e+01       1.700678993428e-14 
       3.389191365541e+01       1.145198358981e-16 
       3.659564656886e+01       2.143187157974e-14 
       3.951507021438e+01       2.915954091457e-15 
       4.266739135513e+01       1.519113192217e-15 
       4.607118942658e+01       6.428824650540e-18 
       4.974652604172e+01       2.759990986006e-15 
       5.371506323193e+01       4.211451904563e-15 
       5.800019112071e+01       2.546853818804e-15 
       6.262716578240e+01       7.351792934164e-17 
       6.762325809881e+01       1.320150774816e-15 
