# Matter power spectrum P(k) at redshift z=0
# for k=1.04775e-05 to 66.1767 h/Mpc,
# number of wavenumbers equal to 130
#    1:k (h/Mpc)              2:P (Mpc/h)^3        
       1.047750691046e-05       5.020964811310e+01 
       1.319039970183e-05       6.270562594784e+01 
       1.660572937635e-05       7.831147247912e+01 
       2.090537469327e-05       9.780108069296e+01 
       2.631830744443e-05       1.221408203809e+02 
       3.313278603720e-05       1.525374501932e+02 
       4.171170630578e-05       1.904975994009e+02 
       5.251192703764e-05       2.379022224249e+02 
       6.610859936996e-05       2.970989227881e+02 
       8.322579568497e-05       3.710167318946e+02 
       1.047750691046e-04       4.633080766742e+02 
       1.319039970183e-04       5.785234129335e+02 
       1.660572937635e-04       7.223242666092e+02 
       2.090537469327e-04       9.017396271824e+02 
       2.631830744443e-04       1.125468123749e+03 
       3.313278603720e-04       1.404223053681e+03 
       4.171170630578e-04       1.751108028790e+03 
       5.251192703764e-04       2.181998448133e+03 
       6.610859936996e-04       2.715889983592e+03 
       8.322579568497e-04       3.375152337134e+03 
       1.047750691046e-03       4.185552174305e+03 
       1.319039970183e-03       5.175742738990e+03 
       1.660572937635e-03       6.376123051777e+03 
       2.090537469327e-03       7.815671903773e+03 
       2.631830744443e-03       9.517783069112e+03 
       3.313278603720e-03       1.149357460343e+04 
       4.171170630578e-03       1.373266008936e+04 
       5.251192703764e-03       1.619063614560e+04 
       6.610859936996e-03       1.877460421408e+04 
       8.322579568497e-03       2.132606834836e+04 
       1.047750691046e-02       2.360548651369e+04 
       1.319039970183e-02       2.528218657568e+04 
       1.660572937633e-02       2.595027829371e+04 
       2.090537453514e-02       2.520933756243e+04 
       2.631818545635e-02       2.287031307464e+04 
       3.311571692125e-02       1.928624434121e+04 
       4.113809243311e-02       1.568433372703e+04 
       4.792590854610e-02       1.361062383700e+04 
       5.284436902701e-02       1.259130263723e+04 
       5.689644391095e-02       1.195555035822e+04 
       6.051252627066e-02       1.147546160488e+04 
       6.388413457411e-02       1.105590114693e+04 
       6.711249296401e-02       1.064899051773e+04 
       7.025823437965e-02       1.022928560599e+04 
       7.336115587705e-02       9.784535945023e+03 
       7.644928796912e-02       9.311667500166e+03 
       7.954353299775e-02       8.814536370888e+03 
       8.266024078725e-02       8.302118207437e+03 
       8.581273398637e-02       7.786950158025e+03 
       8.901225918437e-02       7.283183602175e+03 
       9.226860540985e-02       6.805153391976e+03 
       9.559052048996e-02       6.365638102804e+03 
       9.898599946599e-02       5.974404684931e+03 
       1.024624891378e-01       5.637319497889e+03 
       1.060270359164e-01       5.355761615786e+03 
       1.096863943056e-01       5.126244430807e+03 
       1.134471073830e-01       4.940482441700e+03 
       1.173155669539e-01       4.786162302229e+03 
       1.212980586983e-01       4.647931528514e+03 
       1.254007961065e-01       4.509144871959e+03 
       1.296299459934e-01       4.354557146288e+03 
       1.339916477160e-01       4.173216539287e+03 
       1.384920277736e-01       3.961163329852e+03 
       1.431372111762e-01       3.722683730870e+03 
       1.479333307714e-01       3.469555322597e+03 
       1.528865355934e-01       3.218341589832e+03 
       1.580029992204e-01       2.986293531537e+03 
       1.632889290723e-01       2.786968215045e+03 
       1.687505775527e-01       2.626827970902e+03 
       1.743942559171e-01       2.503757186936e+03 
       1.802263517371e-01       2.407340865138e+03 
       1.862533508214e-01       2.322251090246e+03 
       1.924818644494e-01       2.231550011003e+03 
       1.989186627765e-01       2.122186980963e+03 
       2.055707152847e-01       1.992029113911e+03 
       2.124452391818e-01       1.850327776123e+03 
       2.195497567139e-01       1.712185447547e+03 
       2.268921624510e-01       1.590988082480e+03 
       2.344808017550e-01       1.493669154517e+03 
       2.423245618548e-01       1.418308745370e+03 
       2.504329772620e-01       1.354466338388e+03 
       2.588163516754e-01       1.288931452748e+03 
       2.674858990930e-01       1.213938538330e+03 
       2.764539076010e-01       1.130692719300e+03 
       2.857339303080e-01       1.048098492728e+03 
       2.953410092148e-01       9.761812917022e+02 
       3.052919395542e-01       9.178113266264e+02 
       3.156055844677e-01       8.678972267157e+02 
       3.263032530092e-01       8.185256831021e+02 
       3.374091587054e-01       7.651458053644e+02 
       3.489509817175e-01       7.106724734207e+02 
       3.609605657343e-01       6.607863441252e+02 
       3.734747921333e-01       6.180862391708e+02 
       3.865366902904e-01       5.793114512688e+02 
       4.001968667448e-01       5.403918522144e+02 
       4.145153713076e-01       5.011517132077e+02 
       4.295641718077e-01       4.644993817412e+02 
       4.454304922144e-01       4.314095712984e+02 
       4.622214006969e-01       4.001133625840e+02 
       4.800702491654e-01       3.690887256119e+02 
       4.991459272112e-01       3.394766603619e+02 
       5.196665217302e-01       3.119876508755e+02 
       5.419201087032e-01       2.852461770699e+02 
       5.662975451962e-01       2.593312977071e+02 
       5.933463737275e-01       2.345475721149e+02 
       6.238638458458e-01       2.102308028381e+02 
       6.590669257916e-01       1.864334393971e+02 
       7.009246080454e-01       1.627253304176e+02 
       7.528593308799e-01       1.388187500539e+02 
       8.213469537518e-01       1.141886931944e+02 
       9.196980813302e-01       8.835939990024e+01 
       1.075112183810e+00       6.172614529081e+01 
       1.322697471132e+00       3.804278296974e+01 
       1.662328205042e+00       2.209799717527e+01 
       2.092692408506e+00       1.266921239043e+01 
       2.634543445090e+00       7.203405150485e+00 
       3.316693691389e+00       4.065156575107e+00 
       4.175469971226e+00       2.278617962016e+00 
       5.256605252960e+00       1.269355467466e+00 
       6.617673932723e+00       7.031371308727e-01 
       8.331157880872e+00       3.874791959243e-01 
       1.048830636590e+01       2.125105763905e-01 
       1.320399541071e+01       1.160374002215e-01 
       1.662284535976e+01       6.309866732109e-02 
       2.092692243973e+01       3.417954599554e-02 
       2.634543445002e+01       1.844593835694e-02 
       3.316693691389e+01       9.919194237567e-03 
       4.175469971226e+01       5.314583846084e-03 
       5.256605252960e+01       2.836662174346e-03 
       6.617673932723e+01       1.507711440580e-03 
