# Matter power spectrum P(k) at redshift z=0
# for k=1.04775e-05 to 66.1767 h/Mpc,
# number of wavenumbers equal to 130
#    1:k (h/Mpc)              2:P (Mpc/h)^3        
       1.047750691046e-05       5.020964811312e+01 
       1.319039970183e-05       6.270562594779e+01 
       1.660572937635e-05       7.831147247912e+01 
       2.090537469327e-05       9.780108069293e+01 
       2.631830744443e-05       1.221408203810e+02 
       3.313278603720e-05       1.525374501932e+02 
       4.171170630578e-05       1.904975994010e+02 
       5.251192703764e-05       2.379022224249e+02 
       6.610859936996e-05       2.970989227882e+02 
       8.322579568497e-05       3.710167318946e+02 
       1.047750691046e-04       4.633080766742e+02 
       1.319039970183e-04       5.785234129341e+02 
       1.660572937635e-04       7.223242666092e+02 
       2.090537469327e-04       9.017396271824e+02 
       2.631830744443e-04       1.125468123750e+03 
       3.313278603720e-04       1.404223053681e+03 
       4.171170630578e-04       1.751108028789e+03 
       5.251192703764e-04       2.181998448133e+03 
       6.610859936996e-04       2.715889983593e+03 
       8.322579568497e-04       3.375152337134e+03 
       1.047750691046e-03       4.185552174307e+03 
       1.319039970183e-03       5.175742741806e+03 
       1.660572937635e-03       6.376123051778e+03 
       2.090537469327e-03       7.815671920680e+03 
       2.631830744443e-03       9.517783069112e+03 
       3.313278603720e-03       1.149357460344e+04 
       4.171170630578e-03       1.373266012902e+04 
       5.251192703764e-03       1.619063614560e+04 
       6.610859936996e-03       1.877460414722e+04 
       8.322579568497e-03       2.132606448726e+04 
       1.047750691046e-02       2.360547874624e+04 
       1.319039970183e-02       2.528218940525e+04 
       1.660572937633e-02       2.595026511663e+04 
       2.090537453514e-02       2.520935759852e+04 
       2.631818545635e-02       2.287034978766e+04 
       3.311571692125e-02       1.928624575464e+04 
       4.113809243311e-02       1.568426538229e+04 
       4.792590854610e-02       1.361064141794e+04 
       5.284436902701e-02       1.259130034440e+04 
       5.689644391095e-02       1.195554177318e+04 
       6.051252627066e-02       1.147546247451e+04 
       6.388413457411e-02       1.105588475336e+04 
       6.711249296401e-02       1.064898273136e+04 
       7.025823437965e-02       1.022928934606e+04 
       7.336115587705e-02       9.784532048623e+03 
       7.644928796912e-02       9.311668056917e+03 
       7.954353299775e-02       8.814548578806e+03 
       8.266024078725e-02       8.302104513596e+03 
       8.581273398637e-02       7.786939955085e+03 
       8.901225918437e-02       7.283183340449e+03 
       9.226860540985e-02       6.805159450204e+03 
       9.559052048996e-02       6.365668688777e+03 
       9.898599946599e-02       5.974382170899e+03 
       1.024624891378e-01       5.637319723702e+03 
       1.060270359164e-01       5.355771662261e+03 
       1.096863943056e-01       5.126245355405e+03 
       1.134471073830e-01       4.940474447514e+03 
       1.173155669539e-01       4.786162604969e+03 
       1.212980586983e-01       4.647942077860e+03 
       1.254007961065e-01       4.509164744247e+03 
       1.296299459934e-01       4.354555711255e+03 
       1.339916477160e-01       4.173213353950e+03 
       1.384920277736e-01       3.961157786335e+03 
       1.431372111762e-01       3.722690878898e+03 
       1.479333307714e-01       3.469553789074e+03 
       1.528865355934e-01       3.218335476146e+03 
       1.580029992204e-01       2.986294275994e+03 
       1.632889290723e-01       2.786967695060e+03 
       1.687505775527e-01       2.626824063376e+03 
       1.743942559171e-01       2.503757040822e+03 
       1.802263517371e-01       2.407339837583e+03 
       1.862533508214e-01       2.322250334184e+03 
       1.924818644494e-01       2.231552064448e+03 
       1.989186627765e-01       2.122190771982e+03 
       2.055707152847e-01       1.992028977379e+03 
       2.124452391818e-01       1.850329163196e+03 
       2.195497567139e-01       1.712188156009e+03 
       2.268921624510e-01       1.590987584000e+03 
       2.344808017550e-01       1.493673175692e+03 
       2.423245618548e-01       1.418312271630e+03 
       2.504329772620e-01       1.354465340465e+03 
       2.588163516754e-01       1.288935333174e+03 
       2.674858990930e-01       1.213938893341e+03 
       2.764539076010e-01       1.130695015858e+03 
       2.857339303080e-01       1.048101283832e+03 
       2.953410092148e-01       9.761807615290e+02 
       3.052919395542e-01       9.178097054591e+02 
       3.156055844677e-01       8.678972697187e+02 
       3.263032530092e-01       8.185252032517e+02 
       3.374091587054e-01       7.651456394003e+02 
       3.489509817175e-01       7.106728206000e+02 
       3.609605657343e-01       6.607850054382e+02 
       3.734747921333e-01       6.180851292988e+02 
       3.865366902904e-01       5.793109430790e+02 
       4.001968667448e-01       5.403907780936e+02 
       4.145153713076e-01       5.011507519694e+02 
       4.295641718077e-01       4.644983435903e+02 
       4.454304922144e-01       4.314099189837e+02 
       4.622214006969e-01       4.001145319306e+02 
       4.800702491654e-01       3.690891190246e+02 
       4.991459272112e-01       3.394768026065e+02 
       5.196665217302e-01       3.119855994713e+02 
       5.419201087032e-01       2.852476044740e+02 
       5.662975451962e-01       2.593313859134e+02 
       5.933463737275e-01       2.345478438090e+02 
       6.238638458458e-01       2.102309320549e+02 
       6.590669257916e-01       1.864337547356e+02 
       7.009246080454e-01       1.627257226235e+02 
       7.528593308799e-01       1.388182910264e+02 
       8.213469537518e-01       1.141881023936e+02 
       9.196980813302e-01       8.835940633060e+01 
       1.075112183810e+00       6.172608030449e+01 
       1.322697471132e+00       3.804267465635e+01 
       1.662328205042e+00       2.209804270195e+01 
       2.092692408506e+00       1.266920551628e+01 
       2.634543445090e+00       7.203372511845e+00 
       3.316693691389e+00       4.065153349984e+00 
       4.175469971226e+00       2.278627316760e+00 
       5.256605252960e+00       1.269358807950e+00 
       6.617673932723e+00       7.031417178146e-01 
       8.331157880872e+00       3.874791879803e-01 
       1.048830636590e+01       2.125112753835e-01 
       1.320399541071e+01       1.160365988237e-01 
       1.662284535976e+01       6.309940738926e-02 
       2.092692243973e+01       3.417963827567e-02 
       2.634543445002e+01       1.844594511896e-02 
       3.316693691389e+01       9.919235634900e-03 
       4.175469971226e+01       5.314611824856e-03 
       5.256605252960e+01       2.836711364205e-03 
       6.617673932723e+01       1.507711810473e-03 
