# Matter power spectrum P(k) at redshift z=0
# for k=1.04775e-05 to 67.6233 h/Mpc,
# number of wavenumbers equal to 246
#    1:k (h/Mpc)              2:P (Mpc/h)^3        
       1.047750691046e-05       5.020964811308e+01 
       1.131335172503e-05       5.407050701924e+01 
       1.221587619537e-05       5.822819068486e+01 
       1.319039970183e-05       6.270562594779e+01 
       1.424266597921e-05       6.752732240880e+01 
       1.537887696968e-05       7.271977206173e+01 
       1.660572937635e-05       7.831147247912e+01 
       1.793045413292e-05       8.433311821988e+01 
       1.936085902198e-05       9.081778249833e+01 
       2.090537469327e-05       9.780108069296e+01 
       2.257310435294e-05       1.053213197893e+02 
       2.437387741694e-05       1.134197377890e+02 
       2.631830744443e-05       1.221408203809e+02 
       2.841785469300e-05       1.315324642452e+02 
       3.068489366414e-05       1.416462094881e+02 
       3.313278603720e-05       1.525374501932e+02 
       3.577595942169e-05       1.642660688414e+02 
       3.862999239199e-05       1.768963506307e+02 
       4.171170630578e-05       1.904975994010e+02 
       4.503926444729e-05       2.051444491974e+02 
       4.863227907969e-05       2.209171465549e+02 
       5.251192703764e-05       2.379022224249e+02 
       5.670107454120e-05       2.561927927655e+02 
       6.122441196689e-05       2.758890444041e+02 
       6.610859936996e-05       2.970989227882e+02 
       7.138242361596e-05       3.199385560802e+02 
       7.707696804727e-05       3.445329783680e+02 
       8.322579568497e-05       3.710167318945e+02 
       8.986514704559e-05       3.995346444203e+02 
       9.703415373875e-05       4.302425407383e+02 
       1.047750691046e-04       4.633080766742e+02 
       1.131335172503e-04       4.989116271564e+02 
       1.221587619537e-04       5.372471950929e+02 
       1.319039970183e-04       5.785234129336e+02 
       1.424266597921e-04       6.229645936045e+02 
       1.537887696968e-04       6.708118490405e+02 
       1.660572937635e-04       7.223242666092e+02 
       1.793045413292e-04       7.777801560386e+02 
       1.936085902198e-04       8.374783614140e+02 
       2.090537469327e-04       9.017396271824e+02 
       2.257310435294e-04       9.709080268041e+02 
       2.437387741694e-04       1.045352449493e+03 
       2.631830744443e-04       1.125468123750e+03 
       2.841785469300e-04       1.211678180495e+03 
       3.068489366414e-04       1.304435250150e+03 
       3.313278603720e-04       1.404223053681e+03 
       3.577595942169e-04       1.511558014616e+03 
       3.862999239199e-04       1.626990837806e+03 
       4.171170630578e-04       1.751108028790e+03 
       4.503926444729e-04       1.884533382872e+03 
       4.863227907969e-04       2.027929378112e+03 
       5.251192703764e-04       2.181998448133e+03 
       5.670107454121e-04       2.347484102755e+03 
       6.122441196689e-04       2.525171871365e+03 
       6.610859936996e-04       2.715889983593e+03 
       7.138242361596e-04       2.920509688384e+03 
       7.707696804727e-04       3.139945100279e+03 
       8.322579568497e-04       3.375152337579e+03 
       8.986514704559e-04       3.627127831141e+03 
       9.703415373875e-04       3.896905453136e+03 
       1.047750691046e-03       4.185552174299e+03 
       1.131335172503e-03       4.494162430373e+03 
       1.221587619537e-03       4.823850706497e+03 
       1.319039970183e-03       5.175742739621e+03 
       1.424266597921e-03       5.551019596908e+03 
       1.537887696968e-03       5.950788340560e+03 
       1.660572937635e-03       6.376123051791e+03 
       1.793045413292e-03       6.828073901450e+03 
       1.936085902198e-03       7.307625381066e+03 
       2.090537469327e-03       7.815671868431e+03 
       2.257310435294e-03       8.352990375823e+03 
       2.437387741694e-03       8.920211064324e+03 
       2.631830744443e-03       9.517783069113e+03 
       2.841785469300e-03       1.014593704435e+04 
       3.068489366414e-03       1.080464502784e+04 
       3.313278603720e-03       1.149357460344e+04 
       3.577595942169e-03       1.221203621722e+04 
       3.862999239199e-03       1.295892539446e+04 
       4.171170630578e-03       1.373265989697e+04 
       4.503926444729e-03       1.453111835625e+04 
       4.863227907969e-03       1.535154985300e+04 
       5.251192703764e-03       1.619063614558e+04 
       5.670107454120e-03       1.704431257737e+04 
       6.122441196689e-03       1.790755939645e+04 
       6.610859936996e-03       1.877460416969e+04 
       7.138242361596e-03       1.963872430356e+04 
       7.707696804727e-03       2.049215714912e+04 
       8.322579568496e-03       2.132607231864e+04 
       8.986514704559e-03       2.213055095909e+04 
       9.703415373875e-03       2.289445472110e+04 
       1.047750691046e-02       2.360548236739e+04 
       1.131335172503e-02       2.425023099441e+04 
       1.221587619537e-02       2.481423924160e+04 
       1.319039970183e-02       2.528218904089e+04 
       1.424266597920e-02       2.563814510755e+04 
       1.537887696964e-02       2.586607202558e+04 
       1.660572937560e-02       2.595028966546e+04 
       1.793045412207e-02       2.587634794789e+04 
       1.936085889642e-02       2.563220551520e+04 
       2.090537351881e-02       2.520935807061e+04 
       2.257309534705e-02       2.460444501171e+04 
       2.437382002240e-02       2.382085351588e+04 
       2.631799943729e-02       2.287034629793e+04 
       2.841644544598e-02       2.177448294947e+04 
       3.067933354524e-02       2.056553758573e+04 
       3.311368469821e-02       1.928730113057e+04 
       3.571840442514e-02       1.799395549531e+04 
       3.847720347390e-02       1.674684619696e+04 
       4.135335537314e-02       1.560459543589e+04 
       4.429361666563e-02       1.461038549554e+04 
       4.724366437916e-02       1.378054544892e+04 
       5.016480834039e-02       1.310506430131e+04 
       5.303989618930e-02       1.255716061561e+04 
       5.586870668205e-02       1.210424986361e+04 
       5.866042679206e-02       1.171465751397e+04 
       6.142798931504e-02       1.136047360530e+04 
       6.418496438662e-02       1.101855836844e+04 
       6.694418832236e-02       1.067066993300e+04 
       6.971731104453e-02       1.030356715858e+04 
       7.251476154108e-02       9.908992473685e+03 
       7.534587669814e-02       9.483779005854e+03 
       7.821907664495e-02       9.029494716242e+03 
       8.114203771084e-02       8.552333596567e+03 
       8.412184533139e-02       8.061955272642e+03 
       8.716512277352e-02       7.570779969137e+03 
       9.027813693913e-02       7.092488667657e+03 
       9.346688429613e-02       6.640514285189e+03 
       9.673716026122e-02       6.226701376054e+03 
       1.000946150608e-01       5.859929370208e+03 
       1.035447986307e-01       5.545244004151e+03 
       1.070931966524e-01       5.283137534408e+03 
       1.107452594180e-01       5.069423805798e+03 
       1.145064248899e-01       4.895241878442e+03 
       1.183821370656e-01       4.747844083561e+03 
       1.223778605591e-01       4.611731505597e+03 
       1.264990921707e-01       4.470626943471e+03 
       1.307513701078e-01       4.310270810407e+03 
       1.351402814485e-01       4.121384597339e+03 
       1.396714683894e-01       3.902071829347e+03 
       1.443506337875e-01       3.658635191019e+03 
       1.491835464900e-01       3.404479743573e+03 
       1.541760469368e-01       3.156670577899e+03 
       1.593340535209e-01       2.931978689729e+03 
       1.646635701934e-01       2.742369476374e+03 
       1.701706958081e-01       2.592259295448e+03 
       1.758616357070e-01       2.477242266010e+03 
       1.817427160581e-01       2.385186418869e+03 
       1.878204014651e-01       2.300357838971e+03 
       1.941013163855e-01       2.205759963263e+03 
       2.005922709060e-01       2.090814244393e+03 
       2.073002914514e-01       1.956466797488e+03 
       2.142326570343e-01       1.814193104466e+03 
       2.213969417044e-01       1.679297599754e+03 
       2.288010639201e-01       1.563846680903e+03 
       2.364533436625e-01       1.472687285020e+03 
       2.443625682390e-01       1.401513501321e+03 
       2.525380678946e-01       1.338410927442e+03 
       2.609898025770e-01       1.270902572574e+03 
       2.697284614969e-01       1.193382402442e+03 
       2.787655775073e-01       1.109335640772e+03 
       2.881136588192e-01       1.028773515079e+03 
       2.977863412019e-01       9.604842250345e+02 
       3.077985646248e-01       9.050244874176e+02 
       3.181667793367e-01       8.561450077912e+02 
       3.289091877084e-01       8.061876063666e+02 
       3.400460298905e-01       7.523932309816e+02 
       3.515999235695e-01       6.989238918369e+02 
       3.635962710278e-01       6.510643005156e+02 
       3.760637505499e-01       6.101215922082e+02 
       3.890349143014e-01       5.721321427948e+02 
       4.025469215929e-01       5.337819703638e+02 
       4.166424455447e-01       4.956313471212e+02 
       4.313708034899e-01       4.604693534483e+02 
       4.467893781976e-01       4.287785349928e+02 
       4.629654198623e-01       3.987738902082e+02 
       4.799783500912e-01       3.692414666452e+02 
       4.979227318246e-01       3.412410515252e+02 
       5.169121269689e-01       3.154852436684e+02 
       5.370841403262e-01       2.908363746837e+02 
       5.586070463286e-01       2.671067346856e+02 
       5.816885093582e-01       2.448097124261e+02 
       6.065870143577e-01       2.235678366813e+02 
       6.336266466978e-01       2.032112399619e+02 
       6.632156057925e-01       1.838792728788e+02 
       6.958678637575e-01       1.653551775408e+02 
       7.322247983784e-01       1.476959411421e+02 
       7.730680193171e-01       1.308343104510e+02 
       8.193049551574e-01       1.148315805750e+02 
       8.718988013754e-01       9.976304463367e+01 
       9.317218028590e-01       8.577838408166e+01 
       9.993660906273e-01       7.305521493473e+01 
       1.075037109879e+00       6.173624422855e+01 
       1.158653485387e+00       5.187921069948e+01 
       1.250099156961e+00       4.344030974219e+01 
       1.349432400897e+00       3.628950006589e+01 
       1.456947456991e+00       3.026819633968e+01 
       1.573135110893e+00       2.521459158160e+01 
       1.698621895119e+00       2.098205268061e+01 
       1.834127512423e+00       1.744249636550e+01 
       1.980444933977e+00       1.448577846089e+01 
       2.138435191130e+00       1.201900606395e+01 
       2.309029198543e+00       9.963201314460e+00 
       2.493232376993e+00       8.251864555207e+00 
       2.692130394536e+00       6.828654094340e+00 
       2.906895533764e+00       5.646286045375e+00 
       3.138793596840e+00       4.664968752675e+00 
       3.389191365541e+00       3.851140285550e+00 
       3.659564656886e+00       3.176963215646e+00 
       3.951507021438e+00       2.618897635583e+00 
       4.266739135513e+00       2.157356764035e+00 
       4.607118942658e+00       1.775953127362e+00 
       4.974652604172e+00       1.460995893364e+00 
       5.371506323193e+00       1.201142420656e+00 
       5.800019112071e+00       9.868834748164e-01 
       6.262716578240e+00       8.103573349566e-01 
       6.762325809881e+00       6.650184698310e-01 
       7.301791449077e+00       5.454319871228e-01 
       7.884293047211e+00       4.471019279061e-01 
       8.513263804891e+00       3.663020246433e-01 
       9.192410806865e+00       2.999443509072e-01 
       9.925736871166e+00       2.454816914024e-01 
       1.071756414128e+01       2.008086229253e-01 
       1.157255956041e+01       1.641852908388e-01 
       1.249576237789e+01       1.341774875457e-01 
       1.349261385000e+01       1.096030392304e-01 
       1.456898931011e+01       8.948990512671e-02 
       1.573123279727e+01       7.303420762598e-02 
       1.698619444729e+01       5.957835061873e-02 
       1.834127086665e+01       4.858137355568e-02 
       1.980444872733e+01       3.959715163194e-02 
       2.138435183937e+01       3.226107081332e-02 
       2.309029197863e+01       2.627351464134e-02 
       2.493232376942e+01       2.138848113074e-02 
       2.692130394533e+01       1.740477864633e-02 
       2.906895533764e+01       1.415743707443e-02 
       3.138793596840e+01       1.151136282350e-02 
       3.389191365541e+01       9.355997199432e-03 
       3.659564656886e+01       7.601278411492e-03 
       3.951507021438e+01       6.173117614304e-03 
       4.266739135513e+01       5.011165718893e-03 
       4.607118942658e+01       4.066177476025e-03 
       4.974652604172e+01       3.298053244590e-03 
       5.371506323193e+01       2.673732750116e-03 
       5.800019112071e+01       2.166593161317e-03 
       6.262716578240e+01       1.754762726211e-03 
       6.762325809881e+01       1.420466390448e-03 
