# Matter power spectrum P(k) at redshift z=0
# for k=1.04775e-05 to 66.1767 h/Mpc,
# number of wavenumbers equal to 130
#    1:k (h/Mpc)              2:P (Mpc/h)^3        
       1.047750691046e-05       5.020964811308e+01 
       1.319039970183e-05       6.270562594781e+01 
       1.660572937635e-05       7.831147247912e+01 
       2.090537469327e-05       9.780108069297e+01 
       2.631830744443e-05       1.221408203809e+02 
       3.313278603720e-05       1.525374501932e+02 
       4.171170630578e-05       1.904975994009e+02 
       5.251192703764e-05       2.379022224249e+02 
       6.610859936996e-05       2.970989227881e+02 
       8.322579568497e-05       3.710167318946e+02 
       1.047750691046e-04       4.633080766742e+02 
       1.319039970183e-04       5.785234129335e+02 
       1.660572937635e-04       7.223242666092e+02 
       2.090537469327e-04       9.017396271824e+02 
       2.631830744443e-04       1.125468123750e+03 
       3.313278603720e-04       1.404223053681e+03 
       4.171170630578e-04       1.751108028790e+03 
       5.251192703764e-04       2.181998448133e+03 
       6.610859936996e-04       2.715889983593e+03 
       8.322579568497e-04       3.375152337134e+03 
       1.047750691046e-03       4.185552174303e+03 
       1.319039970183e-03       5.175742742718e+03 
       1.660572937635e-03       6.376123051778e+03 
       2.090537469327e-03       7.815671866130e+03 
       2.631830744443e-03       9.517783069112e+03 
       3.313278603720e-03       1.149357460346e+04 
       4.171170630578e-03       1.373266011047e+04 
       5.251192703764e-03       1.619063614560e+04 
       6.610859936996e-03       1.877460418846e+04 
       8.322579568497e-03       2.132607015192e+04 
       1.047750691046e-02       2.360547957887e+04 
       1.319039970183e-02       2.528218737068e+04 
       1.660572937633e-02       2.595027752144e+04 
       2.090537453514e-02       2.520934302450e+04 
       2.631818545635e-02       2.287033061364e+04 
       3.311571692125e-02       1.928627053143e+04 
       4.113809243311e-02       1.568421514513e+04 
       4.792590854610e-02       1.361063314133e+04 
       5.284436902701e-02       1.259130130050e+04 
       5.689644391095e-02       1.195555546941e+04 
       6.051252627066e-02       1.147549285221e+04 
       6.388413457411e-02       1.105590666801e+04 
       6.711249296401e-02       1.064900754095e+04 
       7.025823437965e-02       1.022928987544e+04 
       7.336115587705e-02       9.784529445509e+03 
       7.644928796912e-02       9.311646499824e+03 
       7.954353299775e-02       8.814533370117e+03 
       8.266024078725e-02       8.302117612254e+03 
       8.581273398637e-02       7.786940512349e+03 
       8.901225918437e-02       7.283187832012e+03 
       9.226860540985e-02       6.805160278716e+03 
       9.559052048996e-02       6.365641971630e+03 
       9.898599946599e-02       5.974406227746e+03 
       1.024624891378e-01       5.637331412777e+03 
       1.060270359164e-01       5.355767886846e+03 
       1.096863943056e-01       5.126237501510e+03 
       1.134471073830e-01       4.940484090679e+03 
       1.173155669539e-01       4.786161014677e+03 
       1.212980586983e-01       4.647931002683e+03 
       1.254007961065e-01       4.509160862004e+03 
       1.296299459934e-01       4.354556721352e+03 
       1.339916477160e-01       4.173210657745e+03 
       1.384920277736e-01       3.961162049246e+03 
       1.431372111762e-01       3.722687099376e+03 
       1.479333307714e-01       3.469543425850e+03 
       1.528865355934e-01       3.218343145015e+03 
       1.580029992204e-01       2.986289134759e+03 
       1.632889290723e-01       2.786969299481e+03 
       1.687505775527e-01       2.626832755624e+03 
       1.743942559171e-01       2.503757988989e+03 
       1.802263517371e-01       2.407336942422e+03 
       1.862533508214e-01       2.322246498479e+03 
       1.924818644494e-01       2.231549468785e+03 
       1.989186627765e-01       2.122191439157e+03 
       2.055707152847e-01       1.992023799090e+03 
       2.124452391818e-01       1.850325262515e+03 
       2.195497567139e-01       1.712183174740e+03 
       2.268921624510e-01       1.590992676949e+03 
       2.344808017550e-01       1.493668634124e+03 
       2.423245618548e-01       1.418312758270e+03 
       2.504329772620e-01       1.354466664652e+03 
       2.588163516754e-01       1.288931119206e+03 
       2.674858990930e-01       1.213936024952e+03 
       2.764539076010e-01       1.130693869575e+03 
       2.857339303080e-01       1.048102044221e+03 
       2.953410092148e-01       9.761820112516e+02 
       3.052919395542e-01       9.178122433414e+02 
       3.156055844677e-01       8.678988824028e+02 
       3.263032530092e-01       8.185250615150e+02 
       3.374091587054e-01       7.651450985035e+02 
       3.489509817175e-01       7.106692460118e+02 
       3.609605657343e-01       6.607858180216e+02 
       3.734747921333e-01       6.180869632733e+02 
       3.865366902904e-01       5.793107616861e+02 
       4.001968667448e-01       5.403917206864e+02 
       4.145153713076e-01       5.011516710235e+02 
       4.295641718077e-01       4.644987174371e+02 
       4.454304922144e-01       4.314085010197e+02 
       4.622214006969e-01       4.001139409602e+02 
       4.800702491654e-01       3.690889806006e+02 
       4.991459272112e-01       3.394769581533e+02 
       5.196665217302e-01       3.119856244406e+02 
       5.419201087032e-01       2.852475142111e+02 
       5.662975451962e-01       2.593301352198e+02 
       5.933463737275e-01       2.345478277217e+02 
       6.238638458458e-01       2.102306745172e+02 
       6.590669257916e-01       1.864334177500e+02 
       7.009246080454e-01       1.627252661366e+02 
       7.528593308799e-01       1.388186355107e+02 
       8.213469537518e-01       1.141883203847e+02 
       9.196980813302e-01       8.835923466745e+01 
       1.075112183810e+00       6.172619951041e+01 
       1.322697471132e+00       3.804296667057e+01 
       1.662328205042e+00       2.209802392961e+01 
       2.092692408506e+00       1.266920058066e+01 
       2.634543445090e+00       7.203369398385e+00 
       3.316693691389e+00       4.065154848543e+00 
       4.175469971226e+00       2.278626996039e+00 
       5.256605252960e+00       1.269356709042e+00 
       6.617673932723e+00       7.031399215994e-01 
       8.331157880872e+00       3.874792627671e-01 
       1.048830636590e+01       2.125127103470e-01 
       1.320399541071e+01       1.160375896008e-01 
       1.662284535976e+01       6.309906129184e-02 
       2.092692243973e+01       3.417997342569e-02 
       2.634543445002e+01       1.844617205993e-02 
       3.316693691389e+01       9.919139736413e-03 
       4.175469971226e+01       5.314655897426e-03 
       5.256605252960e+01       2.836696147338e-03 
       6.617673932723e+01       1.507708598067e-03 
