# Matter power spectrum P(k) at redshift z=0
# for k=1.04775e-05 to 66.1767 h/Mpc,
# number of wavenumbers equal to 130
#    1:k (h/Mpc)              2:P (Mpc/h)^3        
       1.047750691046e-05       5.020964811308e+01 
       1.319039970183e-05       6.270562594777e+01 
       1.660572937635e-05       7.831147247912e+01 
       2.090537469327e-05       9.780108069295e+01 
       2.631830744443e-05       1.221408203809e+02 
       3.313278603720e-05       1.525374501932e+02 
       4.171170630578e-05       1.904975994010e+02 
       5.251192703764e-05       2.379022224249e+02 
       6.610859936996e-05       2.970989227882e+02 
       8.322579568497e-05       3.710167318946e+02 
       1.047750691046e-04       4.633080766742e+02 
       1.319039970183e-04       5.785234129337e+02 
       1.660572937635e-04       7.223242666092e+02 
       2.090537469327e-04       9.017396271824e+02 
       2.631830744443e-04       1.125468123750e+03 
       3.313278603720e-04       1.404223053681e+03 
       4.171170630578e-04       1.751108028790e+03 
       5.251192703764e-04       2.181998448133e+03 
       6.610859936996e-04       2.715889983593e+03 
       8.322579568497e-04       3.375152337134e+03 
       1.047750691046e-03       4.185552174307e+03 
       1.319039970183e-03       5.175742744571e+03 
       1.660572937635e-03       6.376123051778e+03 
       2.090537469327e-03       7.815671865164e+03 
       2.631830744443e-03       9.517783069112e+03 
       3.313278603720e-03       1.149357460346e+04 
       4.171170630578e-03       1.373266009516e+04 
       5.251192703764e-03       1.619063614559e+04 
       6.610859936996e-03       1.877460415054e+04 
       8.322579568497e-03       2.132606952755e+04 
       1.047750691046e-02       2.360548734202e+04 
       1.319039970183e-02       2.528218636263e+04 
       1.660572937633e-02       2.595026815770e+04 
       2.090537453514e-02       2.520934420864e+04 
       2.631818545635e-02       2.287039259926e+04 
       3.311571692125e-02       1.928629039984e+04 
       4.113809243311e-02       1.568434127303e+04 
       4.792590854610e-02       1.361063728831e+04 
       5.284436902701e-02       1.259130476146e+04 
       5.689644391095e-02       1.195554099310e+04 
       6.051252627066e-02       1.147546895297e+04 
       6.388413457411e-02       1.105590355929e+04 
       6.711249296401e-02       1.064898336441e+04 
       7.025823437965e-02       1.022930253882e+04 
       7.336115587705e-02       9.784492529674e+03 
       7.644928796912e-02       9.311661844128e+03 
       7.954353299775e-02       8.814521502758e+03 
       8.266024078725e-02       8.302117049771e+03 
       8.581273398637e-02       7.786964180933e+03 
       8.901225918437e-02       7.283183010355e+03 
       9.226860540985e-02       6.805162216308e+03 
       9.559052048996e-02       6.365629201959e+03 
       9.898599946599e-02       5.974400076890e+03 
       1.024624891378e-01       5.637316625779e+03 
       1.060270359164e-01       5.355772425725e+03 
       1.096863943056e-01       5.126249379827e+03 
       1.134471073830e-01       4.940475674225e+03 
       1.173155669539e-01       4.786166151766e+03 
       1.212980586983e-01       4.647926815487e+03 
       1.254007961065e-01       4.509163338795e+03 
       1.296299459934e-01       4.354545742884e+03 
       1.339916477160e-01       4.173216230719e+03 
       1.384920277736e-01       3.961158758107e+03 
       1.431372111762e-01       3.722685750385e+03 
       1.479333307714e-01       3.469554163054e+03 
       1.528865355934e-01       3.218343052782e+03 
       1.580029992204e-01       2.986293056579e+03 
       1.632889290723e-01       2.786967725256e+03 
       1.687505775527e-01       2.626834256313e+03 
       1.743942559171e-01       2.503755796940e+03 
       1.802263517371e-01       2.407341015184e+03 
       1.862533508214e-01       2.322248042734e+03 
       1.924818644494e-01       2.231555289536e+03 
       1.989186627765e-01       2.122190328723e+03 
       2.055707152847e-01       1.992021711763e+03 
       2.124452391818e-01       1.850319438746e+03 
       2.195497567139e-01       1.712179571537e+03 
       2.268921624510e-01       1.590987758468e+03 
       2.344808017550e-01       1.493668808985e+03 
       2.423245618548e-01       1.418308380279e+03 
       2.504329772620e-01       1.354464891990e+03 
       2.588163516754e-01       1.288934926516e+03 
       2.674858990930e-01       1.213935910436e+03 
       2.764539076010e-01       1.130693765276e+03 
       2.857339303080e-01       1.048100732585e+03 
       2.953410092148e-01       9.761817772576e+02 
       3.052919395542e-01       9.178078282030e+02 
       3.156055844677e-01       8.678970018328e+02 
       3.263032530092e-01       8.185288589057e+02 
       3.374091587054e-01       7.651470621904e+02 
       3.489509817175e-01       7.106697324525e+02 
       3.609605657343e-01       6.607850441708e+02 
       3.734747921333e-01       6.180848973935e+02 
       3.865366902904e-01       5.793113204896e+02 
       4.001968667448e-01       5.403899621947e+02 
       4.145153713076e-01       5.011512661346e+02 
       4.295641718077e-01       4.644988775309e+02 
       4.454304922144e-01       4.314075809539e+02 
       4.622214006969e-01       4.001126923505e+02 
       4.800702491654e-01       3.690885617034e+02 
       4.991459272112e-01       3.394776509030e+02 
       5.196665217302e-01       3.119854057504e+02 
       5.419201087032e-01       2.852467336472e+02 
       5.662975451962e-01       2.593311873587e+02 
       5.933463737275e-01       2.345473407249e+02 
       6.238638458458e-01       2.102299153298e+02 
       6.590669257916e-01       1.864331174517e+02 
       7.009246080454e-01       1.627253416169e+02 
       7.528593308799e-01       1.388189144412e+02 
       8.213469537518e-01       1.141878263853e+02 
       9.196980813302e-01       8.835933527767e+01 
       1.075112183810e+00       6.172605558130e+01 
       1.322697471132e+00       3.804278844036e+01 
       1.662328205042e+00       2.209798379896e+01 
       2.092692408506e+00       1.266916748530e+01 
       2.634543445090e+00       7.203353151528e+00 
       3.316693691389e+00       4.065154056975e+00 
       4.175469971226e+00       2.278623659089e+00 
       5.256605252960e+00       1.269346521459e+00 
       6.617673932723e+00       7.031260363467e-01 
       8.331157880872e+00       3.874598314546e-01 
       1.048830636590e+01       2.124897857052e-01 
       1.320399541071e+01       1.160116144593e-01 
       1.662284535976e+01       6.306939078849e-02 
       2.092692243973e+01       3.414468684284e-02 
       2.634543445002e+01       1.840585597615e-02 
       3.316693691389e+01       9.873361642665e-03 
       4.175469971226e+01       5.263108771432e-03 
       5.256605252960e+01       2.779717106182e-03 
       6.617673932723e+01       1.445901086967e-03 
