# Matter power spectrum P(k) at redshift z=0
# for k=1.04775e-05 to 66.1767 h/Mpc,
# number of wavenumbers equal to 130
#    1:k (h/Mpc)              2:P (Mpc/h)^3        
       1.047750691046e-05       5.020964811307e+01 
       1.319039970183e-05       6.270562594778e+01 
       1.660572937635e-05       7.831147247911e+01 
       2.090537469327e-05       9.780108069294e+01 
       2.631830744443e-05       1.221408203809e+02 
       3.313278603720e-05       1.525374501932e+02 
       4.171170630578e-05       1.904975994010e+02 
       5.251192703764e-05       2.379022224249e+02 
       6.610859936996e-05       2.970989227881e+02 
       8.322579568497e-05       3.710167318945e+02 
       1.047750691046e-04       4.633080766742e+02 
       1.319039970183e-04       5.785234129336e+02 
       1.660572937635e-04       7.223242666092e+02 
       2.090537469327e-04       9.017396271824e+02 
       2.631830744443e-04       1.125468123750e+03 
       3.313278603720e-04       1.404223053681e+03 
       4.171170630578e-04       1.751108028790e+03 
       5.251192703764e-04       2.181998448133e+03 
       6.610859936996e-04       2.715889983593e+03 
       8.322579568497e-04       3.375152337134e+03 
       1.047750691046e-03       4.185552174308e+03 
       1.319039970183e-03       5.175742739243e+03 
       1.660572937635e-03       6.376123051778e+03 
       2.090537469327e-03       7.815671868415e+03 
       2.631830744443e-03       9.517783069112e+03 
       3.313278603720e-03       1.149357460346e+04 
       4.171170630578e-03       1.373266009455e+04 
       5.251192703764e-03       1.619063614560e+04 
       6.610859936996e-03       1.877460415712e+04 
       8.322579568497e-03       2.132607231888e+04 
       1.047750691046e-02       2.360548472969e+04 
       1.319039970183e-02       2.528218625584e+04 
       1.660572937633e-02       2.595027577047e+04 
       2.090537453514e-02       2.520935861989e+04 
       2.631818545635e-02       2.287034352241e+04 
       3.311571692125e-02       1.928628135206e+04 
       4.113809243311e-02       1.568428106602e+04 
       4.792590854610e-02       1.361064871241e+04 
       5.284436902701e-02       1.259129779625e+04 
       5.689644391095e-02       1.195556271520e+04 
       6.051252627066e-02       1.147547021645e+04 
       6.388413457411e-02       1.105588986400e+04 
       6.711249296401e-02       1.064899077633e+04 
       7.025823437965e-02       1.022930640449e+04 
       7.336115587705e-02       9.784515103698e+03 
       7.644928796912e-02       9.311663804311e+03 
       7.954353299775e-02       8.814523420865e+03 
       8.266024078725e-02       8.302115020618e+03 
       8.581273398637e-02       7.786957340144e+03 
       8.901225918437e-02       7.283175518904e+03 
       9.226860540985e-02       6.805148871443e+03 
       9.559052048996e-02       6.365621471953e+03 
       9.898599946599e-02       5.974412018562e+03 
       1.024624891378e-01       5.637320344922e+03 
       1.060270359164e-01       5.355771359904e+03 
       1.096863943056e-01       5.126245968531e+03 
       1.134471073830e-01       4.940478854662e+03 
       1.173155669539e-01       4.786162355696e+03 
       1.212980586983e-01       4.647924641445e+03 
       1.254007961065e-01       4.509154590383e+03 
       1.296299459934e-01       4.354561316964e+03 
       1.339916477160e-01       4.173212271643e+03 
       1.384920277736e-01       3.961158782831e+03 
       1.431372111762e-01       3.722687490346e+03 
       1.479333307714e-01       3.469557627085e+03 
       1.528865355934e-01       3.218341632667e+03 
       1.580029992204e-01       2.986293180057e+03 
       1.632889290723e-01       2.786976337853e+03 
       1.687505775527e-01       2.626834840061e+03 
       1.743942559171e-01       2.503760026437e+03 
       1.802263517371e-01       2.407343923080e+03 
       1.862533508214e-01       2.322257227847e+03 
       1.924818644494e-01       2.231550694366e+03 
       1.989186627765e-01       2.122192577372e+03 
       2.055707152847e-01       1.992023006089e+03 
       2.124452391818e-01       1.850322618328e+03 
       2.195497567139e-01       1.712182564930e+03 
       2.268921624510e-01       1.590988178047e+03 
       2.344808017550e-01       1.493672784998e+03 
       2.423245618548e-01       1.418309802897e+03 
       2.504329772620e-01       1.354467231999e+03 
       2.588163516754e-01       1.288933493277e+03 
       2.674858990930e-01       1.213935634190e+03 
       2.764539076010e-01       1.130691149244e+03 
       2.857339303080e-01       1.048098608005e+03 
       2.953410092148e-01       9.761812274265e+02 
       3.052919395542e-01       9.178136830332e+02 
       3.156055844677e-01       8.679002828747e+02 
       3.263032530092e-01       8.185248743739e+02 
       3.374091587054e-01       7.651461432095e+02 
       3.489509817175e-01       7.106690754932e+02 
       3.609605657343e-01       6.607875068658e+02 
       3.734747921333e-01       6.180861152244e+02 
       3.865366902904e-01       5.793104301881e+02 
       4.001968667448e-01       5.403933498919e+02 
       4.145153713076e-01       5.011514434379e+02 
       4.295641718077e-01       4.644982471111e+02 
       4.454304922144e-01       4.314094224431e+02 
       4.622214006969e-01       4.001134931770e+02 
       4.800702491654e-01       3.690884004545e+02 
       4.991459272112e-01       3.394767875594e+02 
       5.196665217302e-01       3.119861589717e+02 
       5.419201087032e-01       2.852476634934e+02 
       5.662975451962e-01       2.593309998912e+02 
       5.933463737275e-01       2.345479426416e+02 
       6.238638458458e-01       2.102307504796e+02 
       6.590669257916e-01       1.864337344218e+02 
       7.009246080454e-01       1.627252130822e+02 
       7.528593308799e-01       1.388186073450e+02 
       8.213469537518e-01       1.141881675877e+02 
       9.196980813302e-01       8.835963850367e+01 
       1.075112183810e+00       6.172608033269e+01 
       1.322697471132e+00       3.804286873070e+01 
       1.662328205042e+00       2.209804278813e+01 
       2.092692408506e+00       1.266923128503e+01 
       2.634543445090e+00       7.203359500011e+00 
       3.316693691389e+00       4.065150811725e+00 
       4.175469971226e+00       2.278619117330e+00 
       5.256605252960e+00       1.269357768881e+00 
       6.617673932723e+00       7.031407390452e-01 
       8.331157880872e+00       3.874779090543e-01 
       1.048830636590e+01       2.125112646347e-01 
       1.320399541071e+01       1.160373463284e-01 
       1.662284535976e+01       6.309866694901e-02 
       2.092692243973e+01       3.417963663541e-02 
       2.634543445002e+01       1.844612386127e-02 
       3.316693691389e+01       9.919216708986e-03 
       4.175469971226e+01       5.314582429153e-03 
       5.256605252960e+01       2.836696629233e-03 
       6.617673932723e+01       1.507704732020e-03 
