# Matter power spectrum P(k) at redshift z=99
# for k=1.04775e-05 to 66.1767 h/Mpc,
# number of wavenumbers equal to 130
#    1:k (h/Mpc)              2:P (Mpc/h)^3        
       1.047750691046e-05       7.261927680862e-03 
       1.319039970183e-05       9.069258201848e-03 
       1.660572937635e-05       1.132639106725e-02 
       2.090537469327e-05       1.414527123399e-02 
       2.631830744443e-05       1.766569584058e-02 
       3.313278603720e-05       2.206225515942e-02 
       4.171170630578e-05       2.755297766277e-02 
       5.251192703764e-05       3.441013522947e-02 
       6.610859936996e-05       4.297372172777e-02 
       8.322579568497e-05       5.366826852944e-02 
       1.047750691046e-04       6.702379872774e-02 
       1.319039970183e-04       8.370193441286e-02 
       1.660572937635e-04       1.045283355384e-01 
       2.090537469327e-04       1.305329134104e-01 
       2.631830744443e-04       1.629994506605e-01 
       3.313278603720e-04       2.035264004601e-01 
       4.171170630578e-04       2.541004744243e-01 
       5.251192703764e-04       3.171839528558e-01 
       6.610859936996e-04       3.958147256513e-01 
       8.322579568497e-04       4.937136006273e-01 
       1.047750691046e-03       6.153841636042e-01 
       1.319039970183e-03       7.661720592242e-01 
       1.660572937635e-03       9.522588016482e-01 
       2.090537469327e-03       1.180312991699e+00 
       2.631830744443e-03       1.456802684686e+00 
       3.313278603720e-03       1.786503854038e+00 
       4.171170630578e-03       2.169896195156e+00 
       5.251192703764e-03       2.599430630722e+00 
       6.610859936996e-03       3.055668712266e+00 
       8.322579568497e-03       3.505725127420e+00 
       1.047750691046e-02       3.905491830120e+00 
       1.319039970183e-02       4.200915225527e+00 
       1.660572937633e-02       4.325060001665e+00 
       2.090537453514e-02       4.210206670266e+00 
       2.631818545635e-02       3.825148998932e+00 
       3.311571692125e-02       3.229060857616e+00 
       4.113809243311e-02       2.627726067925e+00 
       4.792590854610e-02       2.280795064594e+00 
       5.284436902701e-02       2.110086086983e+00 
       5.689644391095e-02       2.003538532060e+00 
       6.051252627066e-02       1.923057678523e+00 
       6.388413457411e-02       1.852732550459e+00 
       6.711249296401e-02       1.784565343720e+00 
       7.025823437965e-02       1.714272818983e+00 
       7.336115587705e-02       1.639817836160e+00 
       7.644928796912e-02       1.560664052266e+00 
       7.954353299775e-02       1.477456653351e+00 
       8.266024078725e-02       1.391697303043e+00 
       8.581273398637e-02       1.305460127564e+00 
       8.901225918437e-02       1.221126303167e+00 
       9.226860540985e-02       1.141081626400e+00 
       9.559052048996e-02       1.067460189471e+00 
       9.898599946599e-02       1.001892683040e+00 
       1.024624891378e-01       9.453802750240e-01 
       1.060270359164e-01       8.981494883112e-01 
       1.096863943056e-01       8.596135559216e-01 
       1.134471073830e-01       8.284053090172e-01 
       1.173155669539e-01       8.024685733606e-01 
       1.212980586983e-01       7.792285942608e-01 
       1.254007961065e-01       7.559180397639e-01 
       1.296299459934e-01       7.299825689068e-01 
       1.339916477160e-01       6.995916876741e-01 
       1.384920277736e-01       6.640783282686e-01 
       1.431372111762e-01       6.241468174088e-01 
       1.479333307714e-01       5.817636559081e-01 
       1.528865355934e-01       5.396934949123e-01 
       1.580029992204e-01       5.008139343759e-01 
       1.632889290723e-01       4.673991206148e-01 
       1.687505775527e-01       4.405332587181e-01 
       1.743942559171e-01       4.198655638338e-01 
       1.802263517371e-01       4.036595006069e-01 
       1.862533508214e-01       3.893605692929e-01 
       1.924818644494e-01       3.741345183136e-01 
       1.989186627765e-01       3.558024662839e-01 
       2.055707152847e-01       3.339985253920e-01 
       2.124452391818e-01       3.102651765679e-01 
       2.195497567139e-01       2.871228761449e-01 
       2.268921624510e-01       2.668081587163e-01 
       2.344808017550e-01       2.504832281063e-01 
       2.423245618548e-01       2.378334232189e-01 
       2.504329772620e-01       2.271126234615e-01 
       2.588163516754e-01       2.161173270187e-01 
       2.674858990930e-01       2.035454223365e-01 
       2.764539076010e-01       1.895976984669e-01 
       2.857339303080e-01       1.757569247659e-01 
       2.953410092148e-01       1.636999648049e-01 
       3.052919395542e-01       1.539066046171e-01 
       3.156055844677e-01       1.455310519433e-01 
       3.263032530092e-01       1.372501913144e-01 
       3.374091587054e-01       1.283021509572e-01 
       3.489509817175e-01       1.191714844295e-01 
       3.609605657343e-01       1.108073761276e-01 
       3.734747921333e-01       1.036453311828e-01 
       3.865366902904e-01       9.714150080228e-02 
       4.001968667448e-01       9.061574387743e-02 
       4.145153713076e-01       8.403689772497e-02 
       4.295641718077e-01       7.789137610614e-02 
       4.454304922144e-01       7.234169625664e-02 
       4.622214006969e-01       6.709383129772e-02 
       4.800702491654e-01       6.189191005083e-02 
       4.991459272112e-01       5.692646909506e-02 
       5.196665217302e-01       5.231620820342e-02 
       5.419201087032e-01       4.783262412155e-02 
       5.662975451962e-01       4.348695804001e-02 
       5.933463737275e-01       3.933110376569e-02 
       6.238638458458e-01       3.525350249690e-02 
       6.590669257916e-01       3.126290331107e-02 
       7.009246080454e-01       2.728743471060e-02 
       7.528593308799e-01       2.327850881306e-02 
       8.213469537518e-01       1.914822603361e-02 
       9.196980813302e-01       1.481704445167e-02 
       1.075112183810e+00       1.035091967308e-02 
       1.322697471132e+00       6.379457153628e-03 
       1.662328205042e+00       3.705654573190e-03 
       2.092692408506e+00       2.124534585240e-03 
       2.634543445090e+00       1.207963302496e-03 
       3.316693691389e+00       6.817080852716e-04 
       4.175469971226e+00       3.821175460365e-04 
       5.256605252960e+00       2.128690814460e-04 
       6.617673932723e+00       1.179131879283e-04 
       8.331157880872e+00       6.497552847384e-05 
       1.048830636590e+01       3.562989021122e-05 
       1.320399541071e+01       1.944684453730e-05 
       1.662284535976e+01       1.056333588730e-05 
       2.092692243973e+01       5.706694751770e-06 
       2.634543445002e+01       3.060102141631e-06 
       3.316693691389e+01       1.621020281296e-06 
       4.175469971226e+01       8.391104943274e-07 
       5.256605252960e+01       4.143909393219e-07 
       6.617673932723e+01       1.850918351460e-07 
