# Matter power spectrum P(k) at redshift z=0
# for k=1.04775e-05 to 66.1767 h/Mpc,
# number of wavenumbers equal to 130
#    1:k (h/Mpc)              2:P (Mpc/h)^3        
       1.047750691046e-05       5.020964811307e+01 
       1.319039970183e-05       6.270562594779e+01 
       1.660572937635e-05       7.831147247912e+01 
       2.090537469327e-05       9.780108069296e+01 
       2.631830744443e-05       1.221408203809e+02 
       3.313278603720e-05       1.525374501932e+02 
       4.171170630578e-05       1.904975994010e+02 
       5.251192703764e-05       2.379022224249e+02 
       6.610859936996e-05       2.970989227881e+02 
       8.322579568497e-05       3.710167318946e+02 
       1.047750691046e-04       4.633080766742e+02 
       1.319039970183e-04       5.785234129335e+02 
       1.660572937635e-04       7.223242666092e+02 
       2.090537469327e-04       9.017396271824e+02 
       2.631830744443e-04       1.125468123750e+03 
       3.313278603720e-04       1.404223053681e+03 
       4.171170630578e-04       1.751108028789e+03 
       5.251192703764e-04       2.181998448133e+03 
       6.610859936996e-04       2.715889983592e+03 
       8.322579568497e-04       3.375152337134e+03 
       1.047750691046e-03       4.185552174305e+03 
       1.319039970183e-03       5.175742744070e+03 
       1.660572937635e-03       6.376123051780e+03 
       2.090537469327e-03       7.815671910952e+03 
       2.631830744443e-03       9.517783069112e+03 
       3.313278603720e-03       1.149357460346e+04 
       4.171170630578e-03       1.373266009579e+04 
       5.251192703764e-03       1.619063614512e+04 
       6.610859936996e-03       1.877460423072e+04 
       8.322579568497e-03       2.132606940237e+04 
       1.047750691046e-02       2.360548612034e+04 
       1.319039970183e-02       2.528218614803e+04 
       1.660572937633e-02       2.595027255563e+04 
       2.090537453514e-02       2.520935681188e+04 
       2.631818545635e-02       2.287033974697e+04 
       3.311571692125e-02       1.928623484759e+04 
       4.113809243311e-02       1.568425252180e+04 
       4.792590854610e-02       1.361064418946e+04 
       5.284436902701e-02       1.259134241995e+04 
       5.689644391095e-02       1.195554602997e+04 
       6.051252627066e-02       1.147547825899e+04 
       6.388413457411e-02       1.105586153527e+04 
       6.711249296401e-02       1.064897530784e+04 
       7.025823437965e-02       1.022929268223e+04 
       7.336115587705e-02       9.784520184194e+03 
       7.644928796912e-02       9.311642465383e+03 
       7.954353299775e-02       8.814539091769e+03 
       8.266024078725e-02       8.302125787431e+03 
       8.581273398637e-02       7.786958375214e+03 
       8.901225918437e-02       7.283114705070e+03 
       9.226860540985e-02       6.805169898066e+03 
       9.559052048996e-02       6.365585388214e+03 
       9.898599946599e-02       5.974401341578e+03 
       1.024624891378e-01       5.637351647068e+03 
       1.060270359164e-01       5.355779594289e+03 
       1.096863943056e-01       5.126223752895e+03 
       1.134471073830e-01       4.940462278474e+03 
       1.173155669539e-01       4.786163664490e+03 
       1.212980586983e-01       4.647935440774e+03 
       1.254007961065e-01       4.509140125868e+03 
       1.296299459934e-01       4.354544973203e+03 
       1.339916477160e-01       4.173218364459e+03 
       1.384920277736e-01       3.961174600526e+03 
       1.431372111762e-01       3.722685463951e+03 
       1.479333307714e-01       3.469543438594e+03 
       1.528865355934e-01       3.218341016796e+03 
       1.580029992204e-01       2.986282452572e+03 
       1.632889290723e-01       2.786957499020e+03 
       1.687505775527e-01       2.626820120955e+03 
       1.743942559171e-01       2.503744115967e+03 
       1.802263517371e-01       2.407332040082e+03 
       1.862533508214e-01       2.322256189631e+03 
       1.924818644494e-01       2.231548188012e+03 
       1.989186627765e-01       2.122185753362e+03 
       2.055707152847e-01       1.992023469409e+03 
       2.124452391818e-01       1.850322218871e+03 
       2.195497567139e-01       1.712163079108e+03 
       2.268921624510e-01       1.590989106687e+03 
       2.344808017550e-01       1.493665712952e+03 
       2.423245618548e-01       1.418304824257e+03 
       2.504329772620e-01       1.354468476461e+03 
       2.588163516754e-01       1.288935185482e+03 
       2.674858990930e-01       1.213932166994e+03 
       2.764539076010e-01       1.130690710611e+03 
       2.857339303080e-01       1.048095244779e+03 
       2.953410092148e-01       9.761767802488e+02 
       3.052919395542e-01       9.178071708219e+02 
       3.156055844677e-01       8.678965476453e+02 
       3.263032530092e-01       8.185235594129e+02 
       3.374091587054e-01       7.651450039099e+02 
       3.489509817175e-01       7.106681653096e+02 
       3.609605657343e-01       6.607828218459e+02 
       3.734747921333e-01       6.180824187900e+02 
       3.865366902904e-01       5.793091715033e+02 
       4.001968667448e-01       5.403898010408e+02 
       4.145153713076e-01       5.011494378077e+02 
       4.295641718077e-01       4.644981008591e+02 
       4.454304922144e-01       4.314076798246e+02 
       4.622214006969e-01       4.001107172656e+02 
       4.800702491654e-01       3.690885034186e+02 
       4.991459272112e-01       3.394736382784e+02 
       5.196665217302e-01       3.119831520541e+02 
       5.419201087032e-01       2.852463135261e+02 
       5.662975451962e-01       2.593297938124e+02 
       5.933463737275e-01       2.345470824368e+02 
       6.238638458458e-01       2.102292994499e+02 
       6.590669257916e-01       1.864326064391e+02 
       7.009246080454e-01       1.627247324163e+02 
       7.528593308799e-01       1.388178959008e+02 
       8.213469537518e-01       1.141879523354e+02 
       9.196980813302e-01       8.835899492509e+01 
       1.075112183810e+00       6.172569008297e+01 
       1.322697471132e+00       3.804267584794e+01 
       1.662328205042e+00       2.209782126217e+01 
       2.092692408506e+00       1.266911240331e+01 
       2.634543445090e+00       7.203241330810e+00 
       3.316693691389e+00       4.065098416272e+00 
       4.175469971226e+00       2.278605610142e+00 
       5.256605252960e+00       1.269338333990e+00 
       6.617673932723e+00       7.031240892947e-01 
       8.331157880872e+00       3.874743882936e-01 
       1.048830636590e+01       2.125052792686e-01 
       1.320399541071e+01       1.160324937060e-01 
       1.662284535976e+01       6.309520974187e-02 
       2.092692243973e+01       3.417624027255e-02 
       2.634543445002e+01       1.844299555291e-02 
       3.316693691389e+01       9.916291539235e-03 
       4.175469971226e+01       5.312070550873e-03 
       5.256605252960e+01       2.834373342164e-03 
       6.617673932723e+01       1.505600821407e-03 
