# Matter power spectrum P(k) at redshift z=0
# for k=1.04775e-05 to 66.1767 h/Mpc,
# number of wavenumbers equal to 130
#    1:k (h/Mpc)              2:P (Mpc/h)^3        
       1.047750691046e-05       5.020964811314e+01 
       1.319039970183e-05       6.270562594787e+01 
       1.660572937635e-05       7.831147247912e+01 
       2.090537469327e-05       9.780108069295e+01 
       2.631830744443e-05       1.221408203809e+02 
       3.313278603720e-05       1.525374501932e+02 
       4.171170630578e-05       1.904975994011e+02 
       5.251192703764e-05       2.379022224246e+02 
       6.610859936996e-05       2.970989227882e+02 
       8.322579568497e-05       3.710167318944e+02 
       1.047750691046e-04       4.633080766738e+02 
       1.319039970183e-04       5.785234129329e+02 
       1.660572937635e-04       7.223242666076e+02 
       2.090537469327e-04       9.017396271792e+02 
       2.631830744443e-04       1.125468123743e+03 
       3.313278603720e-04       1.404223053668e+03 
       4.171170630578e-04       1.751108028766e+03 
       5.251192703764e-04       2.181998448083e+03 
       6.610859936996e-04       2.715889983493e+03 
       8.322579568497e-04       3.375152336938e+03 
       1.047750691046e-03       4.185552173920e+03 
       1.319039970183e-03       5.175742738256e+03 
       1.660572937635e-03       6.376123050154e+03 
       2.090537469327e-03       7.815671862807e+03 
       2.631830744443e-03       9.517783061942e+03 
       3.313278603720e-03       1.149357458883e+04 
       4.171170630578e-03       1.373266010026e+04 
       5.251192703764e-03       1.619062762236e+04 
       6.610859936996e-03       1.877459761789e+04 
       8.322579568497e-03       2.132610903992e+04 
       1.047750691046e-02       2.360546376714e+04 
       1.319039970183e-02       2.528217102251e+04 
       1.660572937633e-02       2.594997620870e+04 
       2.090537453514e-02       2.520922456499e+04 
       2.631818545635e-02       2.287013468128e+04 
       3.311571692125e-02       1.928610257742e+04 
       4.113809243311e-02       1.568415232177e+04 
       4.792590854610e-02       1.361050970268e+04 
       5.284436902701e-02       1.259121056160e+04 
       5.689644391095e-02       1.195549952267e+04 
       6.051252627066e-02       1.147543819878e+04 
       6.388413457411e-02       1.105558622636e+04 
       6.711249296401e-02       1.064880258145e+04 
       7.025823437965e-02       1.022926818946e+04 
       7.336115587705e-02       9.784524467427e+03 
       7.644928796912e-02       9.311675674726e+03 
       7.954353299775e-02       8.814444851599e+03 
       8.266024078725e-02       8.301896552894e+03 
       8.581273398637e-02       7.786900177683e+03 
       8.901225918437e-02       7.283188947617e+03 
       9.226860540985e-02       6.805132083917e+03 
       9.559052048996e-02       6.365622255570e+03 
       9.898599946599e-02       5.974341867210e+03 
       1.024624891378e-01       5.637286367306e+03 
       1.060270359164e-01       5.355750586757e+03 
       1.096863943056e-01       5.126189579021e+03 
       1.134471073830e-01       4.940421123630e+03 
       1.173155669539e-01       4.786094427628e+03 
       1.212980586983e-01       4.647859638149e+03 
       1.254007961065e-01       4.508978503132e+03 
       1.296299459934e-01       4.354478923405e+03 
       1.339916477160e-01       4.173068058328e+03 
       1.384920277736e-01       3.961098376146e+03 
       1.431372111762e-01       3.722509451449e+03 
       1.479333307714e-01       3.469465388437e+03 
       1.528865355934e-01       3.218226489023e+03 
       1.580029992204e-01       2.986149761645e+03 
       1.632889290723e-01       2.786849831432e+03 
       1.687505775527e-01       2.626708508210e+03 
       1.743942559171e-01       2.503650318836e+03 
       1.802263517371e-01       2.407185306696e+03 
       1.862533508214e-01       2.322137252431e+03 
       1.924818644494e-01       2.231431912414e+03 
       1.989186627765e-01       2.122070172810e+03 
       2.055707152847e-01       1.991898946337e+03 
       2.124452391818e-01       1.850156129314e+03 
       2.195497567139e-01       1.711998765209e+03 
       2.268921624510e-01       1.590805360834e+03 
       2.344808017550e-01       1.493485622783e+03 
       2.423245618548e-01       1.418127157490e+03 
       2.504329772620e-01       1.354255966866e+03 
       2.588163516754e-01       1.288734280568e+03 
       2.674858990930e-01       1.213696759079e+03 
       2.764539076010e-01       1.130465429860e+03 
       2.857339303080e-01       1.047857910642e+03 
       2.953410092148e-01       9.759382456268e+02 
       3.052919395542e-01       9.175555266118e+02 
       3.156055844677e-01       8.676253850418e+02 
       3.263032530092e-01       8.182534115041e+02 
       3.374091587054e-01       7.648551640383e+02 
       3.489509817175e-01       7.103645849307e+02 
       3.609605657343e-01       6.604701668599e+02 
       3.734747921333e-01       6.177618769724e+02 
       3.865366902904e-01       5.789637039963e+02 
       4.001968667448e-01       5.400311186030e+02 
       4.145153713076e-01       5.007784367394e+02 
       4.295641718077e-01       4.641076500181e+02 
       4.454304922144e-01       4.309986967614e+02 
       4.622214006969e-01       3.996816603992e+02 
       4.800702491654e-01       3.686415245696e+02 
       4.991459272112e-01       3.390042743471e+02 
       5.196665217302e-01       3.114893228413e+02 
       5.419201087032e-01       2.847244601963e+02 
       5.662975451962e-01       2.587778104565e+02 
       5.933463737275e-01       2.339635823768e+02 
       6.238638458458e-01       2.096087126090e+02 
       6.590669257916e-01       1.857689678428e+02 
       7.009246080454e-01       1.620089414584e+02 
       7.528593308799e-01       1.380376708340e+02 
       8.213469537518e-01       1.133224018647e+02 
       9.196980813302e-01       8.737076171379e+01 
       1.075112183810e+00       6.054549498643e+01 
       1.322697471132e+00       3.656695681464e+01 
       1.662328205042e+00       2.025583699212e+01 
       2.092692408506e+00       1.045629221893e+01 
       2.634543445090e+00       4.713973727763e+00 
       3.316693691389e+00       1.557934160464e+00 
       4.175469971226e+00       1.939665000979e-01 
       5.256605252960e+00       4.279926245539e-02 
       6.617673932723e+00       3.218021556451e-01 
       8.331157880872e+00       2.579648450665e-01 
       1.048830636590e+01       1.124312061300e-02 
       1.320399541071e+01       3.990389349215e-02 
       1.662284535976e+01       4.963743259234e-03 
       2.092692243973e+01       4.937903096779e-03 
       2.634543445002e+01       4.029532793492e-04 
       3.316693691389e+01       2.907219399160e-05 
       4.175469971226e+01       2.038691022944e-06 
       5.256605252960e+01       1.125818605589e-07 
       6.617673932723e+01       9.124803546869e-09 
