# Matter power spectrum P(k) at redshift z=0
# for k=1.04775e-05 to 66.1767 h/Mpc,
# number of wavenumbers equal to 130
#    1:k (h/Mpc)              2:P (Mpc/h)^3        
       1.047750691046e-05       5.020964811306e+01 
       1.319039970183e-05       6.270562594779e+01 
       1.660572937635e-05       7.831147247912e+01 
       2.090537469327e-05       9.780108069295e+01 
       2.631830744443e-05       1.221408203809e+02 
       3.313278603720e-05       1.525374501932e+02 
       4.171170630578e-05       1.904975994010e+02 
       5.251192703764e-05       2.379022224249e+02 
       6.610859936996e-05       2.970989227881e+02 
       8.322579568497e-05       3.710167318946e+02 
       1.047750691046e-04       4.633080766742e+02 
       1.319039970183e-04       5.785234129339e+02 
       1.660572937635e-04       7.223242666092e+02 
       2.090537469327e-04       9.017396271824e+02 
       2.631830744443e-04       1.125468123750e+03 
       3.313278603720e-04       1.404223053681e+03 
       4.171170630578e-04       1.751108028790e+03 
       5.251192703764e-04       2.181998448133e+03 
       6.610859936996e-04       2.715889983592e+03 
       8.322579568497e-04       3.375152337134e+03 
       1.047750691046e-03       4.185552174307e+03 
       1.319039970183e-03       5.175742744066e+03 
       1.660572937635e-03       6.376123051777e+03 
       2.090537469327e-03       7.815671863287e+03 
       2.631830744443e-03       9.517783069112e+03 
       3.313278603720e-03       1.149357460340e+04 
       4.171170630578e-03       1.373266009677e+04 
       5.251192703764e-03       1.619063614560e+04 
       6.610859936996e-03       1.877460420048e+04 
       8.322579568497e-03       2.132607231886e+04 
       1.047750691046e-02       2.360547970959e+04 
       1.319039970183e-02       2.528218679122e+04 
       1.660572937633e-02       2.595023349314e+04 
       2.090537453514e-02       2.520936321020e+04 
       2.631818545635e-02       2.287032930538e+04 
       3.311571692125e-02       1.928623189115e+04 
       4.113809243311e-02       1.568425377782e+04 
       4.792590854610e-02       1.361062508113e+04 
       5.284436902701e-02       1.259129488997e+04 
       5.689644391095e-02       1.195553223608e+04 
       6.051252627066e-02       1.147548964110e+04 
       6.388413457411e-02       1.105591389352e+04 
       6.711249296401e-02       1.064901011002e+04 
       7.025823437965e-02       1.022929085963e+04 
       7.336115587705e-02       9.784539729849e+03 
       7.644928796912e-02       9.311643358121e+03 
       7.954353299775e-02       8.814538813095e+03 
       8.266024078725e-02       8.302121334953e+03 
       8.581273398637e-02       7.786947090739e+03 
       8.901225918437e-02       7.283187429922e+03 
       9.226860540985e-02       6.805160371414e+03 
       9.559052048996e-02       6.365638660918e+03 
       9.898599946599e-02       5.974398675182e+03 
       1.024624891378e-01       5.637318162713e+03 
       1.060270359164e-01       5.355766826220e+03 
       1.096863943056e-01       5.126237601220e+03 
       1.134471073830e-01       4.940484308887e+03 
       1.173155669539e-01       4.786170537449e+03 
       1.212980586983e-01       4.647937234602e+03 
       1.254007961065e-01       4.509155983323e+03 
       1.296299459934e-01       4.354555392485e+03 
       1.339916477160e-01       4.173205699957e+03 
       1.384920277736e-01       3.961166720681e+03 
       1.431372111762e-01       3.722683147865e+03 
       1.479333307714e-01       3.469550030965e+03 
       1.528865355934e-01       3.218330456253e+03 
       1.580029992204e-01       2.986289039543e+03 
       1.632889290723e-01       2.786969121461e+03 
       1.687505775527e-01       2.626828205847e+03 
       1.743942559171e-01       2.503757042912e+03 
       1.802263517371e-01       2.407341724381e+03 
       1.862533508214e-01       2.322251577628e+03 
       1.924818644494e-01       2.231553038673e+03 
       1.989186627765e-01       2.122196058681e+03 
       2.055707152847e-01       1.992024919481e+03 
       2.124452391818e-01       1.850324323493e+03 
       2.195497567139e-01       1.712184893792e+03 
       2.268921624510e-01       1.590985201998e+03 
       2.344808017550e-01       1.493668800834e+03 
       2.423245618548e-01       1.418312647041e+03 
       2.504329772620e-01       1.354466980674e+03 
       2.588163516754e-01       1.288936226701e+03 
       2.674858990930e-01       1.213939259685e+03 
       2.764539076010e-01       1.130692308594e+03 
       2.857339303080e-01       1.048099781150e+03 
       2.953410092148e-01       9.761838418807e+02 
       3.052919395542e-01       9.178100203659e+02 
       3.156055844677e-01       8.678983704612e+02 
       3.263032530092e-01       8.185265395112e+02 
       3.374091587054e-01       7.651465350596e+02 
       3.489509817175e-01       7.106682904097e+02 
       3.609605657343e-01       6.607878959678e+02 
       3.734747921333e-01       6.180878215355e+02 
       3.865366902904e-01       5.793101090892e+02 
       4.001968667448e-01       5.403914685040e+02 
       4.145153713076e-01       5.011518603708e+02 
       4.295641718077e-01       4.645003412209e+02 
       4.454304922144e-01       4.314099379708e+02 
       4.622214006969e-01       4.001144272855e+02 
       4.800702491654e-01       3.690891066729e+02 
       4.991459272112e-01       3.394766657525e+02 
       5.196665217302e-01       3.119861177529e+02 
       5.419201087032e-01       2.852465002495e+02 
       5.662975451962e-01       2.593303419050e+02 
       5.933463737275e-01       2.345485653704e+02 
       6.238638458458e-01       2.102310047303e+02 
       6.590669257916e-01       1.864339532997e+02 
       7.009246080454e-01       1.627255582214e+02 
       7.528593308799e-01       1.388185263085e+02 
       8.213469537518e-01       1.141881945967e+02 
       9.196980813302e-01       8.835905884375e+01 
       1.075112183810e+00       6.172639397444e+01 
       1.322697471132e+00       3.804269547278e+01 
       1.662328205042e+00       2.209805579200e+01 
       2.092692408506e+00       1.266926441031e+01 
       2.634543445090e+00       7.203367030492e+00 
       3.316693691389e+00       4.065147158698e+00 
       4.175469971226e+00       2.278623689988e+00 
       5.256605252960e+00       1.269350708505e+00 
       6.617673932723e+00       7.031424164820e-01 
       8.331157880872e+00       3.874800851573e-01 
       1.048830636590e+01       2.125124901593e-01 
       1.320399541071e+01       1.160373126081e-01 
       1.662284535976e+01       6.309940751719e-02 
       2.092692243973e+01       3.417979631472e-02 
       2.634543445002e+01       1.844628595520e-02 
       3.316693691389e+01       9.919328441075e-03 
       4.175469971226e+01       5.314665591447e-03 
       5.256605252960e+01       2.836722981996e-03 
       6.617673932723e+01       1.507701862332e-03 
