# Matter power spectrum P(k) at redshift z=0
# for k=1.04775e-05 to 66.1767 h/Mpc,
# number of wavenumbers equal to 130
#    1:k (h/Mpc)              2:P (Mpc/h)^3        
       1.047750691046e-05       5.020964811308e+01 
       1.319039970183e-05       6.270562594773e+01 
       1.660572937635e-05       7.831147247912e+01 
       2.090537469327e-05       9.780108069296e+01 
       2.631830744443e-05       1.221408203809e+02 
       3.313278603720e-05       1.525374501932e+02 
       4.171170630578e-05       1.904975994010e+02 
       5.251192703764e-05       2.379022224249e+02 
       6.610859936996e-05       2.970989227881e+02 
       8.322579568497e-05       3.710167318946e+02 
       1.047750691046e-04       4.633080766742e+02 
       1.319039970183e-04       5.785234129335e+02 
       1.660572937635e-04       7.223242666092e+02 
       2.090537469327e-04       9.017396271824e+02 
       2.631830744443e-04       1.125468123750e+03 
       3.313278603720e-04       1.404223053681e+03 
       4.171170630578e-04       1.751108028790e+03 
       5.251192703764e-04       2.181998448133e+03 
       6.610859936996e-04       2.715889983591e+03 
       8.322579568497e-04       3.375152337134e+03 
       1.047750691046e-03       4.185552174306e+03 
       1.319039970183e-03       5.175742738292e+03 
       1.660572937635e-03       6.376123051776e+03 
       2.090537469327e-03       7.815671914738e+03 
       2.631830744443e-03       9.517783069113e+03 
       3.313278603720e-03       1.149357460345e+04 
       4.171170630578e-03       1.373266009631e+04 
       5.251192703764e-03       1.619063614560e+04 
       6.610859936996e-03       1.877460421721e+04 
       8.322579568497e-03       2.132607231671e+04 
       1.047750691046e-02       2.360548964015e+04 
       1.319039970183e-02       2.528218878391e+04 
       1.660572937633e-02       2.595029109728e+04 
       2.090537453514e-02       2.520932568260e+04 
       2.631818545635e-02       2.287032631072e+04 
       3.311571692125e-02       1.928628187810e+04 
       4.113809243311e-02       1.568427914682e+04 
       4.792590854610e-02       1.361062267474e+04 
       5.284436902701e-02       1.259130952852e+04 
       5.689644391095e-02       1.195555612746e+04 
       6.051252627066e-02       1.147547385136e+04 
       6.388413457411e-02       1.105590842391e+04 
       6.711249296401e-02       1.064897667592e+04 
       7.025823437965e-02       1.022930467858e+04 
       7.336115587705e-02       9.784535490837e+03 
       7.644928796912e-02       9.311654023012e+03 
       7.954353299775e-02       8.814542449109e+03 
       8.266024078725e-02       8.302122960235e+03 
       8.581273398637e-02       7.786950501557e+03 
       8.901225918437e-02       7.283169220060e+03 
       9.226860540985e-02       6.805167378740e+03 
       9.559052048996e-02       6.365631468599e+03 
       9.898599946599e-02       5.974389488399e+03 
       1.024624891378e-01       5.637332288679e+03 
       1.060270359164e-01       5.355775367431e+03 
       1.096863943056e-01       5.126232566320e+03 
       1.134471073830e-01       4.940477061333e+03 
       1.173155669539e-01       4.786166289136e+03 
       1.212980586983e-01       4.647938001918e+03 
       1.254007961065e-01       4.509151368891e+03 
       1.296299459934e-01       4.354565362798e+03 
       1.339916477160e-01       4.173206040085e+03 
       1.384920277736e-01       3.961158069760e+03 
       1.431372111762e-01       3.722681239098e+03 
       1.479333307714e-01       3.469555893412e+03 
       1.528865355934e-01       3.218340454290e+03 
       1.580029992204e-01       2.986289936107e+03 
       1.632889290723e-01       2.786967158808e+03 
       1.687505775527e-01       2.626831631982e+03 
       1.743942559171e-01       2.503756256537e+03 
       1.802263517371e-01       2.407342456434e+03 
       1.862533508214e-01       2.322247736404e+03 
       1.924818644494e-01       2.231551840361e+03 
       1.989186627765e-01       2.122187143468e+03 
       2.055707152847e-01       1.992019360445e+03 
       2.124452391818e-01       1.850322847353e+03 
       2.195497567139e-01       1.712187710305e+03 
       2.268921624510e-01       1.590988928713e+03 
       2.344808017550e-01       1.493668896702e+03 
       2.423245618548e-01       1.418310671624e+03 
       2.504329772620e-01       1.354467476857e+03 
       2.588163516754e-01       1.288931018125e+03 
       2.674858990930e-01       1.213939688416e+03 
       2.764539076010e-01       1.130695810430e+03 
       2.857339303080e-01       1.048099752995e+03 
       2.953410092148e-01       9.761830092001e+02 
       3.052919395542e-01       9.178108054456e+02 
       3.156055844677e-01       8.678979232690e+02 
       3.263032530092e-01       8.185256963170e+02 
       3.374091587054e-01       7.651474622854e+02 
       3.489509817175e-01       7.106707854959e+02 
       3.609605657343e-01       6.607853345935e+02 
       3.734747921333e-01       6.180873231203e+02 
       3.865366902904e-01       5.793113425667e+02 
       4.001968667448e-01       5.403910626072e+02 
       4.145153713076e-01       5.011519408982e+02 
       4.295641718077e-01       4.645000057126e+02 
       4.454304922144e-01       4.314098647596e+02 
       4.622214006969e-01       4.001139933541e+02 
       4.800702491654e-01       3.690894406021e+02 
       4.991459272112e-01       3.394759491071e+02 
       5.196665217302e-01       3.119862140680e+02 
       5.419201087032e-01       2.852471963714e+02 
       5.662975451962e-01       2.593314364029e+02 
       5.933463737275e-01       2.345484399694e+02 
       6.238638458458e-01       2.102309749912e+02 
       6.590669257916e-01       1.864333689619e+02 
       7.009246080454e-01       1.627253900467e+02 
       7.528593308799e-01       1.388185948991e+02 
       8.213469537518e-01       1.141883657937e+02 
       9.196980813302e-01       8.835952055017e+01 
       1.075112183810e+00       6.172604475577e+01 
       1.322697471132e+00       3.804292390932e+01 
       1.662328205042e+00       2.209804336413e+01 
       2.092692408506e+00       1.266924649572e+01 
       2.634543445090e+00       7.203385061450e+00 
       3.316693691389e+00       4.065165931910e+00 
       4.175469971226e+00       2.278618262080e+00 
       5.256605252960e+00       1.269356934068e+00 
       6.617673932723e+00       7.031398652285e-01 
       8.331157880872e+00       3.874797281294e-01 
       1.048830636590e+01       2.125096696533e-01 
       1.320399541071e+01       1.160363751265e-01 
       1.662284535976e+01       6.309917210691e-02 
       2.092692243973e+01       3.417948153302e-02 
       2.634543445002e+01       1.844602042650e-02 
       3.316693691389e+01       9.919191418606e-03 
       4.175469971226e+01       5.314646995152e-03 
       5.256605252960e+01       2.836709343272e-03 
       6.617673932723e+01       1.507709646341e-03 
