# Matter power spectrum P(k) at redshift z=99
# for k=1.04775e-05 to 66.1767 h/Mpc,
# number of wavenumbers equal to 130
#    1:k (h/Mpc)              2:P (Mpc/h)^3        
       1.047750691046e-05       7.261927680862e-03 
       1.319039970183e-05       9.069258201848e-03 
       1.660572937635e-05       1.132639106725e-02 
       2.090537469327e-05       1.414527123399e-02 
       2.631830744443e-05       1.766569584058e-02 
       3.313278603720e-05       2.206225515942e-02 
       4.171170630578e-05       2.755297766277e-02 
       5.251192703764e-05       3.441013522947e-02 
       6.610859936996e-05       4.297372172777e-02 
       8.322579568497e-05       5.366826852944e-02 
       1.047750691046e-04       6.702379872774e-02 
       1.319039970183e-04       8.370193441286e-02 
       1.660572937635e-04       1.045283355384e-01 
       2.090537469327e-04       1.305329134104e-01 
       2.631830744443e-04       1.629994506605e-01 
       3.313278603720e-04       2.035264004601e-01 
       4.171170630578e-04       2.541004744243e-01 
       5.251192703764e-04       3.171839528557e-01 
       6.610859936996e-04       3.958147256513e-01 
       8.322579568497e-04       4.937136006282e-01 
       1.047750691046e-03       6.153841636041e-01 
       1.319039970183e-03       7.661720592764e-01 
       1.660572937635e-03       9.522588016472e-01 
       2.090537469327e-03       1.180312991699e+00 
       2.631830744443e-03       1.456802684686e+00 
       3.313278603720e-03       1.786503854040e+00 
       4.171170630578e-03       2.169896195503e+00 
       5.251192703764e-03       2.599430630722e+00 
       6.610859936996e-03       3.055668695861e+00 
       8.322579568497e-03       3.505725598736e+00 
       1.047750691046e-02       3.905491143276e+00 
       1.319039970183e-02       4.200915421883e+00 
       1.660572937633e-02       4.325065442419e+00 
       2.090537453514e-02       4.210203928482e+00 
       2.631818545635e-02       3.825152262694e+00 
       3.311571692125e-02       3.229069916410e+00 
       4.113809243311e-02       2.627732604578e+00 
       4.792590854610e-02       2.280788576486e+00 
       5.284436902701e-02       2.110087784933e+00 
       5.689644391095e-02       2.003541803607e+00 
       6.051252627066e-02       1.923055956369e+00 
       6.388413457411e-02       1.852734213566e+00 
       6.711249296401e-02       1.784568076002e+00 
       7.025823437965e-02       1.714277936228e+00 
       7.336115587705e-02       1.639815014246e+00 
       7.644928796912e-02       1.560659898708e+00 
       7.954353299775e-02       1.477458243786e+00 
       8.266024078725e-02       1.391698575462e+00 
       8.581273398637e-02       1.305462535794e+00 
       8.901225918437e-02       1.221126908055e+00 
       9.226860540985e-02       1.141081028714e+00 
       9.559052048996e-02       1.067452969907e+00 
       9.898599946599e-02       1.001888257093e+00 
       1.024624891378e-01       9.453816048614e-01 
       1.060270359164e-01       8.981482551998e-01 
       1.096863943056e-01       8.596130970429e-01 
       1.134471073830e-01       8.284056469063e-01 
       1.173155669539e-01       8.024679064225e-01 
       1.212980586983e-01       7.792291164148e-01 
       1.254007961065e-01       7.559170101191e-01 
       1.296299459934e-01       7.299838457419e-01 
       1.339916477160e-01       6.995930930613e-01 
       1.384920277736e-01       6.640779996953e-01 
       1.431372111762e-01       6.241471876646e-01 
       1.479333307714e-01       5.817637197917e-01 
       1.528865355934e-01       5.396934528087e-01 
       1.580029992204e-01       5.008149259509e-01 
       1.632889290723e-01       4.673993130828e-01 
       1.687505775527e-01       4.405335272606e-01 
       1.743942559171e-01       4.198658963018e-01 
       1.802263517371e-01       4.036606048352e-01 
       1.862533508214e-01       3.893592309470e-01 
       1.924818644494e-01       3.741350049520e-01 
       1.989186627765e-01       3.558023640742e-01 
       2.055707152847e-01       3.339989629204e-01 
       2.124452391818e-01       3.102651658922e-01 
       2.195497567139e-01       2.871231093008e-01 
       2.268921624510e-01       2.668084299553e-01 
       2.344808017550e-01       2.504830008870e-01 
       2.423245618548e-01       2.378331392061e-01 
       2.504329772620e-01       2.271120314492e-01 
       2.588163516754e-01       2.161176009235e-01 
       2.674858990930e-01       2.035452794419e-01 
       2.764539076010e-01       1.895979903304e-01 
       2.857339303080e-01       1.757572457560e-01 
       2.953410092148e-01       1.636998480685e-01 
       3.052919395542e-01       1.539060703904e-01 
       3.156055844677e-01       1.455307405449e-01 
       3.263032530092e-01       1.372497948471e-01 
       3.374091587054e-01       1.283016249996e-01 
       3.489509817175e-01       1.191715106286e-01 
       3.609605657343e-01       1.108075373978e-01 
       3.734747921333e-01       1.036452031726e-01 
       3.865366902904e-01       9.714134265304e-02 
       4.001968667448e-01       9.061573537693e-02 
       4.145153713076e-01       8.403682763019e-02 
       4.295641718077e-01       7.789126555957e-02 
       4.454304922144e-01       7.234156656904e-02 
       4.622214006969e-01       6.709388976668e-02 
       4.800702491654e-01       6.189189361932e-02 
       4.991459272112e-01       5.692641322823e-02 
       5.196665217302e-01       5.231615307534e-02 
       5.419201087032e-01       4.783261247919e-02 
       5.662975451962e-01       4.348686055399e-02 
       5.933463737275e-01       3.933111269746e-02 
       6.238638458458e-01       3.525338708206e-02 
       6.590669257916e-01       3.126304144271e-02 
       7.009246080454e-01       2.728729095903e-02 
       7.528593308799e-01       2.327850698323e-02 
       8.213469537518e-01       1.914825428502e-02 
       9.196980813302e-01       1.481705475505e-02 
       1.075112183810e+00       1.035088706819e-02 
       1.322697471132e+00       6.379457477493e-03 
       1.662328205042e+00       3.705691349805e-03 
       2.092692408506e+00       2.124545531810e-03 
       2.634543445090e+00       1.207961846913e-03 
       3.316693691389e+00       6.817101994784e-04 
       4.175469971226e+00       3.821213560857e-04 
       5.256605252960e+00       2.128741547752e-04 
       6.617673932723e+00       1.179221446217e-04 
       8.331157880872e+00       6.498683287016e-05 
       1.048830636590e+01       3.564475442665e-05 
       1.320399541071e+01       1.946575513572e-05 
       1.662284535976e+01       1.058723577117e-05 
       2.092692243973e+01       5.736712414334e-06 
       2.634543445002e+01       3.097530169356e-06 
       3.316693691389e+01       1.666943323022e-06 
       4.175469971226e+01       8.942169348896e-07 
       5.256605252960e+01       4.781802141563e-07 
       6.617673932723e+01       2.548915376693e-07 
