# Matter power spectrum P(k) at redshift z=0
# for k=1.04775e-05 to 66.1767 h/Mpc,
# number of wavenumbers equal to 130
#    1:k (h/Mpc)              2:P (Mpc/h)^3        
       1.047750691046e-05       5.020964811308e+01 
       1.319039970183e-05       6.270562594777e+01 
       1.660572937635e-05       7.831147247912e+01 
       2.090537469327e-05       9.780108069293e+01 
       2.631830744443e-05       1.221408203810e+02 
       3.313278603720e-05       1.525374501932e+02 
       4.171170630578e-05       1.904975994010e+02 
       5.251192703764e-05       2.379022224249e+02 
       6.610859936996e-05       2.970989227883e+02 
       8.322579568497e-05       3.710167318946e+02 
       1.047750691046e-04       4.633080766742e+02 
       1.319039970183e-04       5.785234129331e+02 
       1.660572937635e-04       7.223242666092e+02 
       2.090537469327e-04       9.017396271824e+02 
       2.631830744443e-04       1.125468123750e+03 
       3.313278603720e-04       1.404223053681e+03 
       4.171170630578e-04       1.751108028790e+03 
       5.251192703764e-04       2.181998448133e+03 
       6.610859936996e-04       2.715889983591e+03 
       8.322579568497e-04       3.375152337133e+03 
       1.047750691046e-03       4.185552174302e+03 
       1.319039970183e-03       5.175742739617e+03 
       1.660572937635e-03       6.376123051773e+03 
       2.090537469327e-03       7.815671920690e+03 
       2.631830744443e-03       9.517783069084e+03 
       3.313278603720e-03       1.149357460335e+04 
       4.171170630578e-03       1.373266011648e+04 
       5.251192703764e-03       1.619063611489e+04 
       6.610859936996e-03       1.877460420102e+04 
       8.322579568497e-03       2.132607256042e+04 
       1.047750691046e-02       2.360548423996e+04 
       1.319039970183e-02       2.528219088605e+04 
       1.660572937633e-02       2.595027254485e+04 
       2.090537453514e-02       2.520932392890e+04 
       2.631818545635e-02       2.287031055760e+04 
       3.311571692125e-02       1.928629507334e+04 
       4.113809243311e-02       1.568425815875e+04 
       4.792590854610e-02       1.361063625160e+04 
       5.284436902701e-02       1.259132744174e+04 
       5.689644391095e-02       1.195561209657e+04 
       6.051252627066e-02       1.147550704720e+04 
       6.388413457411e-02       1.105591414333e+04 
       6.711249296401e-02       1.064902341703e+04 
       7.025823437965e-02       1.022935434183e+04 
       7.336115587705e-02       9.784525836835e+03 
       7.644928796912e-02       9.311673763081e+03 
       7.954353299775e-02       8.814576365436e+03 
       8.266024078725e-02       8.302172334848e+03 
       8.581273398637e-02       7.786980763631e+03 
       8.901225918437e-02       7.283237322053e+03 
       9.226860540985e-02       6.805199480657e+03 
       9.559052048996e-02       6.365646207738e+03 
       9.898599946599e-02       5.974415351756e+03 
       1.024624891378e-01       5.637375922241e+03 
       1.060270359164e-01       5.355801048091e+03 
       1.096863943056e-01       5.126244742116e+03 
       1.134471073830e-01       4.940513326457e+03 
       1.173155669539e-01       4.786174181416e+03 
       1.212980586983e-01       4.647943672296e+03 
       1.254007961065e-01       4.509072851156e+03 
       1.296299459934e-01       4.354546528933e+03 
       1.339916477160e-01       4.173235079965e+03 
       1.384920277736e-01       3.961156155730e+03 
       1.431372111762e-01       3.722628050518e+03 
       1.479333307714e-01       3.469552153851e+03 
       1.528865355934e-01       3.218323254136e+03 
       1.580029992204e-01       2.986261394973e+03 
       1.632889290723e-01       2.786939998114e+03 
       1.687505775527e-01       2.626806543806e+03 
       1.743942559171e-01       2.503757395359e+03 
       1.802263517371e-01       2.407305314021e+03 
       1.862533508214e-01       2.322261221691e+03 
       1.924818644494e-01       2.231522876831e+03 
       1.989186627765e-01       2.122198735684e+03 
       2.055707152847e-01       1.992030300742e+03 
       2.124452391818e-01       1.850297041371e+03 
       2.195497567139e-01       1.712156896702e+03 
       2.268921624510e-01       1.590971947431e+03 
       2.344808017550e-01       1.493662582316e+03 
       2.423245618548e-01       1.418303835159e+03 
       2.504329772620e-01       1.354444018171e+03 
       2.588163516754e-01       1.288931267158e+03 
       2.674858990930e-01       1.213906823740e+03 
       2.764539076010e-01       1.130684090941e+03 
       2.857339303080e-01       1.048086878566e+03 
       2.953410092148e-01       9.761713536790e+02 
       3.052919395542e-01       9.178042641064e+02 
       3.156055844677e-01       8.678841378630e+02 
       3.263032530092e-01       8.185242775519e+02 
       3.374091587054e-01       7.651413127255e+02 
       3.489509817175e-01       7.106590388637e+02 
       3.609605657343e-01       6.607769700208e+02 
       3.734747921333e-01       6.180813997916e+02 
       3.865366902904e-01       5.793011067486e+02 
       4.001968667448e-01       5.403819597628e+02 
       4.145153713076e-01       5.011428493437e+02 
       4.295641718077e-01       4.644939031285e+02 
       4.454304922144e-01       4.313996096038e+02 
       4.622214006969e-01       4.001085684419e+02 
       4.800702491654e-01       3.690821362355e+02 
       4.991459272112e-01       3.394701106226e+02 
       5.196665217302e-01       3.119791181071e+02 
       5.419201087032e-01       2.852411938775e+02 
       5.662975451962e-01       2.593258060235e+02 
       5.933463737275e-01       2.345434202780e+02 
       6.238638458458e-01       2.102285439484e+02 
       6.590669257916e-01       1.864308192346e+02 
       7.009246080454e-01       1.627231147738e+02 
       7.528593308799e-01       1.388164194574e+02 
       8.213469537518e-01       1.141870769801e+02 
       9.196980813302e-01       8.835712660377e+01 
       1.075112183810e+00       6.172439707403e+01 
       1.322697471132e+00       3.804070478172e+01 
       1.662328205042e+00       2.209522390751e+01 
       2.092692408506e+00       1.266563030482e+01 
       2.634543445090e+00       7.198772491400e+00 
       3.316693691389e+00       4.059262143351e+00 
       4.175469971226e+00       2.271017157978e+00 
       5.256605252960e+00       1.259548313535e+00 
       6.617673932723e+00       6.906151895504e-01 
       8.331157880872e+00       3.717078190835e-01 
       1.048830636590e+01       1.931290766851e-01 
       1.320399541071e+01       9.319283947815e-02 
       1.662284535976e+01       3.806492912985e-02 
       2.092692243973e+01       1.011221654256e-02 
       2.634543445002e+01       3.597171124386e-04 
       3.316693691389e+01       1.872516430193e-03 
       4.175469971226e+01       4.899133882242e-03 
       5.256605252960e+01       2.242103211315e-03 
       6.617673932723e+01       3.459293031662e-05 
