# Matter power spectrum P(k) at redshift z=0
# for k=1.04775e-05 to 66.1767 h/Mpc,
# number of wavenumbers equal to 130
#    1:k (h/Mpc)              2:P (Mpc/h)^3        
       1.047750691046e-05       5.020964811308e+01 
       1.319039970183e-05       6.270562594777e+01 
       1.660572937635e-05       7.831147247912e+01 
       2.090537469327e-05       9.780108069294e+01 
       2.631830744443e-05       1.221408203809e+02 
       3.313278603720e-05       1.525374501932e+02 
       4.171170630578e-05       1.904975994009e+02 
       5.251192703764e-05       2.379022224249e+02 
       6.610859936996e-05       2.970989227882e+02 
       8.322579568497e-05       3.710167318946e+02 
       1.047750691046e-04       4.633080766742e+02 
       1.319039970183e-04       5.785234129329e+02 
       1.660572937635e-04       7.223242666092e+02 
       2.090537469327e-04       9.017396271824e+02 
       2.631830744443e-04       1.125468123750e+03 
       3.313278603720e-04       1.404223053681e+03 
       4.171170630578e-04       1.751108028789e+03 
       5.251192703764e-04       2.181998448133e+03 
       6.610859936996e-04       2.715889983592e+03 
       8.322579568497e-04       3.375152337134e+03 
       1.047750691046e-03       4.185552174306e+03 
       1.319039970183e-03       5.175742738800e+03 
       1.660572937635e-03       6.376123051782e+03 
       2.090537469327e-03       7.815671866120e+03 
       2.631830744443e-03       9.517783069109e+03 
       3.313278603720e-03       1.149357460343e+04 
       4.171170630578e-03       1.373266008627e+04 
       5.251192703764e-03       1.619063614200e+04 
       6.610859936996e-03       1.877460421063e+04 
       8.322579568497e-03       2.132607234524e+04 
       1.047750691046e-02       2.360548583409e+04 
       1.319039970183e-02       2.528218636427e+04 
       1.660572937633e-02       2.595026550536e+04 
       2.090537453514e-02       2.520937649268e+04 
       2.631818545635e-02       2.287033579231e+04 
       3.311571692125e-02       1.928625292511e+04 
       4.113809243311e-02       1.568426892810e+04 
       4.792590854610e-02       1.361062854595e+04 
       5.284436902701e-02       1.259130783547e+04 
       5.689644391095e-02       1.195558301827e+04 
       6.051252627066e-02       1.147547705343e+04 
       6.388413457411e-02       1.105586100570e+04 
       6.711249296401e-02       1.064903961493e+04 
       7.025823437965e-02       1.022935107349e+04 
       7.336115587705e-02       9.784553163415e+03 
       7.644928796912e-02       9.311669386562e+03 
       7.954353299775e-02       8.814581243787e+03 
       8.266024078725e-02       8.302181365289e+03 
       8.581273398637e-02       7.786962549550e+03 
       8.901225918437e-02       7.283236448506e+03 
       9.226860540985e-02       6.805236755369e+03 
       9.559052048996e-02       6.365657670265e+03 
       9.898599946599e-02       5.974410269444e+03 
       1.024624891378e-01       5.637373628074e+03 
       1.060270359164e-01       5.355823796303e+03 
       1.096863943056e-01       5.126261050372e+03 
       1.134471073830e-01       4.940509978953e+03 
       1.173155669539e-01       4.786189292013e+03 
       1.212980586983e-01       4.647951097423e+03 
       1.254007961065e-01       4.509157641068e+03 
       1.296299459934e-01       4.354567302026e+03 
       1.339916477160e-01       4.173222760783e+03 
       1.384920277736e-01       3.961172037156e+03 
       1.431372111762e-01       3.722694225466e+03 
       1.479333307714e-01       3.469558087248e+03 
       1.528865355934e-01       3.218348839928e+03 
       1.580029992204e-01       2.986263894128e+03 
       1.632889290723e-01       2.786956433326e+03 
       1.687505775527e-01       2.626814856671e+03 
       1.743942559171e-01       2.503769226201e+03 
       1.802263517371e-01       2.407326770588e+03 
       1.862533508214e-01       2.322232700369e+03 
       1.924818644494e-01       2.231535840432e+03 
       1.989186627765e-01       2.122165913866e+03 
       2.055707152847e-01       1.992007189841e+03 
       2.124452391818e-01       1.850325081149e+03 
       2.195497567139e-01       1.712156384452e+03 
       2.268921624510e-01       1.590975192062e+03 
       2.344808017550e-01       1.493661694865e+03 
       2.423245618548e-01       1.418309451498e+03 
       2.504329772620e-01       1.354459735865e+03 
       2.588163516754e-01       1.288922830585e+03 
       2.674858990930e-01       1.213931000287e+03 
       2.764539076010e-01       1.130690248821e+03 
       2.857339303080e-01       1.048094256171e+03 
       2.953410092148e-01       9.761720875252e+02 
       3.052919395542e-01       9.178011942409e+02 
       3.156055844677e-01       8.678873890650e+02 
       3.263032530092e-01       8.185085490186e+02 
       3.374091587054e-01       7.651358166613e+02 
       3.489509817175e-01       7.106681490398e+02 
       3.609605657343e-01       6.607820991863e+02 
       3.734747921333e-01       6.180789815931e+02 
       3.865366902904e-01       5.793099411805e+02 
       4.001968667448e-01       5.403833065288e+02 
       4.145153713076e-01       5.011478971178e+02 
       4.295641718077e-01       4.644965712263e+02 
       4.454304922144e-01       4.314021926461e+02 
       4.622214006969e-01       4.001077261329e+02 
       4.800702491654e-01       3.690837245154e+02 
       4.991459272112e-01       3.394711338854e+02 
       5.196665217302e-01       3.119800289757e+02 
       5.419201087032e-01       2.852428220151e+02 
       5.662975451962e-01       2.593273248955e+02 
       5.933463737275e-01       2.345447501827e+02 
       6.238638458458e-01       2.102288868439e+02 
       6.590669257916e-01       1.864322017754e+02 
       7.009246080454e-01       1.627242588395e+02 
       7.528593308799e-01       1.388174237277e+02 
       8.213469537518e-01       1.141878428200e+02 
       9.196980813302e-01       8.835861769673e+01 
       1.075112183810e+00       6.172557073306e+01 
       1.322697471132e+00       3.804279935626e+01 
       1.662328205042e+00       2.209780240871e+01 
       2.092692408506e+00       1.266902568330e+01 
       2.634543445090e+00       7.203237472686e+00 
       3.316693691389e+00       4.065086947252e+00 
       4.175469971226e+00       2.278569212166e+00 
       5.256605252960e+00       1.269308258723e+00 
       6.617673932723e+00       7.030968484662e-01 
       8.331157880872e+00       3.874399310782e-01 
       1.048830636590e+01       2.124769645526e-01 
       1.320399541071e+01       1.160053042392e-01 
       1.662284535976e+01       6.307021092241e-02 
       2.092692243973e+01       3.415341150560e-02 
       2.634543445002e+01       1.842245097698e-02 
       3.316693691389e+01       9.897797280786e-03 
       4.175469971226e+01       5.295293764970e-03 
       5.256605252960e+01       2.819392966128e-03 
       6.617673932723e+01       1.492265086723e-03 
