# Matter power spectrum P(k) at redshift z=0
# for k=1.04775e-05 to 66.1767 h/Mpc,
# number of wavenumbers equal to 130
#    1:k (h/Mpc)              2:P (Mpc/h)^3        
       1.047750691046e-05       5.020964811307e+01 
       1.319039970183e-05       6.270562594775e+01 
       1.660572937635e-05       7.831147247912e+01 
       2.090537469327e-05       9.780108069296e+01 
       2.631830744443e-05       1.221408203809e+02 
       3.313278603720e-05       1.525374501932e+02 
       4.171170630578e-05       1.904975994009e+02 
       5.251192703764e-05       2.379022224249e+02 
       6.610859936996e-05       2.970989227882e+02 
       8.322579568497e-05       3.710167318946e+02 
       1.047750691046e-04       4.633080766742e+02 
       1.319039970183e-04       5.785234129338e+02 
       1.660572937635e-04       7.223242666092e+02 
       2.090537469327e-04       9.017396271824e+02 
       2.631830744443e-04       1.125468123750e+03 
       3.313278603720e-04       1.404223053681e+03 
       4.171170630578e-04       1.751108028790e+03 
       5.251192703764e-04       2.181998448133e+03 
       6.610859936996e-04       2.715889983592e+03 
       8.322579568497e-04       3.375152337133e+03 
       1.047750691046e-03       4.185552174303e+03 
       1.319039970183e-03       5.175742736117e+03 
       1.660572937635e-03       6.376123051774e+03 
       2.090537469327e-03       7.815671866018e+03 
       2.631830744443e-03       9.517783069109e+03 
       3.313278603720e-03       1.149357460344e+04 
       4.171170630578e-03       1.373266013893e+04 
       5.251192703764e-03       1.619063614161e+04 
       6.610859936996e-03       1.877460419690e+04 
       8.322579568497e-03       2.132607234969e+04 
       1.047750691046e-02       2.360548255423e+04 
       1.319039970183e-02       2.528218667143e+04 
       1.660572937633e-02       2.595027445940e+04 
       2.090537453514e-02       2.520936358000e+04 
       2.631818545635e-02       2.287036283350e+04 
       3.311571692125e-02       1.928625817503e+04 
       4.113809243311e-02       1.568427754950e+04 
       4.792590854610e-02       1.361062834399e+04 
       5.284436902701e-02       1.259128248936e+04 
       5.689644391095e-02       1.195558611344e+04 
       6.051252627066e-02       1.147547338608e+04 
       6.388413457411e-02       1.105593867439e+04 
       6.711249296401e-02       1.064905087853e+04 
       7.025823437965e-02       1.022933108239e+04 
       7.336115587705e-02       9.784572566741e+03 
       7.644928796912e-02       9.311655170579e+03 
       7.954353299775e-02       8.814566679617e+03 
       8.266024078725e-02       8.302207035051e+03 
       8.581273398637e-02       7.786970789981e+03 
       8.901225918437e-02       7.283254317139e+03 
       9.226860540985e-02       6.805223255474e+03 
       9.559052048996e-02       6.365652054496e+03 
       9.898599946599e-02       5.974399316446e+03 
       1.024624891378e-01       5.637372350197e+03 
       1.060270359164e-01       5.355799786196e+03 
       1.096863943056e-01       5.126271552934e+03 
       1.134471073830e-01       4.940507840225e+03 
       1.173155669539e-01       4.786191245569e+03 
       1.212980586983e-01       4.647962586825e+03 
       1.254007961065e-01       4.509160864703e+03 
       1.296299459934e-01       4.354563420630e+03 
       1.339916477160e-01       4.173224872971e+03 
       1.384920277736e-01       3.961182863468e+03 
       1.431372111762e-01       3.722705666121e+03 
       1.479333307714e-01       3.469555037904e+03 
       1.528865355934e-01       3.218349212649e+03 
       1.580029992204e-01       2.986265213445e+03 
       1.632889290723e-01       2.786965801972e+03 
       1.687505775527e-01       2.626816130316e+03 
       1.743942559171e-01       2.503774082653e+03 
       1.802263517371e-01       2.407324101679e+03 
       1.862533508214e-01       2.322235442811e+03 
       1.924818644494e-01       2.231527966294e+03 
       1.989186627765e-01       2.122180235577e+03 
       2.055707152847e-01       1.992009834365e+03 
       2.124452391818e-01       1.850322851883e+03 
       2.195497567139e-01       1.712162622524e+03 
       2.268921624510e-01       1.590979580551e+03 
       2.344808017550e-01       1.493660538358e+03 
       2.423245618548e-01       1.418309208360e+03 
       2.504329772620e-01       1.354460345407e+03 
       2.588163516754e-01       1.288941554511e+03 
       2.674858990930e-01       1.213933767673e+03 
       2.764539076010e-01       1.130689838334e+03 
       2.857339303080e-01       1.048095112540e+03 
       2.953410092148e-01       9.761700894362e+02 
       3.052919395542e-01       9.178006797143e+02 
       3.156055844677e-01       8.678866586156e+02 
       3.263032530092e-01       8.185262045190e+02 
       3.374091587054e-01       7.651372834018e+02 
       3.489509817175e-01       7.106704851660e+02 
       3.609605657343e-01       6.607819959654e+02 
       3.734747921333e-01       6.180798584055e+02 
       3.865366902904e-01       5.793112434397e+02 
       4.001968667448e-01       5.403817919984e+02 
       4.145153713076e-01       5.011462703269e+02 
       4.295641718077e-01       4.644969465701e+02 
       4.454304922144e-01       4.314027457956e+02 
       4.622214006969e-01       4.001065908165e+02 
       4.800702491654e-01       3.690832337013e+02 
       4.991459272112e-01       3.394717686393e+02 
       5.196665217302e-01       3.119803981157e+02 
       5.419201087032e-01       2.852424196670e+02 
       5.662975451962e-01       2.593258958478e+02 
       5.933463737275e-01       2.345446929963e+02 
       6.238638458458e-01       2.102291197853e+02 
       6.590669257916e-01       1.864322921193e+02 
       7.009246080454e-01       1.627244291451e+02 
       7.528593308799e-01       1.388173861834e+02 
       8.213469537518e-01       1.141880882838e+02 
       9.196980813302e-01       8.835844721708e+01 
       1.075112183810e+00       6.172566602924e+01 
       1.322697471132e+00       3.804284090828e+01 
       1.662328205042e+00       2.209789560245e+01 
       2.092692408506e+00       1.266905966523e+01 
       2.634543445090e+00       7.203220519840e+00 
       3.316693691389e+00       4.065084857221e+00 
       4.175469971226e+00       2.278553565321e+00 
       5.256605252960e+00       1.269298140754e+00 
       6.617673932723e+00       7.030858736348e-01 
       8.331157880872e+00       3.874306199493e-01 
       1.048830636590e+01       2.124640253830e-01 
       1.320399541071e+01       1.159906063815e-01 
       1.662284535976e+01       6.305215739977e-02 
       2.092692243973e+01       3.413070467928e-02 
       2.634543445002e+01       1.839399911598e-02 
       3.316693691389e+01       9.862191483430e-03 
       4.175469971226e+01       5.250835565566e-03 
       5.256605252960e+01       2.764285878525e-03 
       6.617673932723e+01       1.425022731957e-03 
