# Matter power spectrum P(k) at redshift z=0
# for k=1.04775e-05 to 66.1767 h/Mpc,
# number of wavenumbers equal to 130
#    1:k (h/Mpc)              2:P (Mpc/h)^3        
       1.047750691046e-05       5.020964811308e+01 
       1.319039970183e-05       6.270562594777e+01 
       1.660572937635e-05       7.831147247912e+01 
       2.090537469327e-05       9.780108069296e+01 
       2.631830744443e-05       1.221408203809e+02 
       3.313278603720e-05       1.525374501932e+02 
       4.171170630578e-05       1.904975994010e+02 
       5.251192703764e-05       2.379022224249e+02 
       6.610859936996e-05       2.970989227882e+02 
       8.322579568497e-05       3.710167318946e+02 
       1.047750691046e-04       4.633080766742e+02 
       1.319039970183e-04       5.785234129331e+02 
       1.660572937635e-04       7.223242666092e+02 
       2.090537469327e-04       9.017396271824e+02 
       2.631830744443e-04       1.125468123750e+03 
       3.313278603720e-04       1.404223053681e+03 
       4.171170630578e-04       1.751108028790e+03 
       5.251192703764e-04       2.181998448133e+03 
       6.610859936996e-04       2.715889983592e+03 
       8.322579568497e-04       3.375152337134e+03 
       1.047750691046e-03       4.185552174308e+03 
       1.319039970183e-03       5.175742741264e+03 
       1.660572937635e-03       6.376123051779e+03 
       2.090537469327e-03       7.815671866037e+03 
       2.631830744443e-03       9.517783069112e+03 
       3.313278603720e-03       1.149357460345e+04 
       4.171170630578e-03       1.373266012300e+04 
       5.251192703764e-03       1.619063614558e+04 
       6.610859936996e-03       1.877460422667e+04 
       8.322579568497e-03       2.132607231877e+04 
       1.047750691046e-02       2.360548687354e+04 
       1.319039970183e-02       2.528218875327e+04 
       1.660572937633e-02       2.595028513504e+04 
       2.090537453514e-02       2.520933961597e+04 
       2.631818545635e-02       2.287038724151e+04 
       3.311571692125e-02       1.928627426490e+04 
       4.113809243311e-02       1.568425240856e+04 
       4.792590854610e-02       1.361064011563e+04 
       5.284436902701e-02       1.259130763324e+04 
       5.689644391095e-02       1.195554595744e+04 
       6.051252627066e-02       1.147548832121e+04 
       6.388413457411e-02       1.105589584460e+04 
       6.711249296401e-02       1.064898134933e+04 
       7.025823437965e-02       1.022927506694e+04 
       7.336115587705e-02       9.784510657735e+03 
       7.644928796912e-02       9.311657983222e+03 
       7.954353299775e-02       8.814528441707e+03 
       8.266024078725e-02       8.302111197934e+03 
       8.581273398637e-02       7.786936339447e+03 
       8.901225918437e-02       7.283179580316e+03 
       9.226860540985e-02       6.805159776384e+03 
       9.559052048996e-02       6.365627752762e+03 
       9.898599946599e-02       5.974402938268e+03 
       1.024624891378e-01       5.637329859618e+03 
       1.060270359164e-01       5.355765781699e+03 
       1.096863943056e-01       5.126257358977e+03 
       1.134471073830e-01       4.940471756602e+03 
       1.173155669539e-01       4.786165148294e+03 
       1.212980586983e-01       4.647944092680e+03 
       1.254007961065e-01       4.509161011912e+03 
       1.296299459934e-01       4.354536727339e+03 
       1.339916477160e-01       4.173213018483e+03 
       1.384920277736e-01       3.961169331330e+03 
       1.431372111762e-01       3.722686037304e+03 
       1.479333307714e-01       3.469552661835e+03 
       1.528865355934e-01       3.218335279747e+03 
       1.580029992204e-01       2.986290025848e+03 
       1.632889290723e-01       2.786970464265e+03 
       1.687505775527e-01       2.626828468083e+03 
       1.743942559171e-01       2.503755359200e+03 
       1.802263517371e-01       2.407341201544e+03 
       1.862533508214e-01       2.322247608631e+03 
       1.924818644494e-01       2.231549621226e+03 
       1.989186627765e-01       2.122190229532e+03 
       2.055707152847e-01       1.992019733469e+03 
       2.124452391818e-01       1.850321763243e+03 
       2.195497567139e-01       1.712184056687e+03 
       2.268921624510e-01       1.590986382987e+03 
       2.344808017550e-01       1.493665547479e+03 
       2.423245618548e-01       1.418308262271e+03 
       2.504329772620e-01       1.354463856024e+03 
       2.588163516754e-01       1.288939737937e+03 
       2.674858990930e-01       1.213935472252e+03 
       2.764539076010e-01       1.130689889712e+03 
       2.857339303080e-01       1.048096367985e+03 
       2.953410092148e-01       9.761845068934e+02 
       3.052919395542e-01       9.178111234894e+02 
       3.156055844677e-01       8.678983971008e+02 
       3.263032530092e-01       8.185274734997e+02 
       3.374091587054e-01       7.651445092518e+02 
       3.489509817175e-01       7.106701475375e+02 
       3.609605657343e-01       6.607851874283e+02 
       3.734747921333e-01       6.180851551256e+02 
       3.865366902904e-01       5.793088156038e+02 
       4.001968667448e-01       5.403904985230e+02 
       4.145153713076e-01       5.011504866811e+02 
       4.295641718077e-01       4.644993933151e+02 
       4.454304922144e-01       4.314079318838e+02 
       4.622214006969e-01       4.001126658192e+02 
       4.800702491654e-01       3.690889142572e+02 
       4.991459272112e-01       3.394760935323e+02 
       5.196665217302e-01       3.119866162614e+02 
       5.419201087032e-01       2.852465572943e+02 
       5.662975451962e-01       2.593306434606e+02 
       5.933463737275e-01       2.345486263446e+02 
       6.238638458458e-01       2.102305183730e+02 
       6.590669257916e-01       1.864332999122e+02 
       7.009246080454e-01       1.627255182937e+02 
       7.528593308799e-01       1.388186729039e+02 
       8.213469537518e-01       1.141881629840e+02 
       9.196980813302e-01       8.835932172657e+01 
       1.075112183810e+00       6.172609344857e+01 
       1.322697471132e+00       3.804278704038e+01 
       1.662328205042e+00       2.209788626881e+01 
       2.092692408506e+00       1.266910395067e+01 
       2.634543445090e+00       7.203289703265e+00 
       3.316693691389e+00       4.065128078514e+00 
       4.175469971226e+00       2.278596085487e+00 
       5.256605252960e+00       1.269349365240e+00 
       6.617673932723e+00       7.031335266546e-01 
       8.331157880872e+00       3.874763885843e-01 
       1.048830636590e+01       2.125095980698e-01 
       1.320399541071e+01       1.160364991766e-01 
       1.662284535976e+01       6.309883648970e-02 
       2.092692243973e+01       3.417939431745e-02 
       2.634543445002e+01       1.844609198925e-02 
       3.316693691389e+01       9.919017222772e-03 
       4.175469971226e+01       5.314471265551e-03 
       5.256605252960e+01       2.836603170693e-03 
       6.617673932723e+01       1.507618364630e-03 
