# Matter power spectrum P(k) at redshift z=0
# for k=1.04775e-05 to 66.1767 h/Mpc,
# number of wavenumbers equal to 130
#    1:k (h/Mpc)              2:P (Mpc/h)^3        
       1.047750691046e-05       5.020964811306e+01 
       1.319039970183e-05       6.270562594786e+01 
       1.660572937635e-05       7.831147247912e+01 
       2.090537469327e-05       9.780108069294e+01 
       2.631830744443e-05       1.221408203809e+02 
       3.313278603720e-05       1.525374501932e+02 
       4.171170630578e-05       1.904975994009e+02 
       5.251192703764e-05       2.379022224249e+02 
       6.610859936996e-05       2.970989227881e+02 
       8.322579568497e-05       3.710167318946e+02 
       1.047750691046e-04       4.633080766742e+02 
       1.319039970183e-04       5.785234129345e+02 
       1.660572937635e-04       7.223242666092e+02 
       2.090537469327e-04       9.017396271824e+02 
       2.631830744443e-04       1.125468123750e+03 
       3.313278603720e-04       1.404223053681e+03 
       4.171170630578e-04       1.751108028790e+03 
       5.251192703764e-04       2.181998448133e+03 
       6.610859936996e-04       2.715889983592e+03 
       8.322579568497e-04       3.375152337134e+03 
       1.047750691046e-03       4.185552174307e+03 
       1.319039970183e-03       5.175742743430e+03 
       1.660572937635e-03       6.376123051779e+03 
       2.090537469327e-03       7.815671866241e+03 
       2.631830744443e-03       9.517783069112e+03 
       3.313278603720e-03       1.149357460345e+04 
       4.171170630578e-03       1.373266014098e+04 
       5.251192703764e-03       1.619063614560e+04 
       6.610859936996e-03       1.877460422158e+04 
       8.322579568497e-03       2.132607231735e+04 
       1.047750691046e-02       2.360548094576e+04 
       1.319039970183e-02       2.528218654402e+04 
       1.660572937633e-02       2.595026817898e+04 
       2.090537453514e-02       2.520933649017e+04 
       2.631818545635e-02       2.287033351722e+04 
       3.311571692125e-02       1.928623593358e+04 
       4.113809243311e-02       1.568427865524e+04 
       4.792590854610e-02       1.361061170835e+04 
       5.284436902701e-02       1.259131223249e+04 
       5.689644391095e-02       1.195554333668e+04 
       6.051252627066e-02       1.147550598759e+04 
       6.388413457411e-02       1.105589392560e+04 
       6.711249296401e-02       1.064900563199e+04 
       7.025823437965e-02       1.022929207957e+04 
       7.336115587705e-02       9.784544982833e+03 
       7.644928796912e-02       9.311675284341e+03 
       7.954353299775e-02       8.814527702961e+03 
       8.266024078725e-02       8.302120745842e+03 
       8.581273398637e-02       7.786970136305e+03 
       8.901225918437e-02       7.283167508107e+03 
       9.226860540985e-02       6.805165276964e+03 
       9.559052048996e-02       6.365636557172e+03 
       9.898599946599e-02       5.974381051038e+03 
       1.024624891378e-01       5.637326000302e+03 
       1.060270359164e-01       5.355762392884e+03 
       1.096863943056e-01       5.126245396854e+03 
       1.134471073830e-01       4.940476412410e+03 
       1.173155669539e-01       4.786160481204e+03 
       1.212980586983e-01       4.647931785981e+03 
       1.254007961065e-01       4.509156528536e+03 
       1.296299459934e-01       4.354557772714e+03 
       1.339916477160e-01       4.173231775234e+03 
       1.384920277736e-01       3.961163829494e+03 
       1.431372111762e-01       3.722683050150e+03 
       1.479333307714e-01       3.469554706841e+03 
       1.528865355934e-01       3.218343130816e+03 
       1.580029992204e-01       2.986294399683e+03 
       1.632889290723e-01       2.786962162274e+03 
       1.687505775527e-01       2.626830566066e+03 
       1.743942559171e-01       2.503752593981e+03 
       1.802263517371e-01       2.407345090239e+03 
       1.862533508214e-01       2.322247993777e+03 
       1.924818644494e-01       2.231554387150e+03 
       1.989186627765e-01       2.122185856471e+03 
       2.055707152847e-01       1.992025707029e+03 
       2.124452391818e-01       1.850321990878e+03 
       2.195497567139e-01       1.712184308627e+03 
       2.268921624510e-01       1.590989914097e+03 
       2.344808017550e-01       1.493670753377e+03 
       2.423245618548e-01       1.418311655858e+03 
       2.504329772620e-01       1.354463973187e+03 
       2.588163516754e-01       1.288935260306e+03 
       2.674858990930e-01       1.213934109471e+03 
       2.764539076010e-01       1.130693011518e+03 
       2.857339303080e-01       1.048102524062e+03 
       2.953410092148e-01       9.761805668756e+02 
       3.052919395542e-01       9.178095087839e+02 
       3.156055844677e-01       8.678979223067e+02 
       3.263032530092e-01       8.185278638711e+02 
       3.374091587054e-01       7.651454507127e+02 
       3.489509817175e-01       7.106718365121e+02 
       3.609605657343e-01       6.607862110498e+02 
       3.734747921333e-01       6.180876993104e+02 
       3.865366902904e-01       5.793107799643e+02 
       4.001968667448e-01       5.403911790637e+02 
       4.145153713076e-01       5.011512034323e+02 
       4.295641718077e-01       4.644985968431e+02 
       4.454304922144e-01       4.314084525470e+02 
       4.622214006969e-01       4.001128405993e+02 
       4.800702491654e-01       3.690889661630e+02 
       4.991459272112e-01       3.394768500620e+02 
       5.196665217302e-01       3.119866497959e+02 
       5.419201087032e-01       2.852473256254e+02 
       5.662975451962e-01       2.593316717900e+02 
       5.933463737275e-01       2.345479869209e+02 
       6.238638458458e-01       2.102308808807e+02 
       6.590669257916e-01       1.864331317882e+02 
       7.009246080454e-01       1.627252102759e+02 
       7.528593308799e-01       1.388179712102e+02 
       8.213469537518e-01       1.141880557496e+02 
       9.196980813302e-01       8.835920947248e+01 
       1.075112183810e+00       6.172629688944e+01 
       1.322697471132e+00       3.804280397015e+01 
       1.662328205042e+00       2.209799491733e+01 
       2.092692408506e+00       1.266925275641e+01 
       2.634543445090e+00       7.203384474076e+00 
       3.316693691389e+00       4.065176042344e+00 
       4.175469971226e+00       2.278622005365e+00 
       5.256605252960e+00       1.269360579198e+00 
       6.617673932723e+00       7.031373270144e-01 
       8.331157880872e+00       3.874808520124e-01 
       1.048830636590e+01       2.125105518760e-01 
       1.320399541071e+01       1.160362510717e-01 
       1.662284535976e+01       6.309891805162e-02 
       2.092692243973e+01       3.417967375037e-02 
       2.634543445002e+01       1.844620347350e-02 
       3.316693691389e+01       9.919207699150e-03 
       4.175469971226e+01       5.314673206523e-03 
       5.256605252960e+01       2.836708886897e-03 
       6.617673932723e+01       1.507699562618e-03 
