# Matter power spectrum P(k) at redshift z=0
# for k=1.04775e-05 to 66.1767 h/Mpc,
# number of wavenumbers equal to 130
#    1:k (h/Mpc)              2:P (Mpc/h)^3        
       1.047750691046e-05       5.020964811309e+01 
       1.319039970183e-05       6.270562594785e+01 
       1.660572937635e-05       7.831147247912e+01 
       2.090537469327e-05       9.780108069295e+01 
       2.631830744443e-05       1.221408203809e+02 
       3.313278603720e-05       1.525374501932e+02 
       4.171170630578e-05       1.904975994009e+02 
       5.251192703764e-05       2.379022224249e+02 
       6.610859936996e-05       2.970989227881e+02 
       8.322579568497e-05       3.710167318946e+02 
       1.047750691046e-04       4.633080766742e+02 
       1.319039970183e-04       5.785234129340e+02 
       1.660572937635e-04       7.223242666092e+02 
       2.090537469327e-04       9.017396271824e+02 
       2.631830744443e-04       1.125468123749e+03 
       3.313278603720e-04       1.404223053681e+03 
       4.171170630578e-04       1.751108028790e+03 
       5.251192703764e-04       2.181998448133e+03 
       6.610859936996e-04       2.715889983593e+03 
       8.322579568497e-04       3.375152337135e+03 
       1.047750691046e-03       4.185552174304e+03 
       1.319039970183e-03       5.175742744500e+03 
       1.660572937635e-03       6.376123051775e+03 
       2.090537469327e-03       7.815671866118e+03 
       2.631830744443e-03       9.517783069112e+03 
       3.313278603720e-03       1.149357460346e+04 
       4.171170630578e-03       1.373266012941e+04 
       5.251192703764e-03       1.619063614552e+04 
       6.610859936996e-03       1.877460318910e+04 
       8.322579568497e-03       2.132607231836e+04 
       1.047750691046e-02       2.360547930973e+04 
       1.319039970183e-02       2.528218747633e+04 
       1.660572937633e-02       2.595025658739e+04 
       2.090537453514e-02       2.520937201818e+04 
       2.631818545635e-02       2.287037134660e+04 
       3.311571692125e-02       1.928631532247e+04 
       4.113809243311e-02       1.568427151526e+04 
       4.792590854610e-02       1.361062677250e+04 
       5.284436902701e-02       1.259130147426e+04 
       5.689644391095e-02       1.195555565662e+04 
       6.051252627066e-02       1.147547564625e+04 
       6.388413457411e-02       1.105589967315e+04 
       6.711249296401e-02       1.064900281688e+04 
       7.025823437965e-02       1.022928875425e+04 
       7.336115587705e-02       9.784515366961e+03 
       7.644928796912e-02       9.311658052791e+03 
       7.954353299775e-02       8.814532562618e+03 
       8.266024078725e-02       8.302119758535e+03 
       8.581273398637e-02       7.786948067924e+03 
       8.901225918437e-02       7.283198528857e+03 
       9.226860540985e-02       6.805182130400e+03 
       9.559052048996e-02       6.365642522680e+03 
       9.898599946599e-02       5.974396782066e+03 
       1.024624891378e-01       5.637357884610e+03 
       1.060270359164e-01       5.355771131179e+03 
       1.096863943056e-01       5.126232657776e+03 
       1.134471073830e-01       4.940475636608e+03 
       1.173155669539e-01       4.786160827539e+03 
       1.212980586983e-01       4.647933258412e+03 
       1.254007961065e-01       4.509153914700e+03 
       1.296299459934e-01       4.354550462573e+03 
       1.339916477160e-01       4.173228394691e+03 
       1.384920277736e-01       3.961161847309e+03 
       1.431372111762e-01       3.722671691548e+03 
       1.479333307714e-01       3.469549387792e+03 
       1.528865355934e-01       3.218344680035e+03 
       1.580029992204e-01       2.986289399648e+03 
       1.632889290723e-01       2.786967713642e+03 
       1.687505775527e-01       2.626830921057e+03 
       1.743942559171e-01       2.503751141714e+03 
       1.802263517371e-01       2.407345117455e+03 
       1.862533508214e-01       2.322250021945e+03 
       1.924818644494e-01       2.231547758592e+03 
       1.989186627765e-01       2.122185623934e+03 
       2.055707152847e-01       1.992025679324e+03 
       2.124452391818e-01       1.850325571157e+03 
       2.195497567139e-01       1.712184826514e+03 
       2.268921624510e-01       1.590990129758e+03 
       2.344808017550e-01       1.493666669237e+03 
       2.423245618548e-01       1.418308414246e+03 
       2.504329772620e-01       1.354462857711e+03 
       2.588163516754e-01       1.288934498323e+03 
       2.674858990930e-01       1.213932414451e+03 
       2.764539076010e-01       1.130693868122e+03 
       2.857339303080e-01       1.048096934479e+03 
       2.953410092148e-01       9.761822661333e+02 
       3.052919395542e-01       9.178090875636e+02 
       3.156055844677e-01       8.678964319855e+02 
       3.263032530092e-01       8.185243077506e+02 
       3.374091587054e-01       7.651461287296e+02 
       3.489509817175e-01       7.106733396546e+02 
       3.609605657343e-01       6.607854249910e+02 
       3.734747921333e-01       6.180858898353e+02 
       3.865366902904e-01       5.793113656449e+02 
       4.001968667448e-01       5.403906915331e+02 
       4.145153713076e-01       5.011503891908e+02 
       4.295641718077e-01       4.644991505321e+02 
       4.454304922144e-01       4.314078130012e+02 
       4.622214006969e-01       4.001119921551e+02 
       4.800702491654e-01       3.690877600732e+02 
       4.991459272112e-01       3.394752950072e+02 
       5.196665217302e-01       3.119845584300e+02 
       5.419201087032e-01       2.852469315526e+02 
       5.662975451962e-01       2.593309405114e+02 
       5.933463737275e-01       2.345473974875e+02 
       6.238638458458e-01       2.102302309201e+02 
       6.590669257916e-01       1.864332606379e+02 
       7.009246080454e-01       1.627252018782e+02 
       7.528593308799e-01       1.388184675172e+02 
       8.213469537518e-01       1.141877664028e+02 
       9.196980813302e-01       8.835939363757e+01 
       1.075112183810e+00       6.172585486675e+01 
       1.322697471132e+00       3.804274005599e+01 
       1.662328205042e+00       2.209795834153e+01 
       2.092692408506e+00       1.266913442107e+01 
       2.634543445090e+00       7.203326203229e+00 
       3.316693691389e+00       4.065137797902e+00 
       4.175469971226e+00       2.278609990098e+00 
       5.256605252960e+00       1.269347759468e+00 
       6.617673932723e+00       7.031319765905e-01 
       8.331157880872e+00       3.874777855022e-01 
       1.048830636590e+01       2.125100194366e-01 
       1.320399541071e+01       1.160356492905e-01 
       1.662284535976e+01       6.309817056769e-02 
       2.092692243973e+01       3.417902794758e-02 
       2.634543445002e+01       1.844565036713e-02 
       3.316693691389e+01       9.918728914039e-03 
       4.175469971226e+01       5.314154336833e-03 
       5.256605252960e+01       2.836276943434e-03 
       6.617673932723e+01       1.507298857684e-03 
