# Matter power spectrum P(k) at redshift z=99
# for k=1.04775e-05 to 66.1767 h/Mpc,
# number of wavenumbers equal to 130
#    1:k (h/Mpc)              2:P (Mpc/h)^3        
       1.047750691046e-05       7.261927680864e-03 
       1.319039970183e-05       9.069258201851e-03 
       1.660572937635e-05       1.132639106726e-02 
       2.090537469327e-05       1.414527123399e-02 
       2.631830744443e-05       1.766569584058e-02 
       3.313278603720e-05       2.206225515943e-02 
       4.171170630578e-05       2.755297766278e-02 
       5.251192703764e-05       3.441013522948e-02 
       6.610859936996e-05       4.297372172779e-02 
       8.322579568497e-05       5.366826852946e-02 
       1.047750691046e-04       6.702379872776e-02 
       1.319039970183e-04       8.370193441288e-02 
       1.660572937635e-04       1.045283355384e-01 
       2.090537469327e-04       1.305329134104e-01 
       2.631830744443e-04       1.629994506606e-01 
       3.313278603720e-04       2.035264004602e-01 
       4.171170630578e-04       2.541004744243e-01 
       5.251192703764e-04       3.171839528558e-01 
       6.610859936996e-04       3.958147256514e-01 
       8.322579568497e-04       4.937136006266e-01 
       1.047750691046e-03       6.153841636043e-01 
       1.319039970183e-03       7.661720592665e-01 
       1.660572937635e-03       9.522588016465e-01 
       2.090537469327e-03       1.180312991699e+00 
       2.631830744443e-03       1.456802684685e+00 
       3.313278603720e-03       1.786503854038e+00 
       4.171170630578e-03       2.169896194685e+00 
       5.251192703764e-03       2.599430630710e+00 
       6.610859936996e-03       3.055668702820e+00 
       8.322579568497e-03       3.505725182226e+00 
       1.047750691046e-02       3.905490540652e+00 
       1.319039970183e-02       4.200915322091e+00 
       1.660572937633e-02       4.325062868761e+00 
       2.090537453514e-02       4.210197939424e+00 
       2.631818545635e-02       3.825147032859e+00 
       3.311571692125e-02       3.229063399244e+00 
       4.113809243311e-02       2.627723590557e+00 
       4.792590854610e-02       2.280781928410e+00 
       5.284436902701e-02       2.110086918246e+00 
       5.689644391095e-02       2.003540840929e+00 
       6.051252627066e-02       1.923056528948e+00 
       6.388413457411e-02       1.852730807559e+00 
       6.711249296401e-02       1.784562005003e+00 
       7.025823437965e-02       1.714277444291e+00 
       7.336115587705e-02       1.639814778227e+00 
       7.644928796912e-02       1.560661786572e+00 
       7.954353299775e-02       1.477456437518e+00 
       8.266024078725e-02       1.391696745488e+00 
       8.581273398637e-02       1.305463562274e+00 
       8.901225918437e-02       1.221126614709e+00 
       9.226860540985e-02       1.141079880159e+00 
       9.559052048996e-02       1.067451292603e+00 
       9.898599946599e-02       1.001892374812e+00 
       1.024624891378e-01       9.453829832824e-01 
       1.060270359164e-01       8.981492338623e-01 
       1.096863943056e-01       8.596106396402e-01 
       1.134471073830e-01       8.284055212211e-01 
       1.173155669539e-01       8.024682503825e-01 
       1.212980586983e-01       7.792288217248e-01 
       1.254007961065e-01       7.559184507234e-01 
       1.296299459934e-01       7.299814086681e-01 
       1.339916477160e-01       6.995935858051e-01 
       1.384920277736e-01       6.640766729579e-01 
       1.431372111762e-01       6.241461939643e-01 
       1.479333307714e-01       5.817632656401e-01 
       1.528865355934e-01       5.396904913995e-01 
       1.580029992204e-01       5.008135581433e-01 
       1.632889290723e-01       4.673987353695e-01 
       1.687505775527e-01       4.405334208492e-01 
       1.743942559171e-01       4.198664648896e-01 
       1.802263517371e-01       4.036592962128e-01 
       1.862533508214e-01       3.893611028066e-01 
       1.924818644494e-01       3.741351620350e-01 
       1.989186627765e-01       3.558041812812e-01 
       2.055707152847e-01       3.340010113561e-01 
       2.124452391818e-01       3.102673050211e-01 
       2.195497567139e-01       2.871219946960e-01 
       2.268921624510e-01       2.668084121798e-01 
       2.344808017550e-01       2.504831282353e-01 
       2.423245618548e-01       2.378334902190e-01 
       2.504329772620e-01       2.271114938335e-01 
       2.588163516754e-01       2.161198312339e-01 
       2.674858990930e-01       2.035472991018e-01 
       2.764539076010e-01       1.895980690866e-01 
       2.857339303080e-01       1.757567523405e-01 
       2.953410092148e-01       1.636991582148e-01 
       3.052919395542e-01       1.539063339636e-01 
       3.156055844677e-01       1.455304309733e-01 
       3.263032530092e-01       1.372502816596e-01 
       3.374091587054e-01       1.283016930429e-01 
       3.489509817175e-01       1.191712561134e-01 
       3.609605657343e-01       1.108072284874e-01 
       3.734747921333e-01       1.036449204093e-01 
       3.865366902904e-01       9.714135415147e-02 
       4.001968667448e-01       9.061534274368e-02 
       4.145153713076e-01       8.403690998925e-02 
       4.295641718077e-01       7.789087748906e-02 
       4.454304922144e-01       7.234166291372e-02 
       4.622214006969e-01       6.709374242558e-02 
       4.800702491654e-01       6.189163556085e-02 
       4.991459272112e-01       5.692636462390e-02 
       5.196665217302e-01       5.231613239387e-02 
       5.419201087032e-01       4.783254116630e-02 
       5.662975451962e-01       4.348676583651e-02 
       5.933463737275e-01       3.933105497572e-02 
       6.238638458458e-01       3.525339962069e-02 
       6.590669257916e-01       3.126287175680e-02 
       7.009246080454e-01       2.728729945711e-02 
       7.528593308799e-01       2.327849168002e-02 
       8.213469537518e-01       1.914819580079e-02 
       9.196980813302e-01       1.481697317968e-02 
       1.075112183810e+00       1.035088630125e-02 
       1.322697471132e+00       6.379472222362e-03 
       1.662328205042e+00       3.705645076648e-03 
       2.092692408506e+00       2.124512975705e-03 
       2.634543445090e+00       1.207941510676e-03 
       3.316693691389e+00       6.816916415303e-04 
       4.175469971226e+00       3.820995568275e-04 
       5.256605252960e+00       2.128537044997e-04 
       6.617673932723e+00       1.179024418622e-04 
       8.331157880872e+00       6.496801379933e-05 
       1.048830636590e+01       3.562718728735e-05 
       1.320399541071e+01       1.944920754058e-05 
       1.662284535976e+01       1.057214584685e-05 
       2.092692243973e+01       5.722902556860e-06 
       2.634543445002e+01       3.084860795992e-06 
       3.316693691389e+01       1.655402231072e-06 
       4.175469971226e+01       8.837340229230e-07 
       5.256605252960e+01       4.686978774144e-07 
       6.617673932723e+01       2.463326379344e-07 
