# Matter power spectrum P(k) at redshift z=0
# for k=1.04775e-05 to 66.1767 h/Mpc,
# number of wavenumbers equal to 130
#    1:k (h/Mpc)              2:P (Mpc/h)^3        
       1.047750691046e-05       5.020964811308e+01 
       1.319039970183e-05       6.270562594780e+01 
       1.660572937635e-05       7.831147247912e+01 
       2.090537469327e-05       9.780108069295e+01 
       2.631830744443e-05       1.221408203809e+02 
       3.313278603720e-05       1.525374501932e+02 
       4.171170630578e-05       1.904975994010e+02 
       5.251192703764e-05       2.379022224249e+02 
       6.610859936996e-05       2.970989227881e+02 
       8.322579568497e-05       3.710167318946e+02 
       1.047750691046e-04       4.633080766742e+02 
       1.319039970183e-04       5.785234129335e+02 
       1.660572937635e-04       7.223242666092e+02 
       2.090537469327e-04       9.017396271824e+02 
       2.631830744443e-04       1.125468123749e+03 
       3.313278603720e-04       1.404223053681e+03 
       4.171170630578e-04       1.751108028790e+03 
       5.251192703764e-04       2.181998448133e+03 
       6.610859936996e-04       2.715889983591e+03 
       8.322579568497e-04       3.375152337135e+03 
       1.047750691046e-03       4.185552174302e+03 
       1.319039970183e-03       5.175742738803e+03 
       1.660572937635e-03       6.376123051787e+03 
       2.090537469327e-03       7.815671866260e+03 
       2.631830744443e-03       9.517783069110e+03 
       3.313278603720e-03       1.149357460346e+04 
       4.171170630578e-03       1.373266010482e+04 
       5.251192703764e-03       1.619063614328e+04 
       6.610859936996e-03       1.877460396709e+04 
       8.322579568497e-03       2.132607233650e+04 
       1.047750691046e-02       2.360548278441e+04 
       1.319039970183e-02       2.528218647539e+04 
       1.660572937633e-02       2.595029587932e+04 
       2.090537453514e-02       2.520937858654e+04 
       2.631818545635e-02       2.287035038612e+04 
       3.311571692125e-02       1.928627637085e+04 
       4.113809243311e-02       1.568423725610e+04 
       4.792590854610e-02       1.361064484758e+04 
       5.284436902701e-02       1.259130730034e+04 
       5.689644391095e-02       1.195557617569e+04 
       6.051252627066e-02       1.147549113640e+04 
       6.388413457411e-02       1.105589646767e+04 
       6.711249296401e-02       1.064902938761e+04 
       7.025823437965e-02       1.022927224798e+04 
       7.336115587705e-02       9.784520013160e+03 
       7.644928796912e-02       9.311628747987e+03 
       7.954353299775e-02       8.814564188172e+03 
       8.266024078725e-02       8.302188790394e+03 
       8.581273398637e-02       7.786990123044e+03 
       8.901225918437e-02       7.283222333122e+03 
       9.226860540985e-02       6.805214122320e+03 
       9.559052048996e-02       6.365653359512e+03 
       9.898599946599e-02       5.974369757141e+03 
       1.024624891378e-01       5.637373443668e+03 
       1.060270359164e-01       5.355793014900e+03 
       1.096863943056e-01       5.126263445225e+03 
       1.134471073830e-01       4.940499408392e+03 
       1.173155669539e-01       4.786184375156e+03 
       1.212980586983e-01       4.647956062915e+03 
       1.254007961065e-01       4.509170766643e+03 
       1.296299459934e-01       4.354552167348e+03 
       1.339916477160e-01       4.173230725856e+03 
       1.384920277736e-01       3.961173000844e+03 
       1.431372111762e-01       3.722679296093e+03 
       1.479333307714e-01       3.469551851453e+03 
       1.528865355934e-01       3.218345800514e+03 
       1.580029992204e-01       2.986272134359e+03 
       1.632889290723e-01       2.786972692679e+03 
       1.687505775527e-01       2.626809764886e+03 
       1.743942559171e-01       2.503770122263e+03 
       1.802263517371e-01       2.407333986013e+03 
       1.862533508214e-01       2.322226423402e+03 
       1.924818644494e-01       2.231542959625e+03 
       1.989186627765e-01       2.122192547398e+03 
       2.055707152847e-01       1.992014128551e+03 
       2.124452391818e-01       1.850316037102e+03 
       2.195497567139e-01       1.712163884571e+03 
       2.268921624510e-01       1.590975671689e+03 
       2.344808017550e-01       1.493659701200e+03 
       2.423245618548e-01       1.418315873917e+03 
       2.504329772620e-01       1.354460760575e+03 
       2.588163516754e-01       1.288932713970e+03 
       2.674858990930e-01       1.213931269195e+03 
       2.764539076010e-01       1.130691382059e+03 
       2.857339303080e-01       1.048093634678e+03 
       2.953410092148e-01       9.761730046392e+02 
       3.052919395542e-01       9.178050331838e+02 
       3.156055844677e-01       8.678937204041e+02 
       3.263032530092e-01       8.185287340522e+02 
       3.374091587054e-01       7.651456184279e+02 
       3.489509817175e-01       7.106638247968e+02 
       3.609605657343e-01       6.607813697705e+02 
       3.734747921333e-01       6.180800250354e+02 
       3.865366902904e-01       5.793027385819e+02 
       4.001968667448e-01       5.403883270753e+02 
       4.145153713076e-01       5.011443336825e+02 
       4.295641718077e-01       4.644942783226e+02 
       4.454304922144e-01       4.314024833612e+02 
       4.622214006969e-01       4.001101180906e+02 
       4.800702491654e-01       3.690876275527e+02 
       4.991459272112e-01       3.394731175687e+02 
       5.196665217302e-01       3.119838223154e+02 
       5.419201087032e-01       2.852454337578e+02 
       5.662975451962e-01       2.593296940504e+02 
       5.933463737275e-01       2.345443678042e+02 
       6.238638458458e-01       2.102274890580e+02 
       6.590669257916e-01       1.864322871998e+02 
       7.009246080454e-01       1.627238340584e+02 
       7.528593308799e-01       1.388177187097e+02 
       8.213469537518e-01       1.141875372195e+02 
       9.196980813302e-01       8.835898000277e+01 
       1.075112183810e+00       6.172561969937e+01 
       1.322697471132e+00       3.804242036440e+01 
       1.662328205042e+00       2.209756340268e+01 
       2.092692408506e+00       1.266881389178e+01 
       2.634543445090e+00       7.202836430508e+00 
       3.316693691389e+00       4.064477344518e+00 
       4.175469971226e+00       2.277761587045e+00 
       5.256605252960e+00       1.268253654103e+00 
       6.617673932723e+00       7.016869173789e-01 
       8.331157880872e+00       3.856172396725e-01 
       1.048830636590e+01       2.101300169152e-01 
       1.320399541071e+01       1.130349662711e-01 
       1.662284535976e+01       5.939052465150e-02 
       2.092692243973e+01       2.974841813030e-02 
       2.634543445002e+01       1.343452800895e-02 
       3.316693691389e+01       4.764448932288e-03 
       4.175469971226e+01       8.374023797090e-04 
       5.256605252960e+01       1.653068933633e-05 
       6.617673932723e+01       6.502292310187e-04 
