# Matter power spectrum P(k) at redshift z=99
# for k=1.04775e-05 to 66.1767 h/Mpc,
# number of wavenumbers equal to 130
#    1:k (h/Mpc)              2:P (Mpc/h)^3        
       1.047750691046e-05       7.261927680862e-03 
       1.319039970183e-05       9.069258201849e-03 
       1.660572937635e-05       1.132639106725e-02 
       2.090537469327e-05       1.414527123399e-02 
       2.631830744443e-05       1.766569584058e-02 
       3.313278603720e-05       2.206225515942e-02 
       4.171170630578e-05       2.755297766277e-02 
       5.251192703764e-05       3.441013522947e-02 
       6.610859936996e-05       4.297372172778e-02 
       8.322579568497e-05       5.366826852944e-02 
       1.047750691046e-04       6.702379872775e-02 
       1.319039970183e-04       8.370193441285e-02 
       1.660572937635e-04       1.045283355384e-01 
       2.090537469327e-04       1.305329134104e-01 
       2.631830744443e-04       1.629994506606e-01 
       3.313278603720e-04       2.035264004601e-01 
       4.171170630578e-04       2.541004744243e-01 
       5.251192703764e-04       3.171839528557e-01 
       6.610859936996e-04       3.958147256513e-01 
       8.322579568497e-04       4.937136006276e-01 
       1.047750691046e-03       6.153841636041e-01 
       1.319039970183e-03       7.661720592721e-01 
       1.660572937635e-03       9.522588016482e-01 
       2.090537469327e-03       1.180312991699e+00 
       2.631830744443e-03       1.456802684686e+00 
       3.313278603720e-03       1.786503854040e+00 
       4.171170630578e-03       2.169896195885e+00 
       5.251192703764e-03       2.599430630720e+00 
       6.610859936996e-03       3.055668715671e+00 
       8.322579568497e-03       3.505725598506e+00 
       1.047750691046e-02       3.905491198745e+00 
       1.319039970183e-02       4.200915354172e+00 
       1.660572937633e-02       4.325058245561e+00 
       2.090537453514e-02       4.210206336258e+00 
       2.631818545635e-02       3.825144888255e+00 
       3.311571692125e-02       3.229056718208e+00 
       4.113809243311e-02       2.627724550117e+00 
       4.792590854610e-02       2.280792526853e+00 
       5.284436902701e-02       2.110084403840e+00 
       5.689644391095e-02       2.003538265504e+00 
       6.051252627066e-02       1.923054844063e+00 
       6.388413457411e-02       1.852735477219e+00 
       6.711249296401e-02       1.784564235722e+00 
       7.025823437965e-02       1.714276781520e+00 
       7.336115587705e-02       1.639813662994e+00 
       7.644928796912e-02       1.560661936326e+00 
       7.954353299775e-02       1.477455523510e+00 
       8.266024078725e-02       1.391701465743e+00 
       8.581273398637e-02       1.305462799104e+00 
       8.901225918437e-02       1.221122006018e+00 
       9.226860540985e-02       1.141078800910e+00 
       9.559052048996e-02       1.067456349020e+00 
       9.898599946599e-02       1.001889424352e+00 
       1.024624891378e-01       9.453806074196e-01 
       1.060270359164e-01       8.981492709614e-01 
       1.096863943056e-01       8.596139249694e-01 
       1.134471073830e-01       8.284057084065e-01 
       1.173155669539e-01       8.024676758626e-01 
       1.212980586983e-01       7.792298464152e-01 
       1.254007961065e-01       7.559187894430e-01 
       1.296299459934e-01       7.299813671146e-01 
       1.339916477160e-01       6.995935087006e-01 
       1.384920277736e-01       6.640772029472e-01 
       1.431372111762e-01       6.241468977308e-01 
       1.479333307714e-01       5.817638640276e-01 
       1.528865355934e-01       5.396938995501e-01 
       1.580029992204e-01       5.008134575896e-01 
       1.632889290723e-01       4.673990000933e-01 
       1.687505775527e-01       4.405338011986e-01 
       1.743942559171e-01       4.198659414398e-01 
       1.802263517371e-01       4.036598694278e-01 
       1.862533508214e-01       3.893588511542e-01 
       1.924818644494e-01       3.741346983530e-01 
       1.989186627765e-01       3.558024319905e-01 
       2.055707152847e-01       3.339993092186e-01 
       2.124452391818e-01       3.102648605410e-01 
       2.195497567139e-01       2.871230964879e-01 
       2.268921624510e-01       2.668080902834e-01 
       2.344808017550e-01       2.504837392756e-01 
       2.423245618548e-01       2.378330237610e-01 
       2.504329772620e-01       2.271118827720e-01 
       2.588163516754e-01       2.161169424234e-01 
       2.674858990930e-01       2.035458114440e-01 
       2.764539076010e-01       1.895978308808e-01 
       2.857339303080e-01       1.757570976640e-01 
       2.953410092148e-01       1.636991428401e-01 
       3.052919395542e-01       1.539063456170e-01 
       3.156055844677e-01       1.455308985481e-01 
       3.263032530092e-01       1.372505819675e-01 
       3.374091587054e-01       1.283024385606e-01 
       3.489509817175e-01       1.191712876805e-01 
       3.609605657343e-01       1.108075905903e-01 
       3.734747921333e-01       1.036451190382e-01 
       3.865366902904e-01       9.714152718818e-02 
       4.001968667448e-01       9.061562366483e-02 
       4.145153713076e-01       8.403696392448e-02 
       4.295641718077e-01       7.789118309392e-02 
       4.454304922144e-01       7.234175983655e-02 
       4.622214006969e-01       6.709377836308e-02 
       4.800702491654e-01       6.189172330138e-02 
       4.991459272112e-01       5.692625380049e-02 
       5.196665217302e-01       5.231618804050e-02 
       5.419201087032e-01       4.783259864148e-02 
       5.662975451962e-01       4.348695748535e-02 
       5.933463737275e-01       3.933107070418e-02 
       6.238638458458e-01       3.525332834462e-02 
       6.590669257916e-01       3.126287372066e-02 
       7.009246080454e-01       2.728727543984e-02 
       7.528593308799e-01       2.327843560438e-02 
       8.213469537518e-01       1.914821666750e-02 
       9.196980813302e-01       1.481700927163e-02 
       1.075112183810e+00       1.035091253274e-02 
       1.322697471132e+00       6.379468261243e-03 
       1.662328205042e+00       3.705659541978e-03 
       2.092692408506e+00       2.124540037347e-03 
       2.634543445090e+00       1.207961047689e-03 
       3.316693691389e+00       6.817117079754e-04 
       4.175469971226e+00       3.821176421663e-04 
       5.256605252960e+00       2.128709615246e-04 
       6.617673932723e+00       1.179190408746e-04 
       8.331157880872e+00       6.498435531302e-05 
       1.048830636590e+01       3.564220722794e-05 
       1.320399541071e+01       1.946328035076e-05 
       1.662284535976e+01       1.058515725759e-05 
       2.092692243973e+01       5.734763099661e-06 
       2.634543445002e+01       3.095744873066e-06 
       3.316693691389e+01       1.665316031995e-06 
       4.175469971226e+01       8.927414326488e-07 
       5.256605252960e+01       4.768686042654e-07 
       6.617673932723e+01       2.537157132775e-07 
