# Matter power spectrum P(k) at redshift z=0
# for k=1.04775e-05 to 66.1767 h/Mpc,
# number of wavenumbers equal to 130
#    1:k (h/Mpc)              2:P (Mpc/h)^3        
       1.047750691046e-05       5.020964811308e+01 
       1.319039970183e-05       6.270562594777e+01 
       1.660572937635e-05       7.831147247912e+01 
       2.090537469327e-05       9.780108069295e+01 
       2.631830744443e-05       1.221408203809e+02 
       3.313278603720e-05       1.525374501932e+02 
       4.171170630578e-05       1.904975994010e+02 
       5.251192703764e-05       2.379022224249e+02 
       6.610859936996e-05       2.970989227881e+02 
       8.322579568497e-05       3.710167318946e+02 
       1.047750691046e-04       4.633080766742e+02 
       1.319039970183e-04       5.785234129334e+02 
       1.660572937635e-04       7.223242666092e+02 
       2.090537469327e-04       9.017396271824e+02 
       2.631830744443e-04       1.125468123749e+03 
       3.313278603720e-04       1.404223053681e+03 
       4.171170630578e-04       1.751108028790e+03 
       5.251192703764e-04       2.181998448133e+03 
       6.610859936996e-04       2.715889983592e+03 
       8.322579568497e-04       3.375152337134e+03 
       1.047750691046e-03       4.185552174307e+03 
       1.319039970183e-03       5.175742739249e+03 
       1.660572937635e-03       6.376123051779e+03 
       2.090537469327e-03       7.815671866132e+03 
       2.631830744443e-03       9.517783069112e+03 
       3.313278603720e-03       1.149357460344e+04 
       4.171170630578e-03       1.373266009533e+04 
       5.251192703764e-03       1.619063614560e+04 
       6.610859936996e-03       1.877460412858e+04 
       8.322579568497e-03       2.132607231875e+04 
       1.047750691046e-02       2.360549100554e+04 
       1.319039970183e-02       2.528218904766e+04 
       1.660572937633e-02       2.595028181797e+04 
       2.090537453514e-02       2.520934370876e+04 
       2.631818545635e-02       2.287034605019e+04 
       3.311571692125e-02       1.928623938585e+04 
       4.113809243311e-02       1.568425858895e+04 
       4.792590854610e-02       1.361063345699e+04 
       5.284436902701e-02       1.259130304243e+04 
       5.689644391095e-02       1.195554383516e+04 
       6.051252627066e-02       1.147547832625e+04 
       6.388413457411e-02       1.105591801648e+04 
       6.711249296401e-02       1.064899732903e+04 
       7.025823437965e-02       1.022926562817e+04 
       7.336115587705e-02       9.784543349665e+03 
       7.644928796912e-02       9.311647721608e+03 
       7.954353299775e-02       8.814532747153e+03 
       8.266024078725e-02       8.302119583094e+03 
       8.581273398637e-02       7.786956677257e+03 
       8.901225918437e-02       7.283173558215e+03 
       9.226860540985e-02       6.805171865693e+03 
       9.559052048996e-02       6.365633321910e+03 
       9.898599946599e-02       5.974391317146e+03 
       1.024624891378e-01       5.637314129789e+03 
       1.060270359164e-01       5.355763307490e+03 
       1.096863943056e-01       5.126252812881e+03 
       1.134471073830e-01       4.940481962930e+03 
       1.173155669539e-01       4.786158145816e+03 
       1.212980586983e-01       4.647947909869e+03 
       1.254007961065e-01       4.509150553649e+03 
       1.296299459934e-01       4.354542691569e+03 
       1.339916477160e-01       4.173212811520e+03 
       1.384920277736e-01       3.961173992260e+03 
       1.431372111762e-01       3.722691505221e+03 
       1.479333307714e-01       3.469551856570e+03 
       1.528865355934e-01       3.218339655501e+03 
       1.580029992204e-01       2.986292399874e+03 
       1.632889290723e-01       2.786964841598e+03 
       1.687505775527e-01       2.626833710346e+03 
       1.743942559171e-01       2.503755988594e+03 
       1.802263517371e-01       2.407353832475e+03 
       1.862533508214e-01       2.322254207120e+03 
       1.924818644494e-01       2.231558479196e+03 
       1.989186627765e-01       2.122189524787e+03 
       2.055707152847e-01       1.992023954772e+03 
       2.124452391818e-01       1.850323336805e+03 
       2.195497567139e-01       1.712184397376e+03 
       2.268921624510e-01       1.590987020851e+03 
       2.344808017550e-01       1.493668794676e+03 
       2.423245618548e-01       1.418308643718e+03 
       2.504329772620e-01       1.354464501682e+03 
       2.588163516754e-01       1.288935917243e+03 
       2.674858990930e-01       1.213938202819e+03 
       2.764539076010e-01       1.130692899061e+03 
       2.857339303080e-01       1.048102436775e+03 
       2.953410092148e-01       9.761862297894e+02 
       3.052919395542e-01       9.178102538403e+02 
       3.156055844677e-01       8.679009513123e+02 
       3.263032530092e-01       8.185271375055e+02 
       3.374091587054e-01       7.651466558667e+02 
       3.489509817175e-01       7.106702533334e+02 
       3.609605657343e-01       6.607850900802e+02 
       3.734747921333e-01       6.180871417679e+02 
       3.865366902904e-01       5.793108090301e+02 
       4.001968667448e-01       5.403903527181e+02 
       4.145153713076e-01       5.011501447348e+02 
       4.295641718077e-01       4.644981880682e+02 
       4.454304922144e-01       4.314086648047e+02 
       4.622214006969e-01       4.001125933540e+02 
       4.800702491654e-01       3.690897745679e+02 
       4.991459272112e-01       3.394759462186e+02 
       5.196665217302e-01       3.119851198333e+02 
       5.419201087032e-01       2.852468013308e+02 
       5.662975451962e-01       2.593306326795e+02 
       5.933463737275e-01       2.345482152375e+02 
       6.238638458458e-01       2.102306137277e+02 
       6.590669257916e-01       1.864335587748e+02 
       7.009246080454e-01       1.627253188374e+02 
       7.528593308799e-01       1.388183797137e+02 
       8.213469537518e-01       1.141884397559e+02 
       9.196980813302e-01       8.835967802896e+01 
       1.075112183810e+00       6.172636270884e+01 
       1.322697471132e+00       3.804296559500e+01 
       1.662328205042e+00       2.209805685066e+01 
       2.092692408506e+00       1.266916547616e+01 
       2.634543445090e+00       7.203387646099e+00 
       3.316693691389e+00       4.065165011060e+00 
       4.175469971226e+00       2.278617483536e+00 
       5.256605252960e+00       1.269349013887e+00 
       6.617673932723e+00       7.031368697099e-01 
       8.331157880872e+00       3.874748949050e-01 
       1.048830636590e+01       2.125107301875e-01 
       1.320399541071e+01       1.160365143317e-01 
       1.662284535976e+01       6.309934569824e-02 
       2.092692243973e+01       3.417985433860e-02 
       2.634543445002e+01       1.844612748042e-02 
       3.316693691389e+01       9.919104117082e-03 
       4.175469971226e+01       5.314571478612e-03 
       5.256605252960e+01       2.836677554547e-03 
       6.617673932723e+01       1.507683936623e-03 
