# Matter power spectrum P(k) at redshift z=0
# for k=1.04775e-05 to 66.1767 h/Mpc,
# number of wavenumbers equal to 130
#    1:k (h/Mpc)              2:P (Mpc/h)^3        
       1.047750691046e-05       5.020964811306e+01 
       1.319039970183e-05       6.270562594778e+01 
       1.660572937635e-05       7.831147247911e+01 
       2.090537469327e-05       9.780108069294e+01 
       2.631830744443e-05       1.221408203809e+02 
       3.313278603720e-05       1.525374501932e+02 
       4.171170630578e-05       1.904975994010e+02 
       5.251192703764e-05       2.379022224249e+02 
       6.610859936996e-05       2.970989227883e+02 
       8.322579568497e-05       3.710167318945e+02 
       1.047750691046e-04       4.633080766742e+02 
       1.319039970183e-04       5.785234129340e+02 
       1.660572937635e-04       7.223242666092e+02 
       2.090537469327e-04       9.017396271824e+02 
       2.631830744443e-04       1.125468123750e+03 
       3.313278603720e-04       1.404223053681e+03 
       4.171170630578e-04       1.751108028790e+03 
       5.251192703764e-04       2.181998448133e+03 
       6.610859936996e-04       2.715889983592e+03 
       8.322579568497e-04       3.375152337132e+03 
       1.047750691046e-03       4.185552174307e+03 
       1.319039970183e-03       5.175742739125e+03 
       1.660572937635e-03       6.376123051777e+03 
       2.090537469327e-03       7.815671894492e+03 
       2.631830744443e-03       9.517783069110e+03 
       3.313278603720e-03       1.149357460346e+04 
       4.171170630578e-03       1.373266011571e+04 
       5.251192703764e-03       1.619063614269e+04 
       6.610859936996e-03       1.877460419497e+04 
       8.322579568497e-03       2.132606515591e+04 
       1.047750691046e-02       2.360548728397e+04 
       1.319039970183e-02       2.528218718857e+04 
       1.660572937633e-02       2.595027476725e+04 
       2.090537453514e-02       2.520937758639e+04 
       2.631818545635e-02       2.287037728239e+04 
       3.311571692125e-02       1.928624342035e+04 
       4.113809243311e-02       1.568427832734e+04 
       4.792590854610e-02       1.361060927250e+04 
       5.284436902701e-02       1.259130030955e+04 
       5.689644391095e-02       1.195556408438e+04 
       6.051252627066e-02       1.147547201257e+04 
       6.388413457411e-02       1.105586786478e+04 
       6.711249296401e-02       1.064900040857e+04 
       7.025823437965e-02       1.022932598558e+04 
       7.336115587705e-02       9.784541889181e+03 
       7.644928796912e-02       9.311629149257e+03 
       7.954353299775e-02       8.814577453339e+03 
       8.266024078725e-02       8.302092151328e+03 
       8.581273398637e-02       7.786931859290e+03 
       8.901225918437e-02       7.283268609918e+03 
       9.226860540985e-02       6.805222125275e+03 
       9.559052048996e-02       6.365668207644e+03 
       9.898599946599e-02       5.974415644353e+03 
       1.024624891378e-01       5.637377672069e+03 
       1.060270359164e-01       5.355822740450e+03 
       1.096863943056e-01       5.126262349077e+03 
       1.134471073830e-01       4.940503813298e+03 
       1.173155669539e-01       4.786185707157e+03 
       1.212980586983e-01       4.647939131369e+03 
       1.254007961065e-01       4.509148947903e+03 
       1.296299459934e-01       4.354554944306e+03 
       1.339916477160e-01       4.173228082380e+03 
       1.384920277736e-01       3.961186418558e+03 
       1.431372111762e-01       3.722688549991e+03 
       1.479333307714e-01       3.469552298798e+03 
       1.528865355934e-01       3.218345071747e+03 
       1.580029992204e-01       2.986260720182e+03 
       1.632889290723e-01       2.786957661905e+03 
       1.687505775527e-01       2.626821938203e+03 
       1.743942559171e-01       2.503772797898e+03 
       1.802263517371e-01       2.407321909888e+03 
       1.862533508214e-01       2.322229837947e+03 
       1.924818644494e-01       2.231544366887e+03 
       1.989186627765e-01       2.122173290418e+03 
       2.055707152847e-01       1.992023800713e+03 
       2.124452391818e-01       1.850318269164e+03 
       2.195497567139e-01       1.712158807250e+03 
       2.268921624510e-01       1.590978124784e+03 
       2.344808017550e-01       1.493660997820e+03 
       2.423245618548e-01       1.418314187144e+03 
       2.504329772620e-01       1.354460350569e+03 
       2.588163516754e-01       1.288929512224e+03 
       2.674858990930e-01       1.213931201786e+03 
       2.764539076010e-01       1.130691647711e+03 
       2.857339303080e-01       1.048090659004e+03 
       2.953410092148e-01       9.761755455322e+02 
       3.052919395542e-01       9.178069996466e+02 
       3.156055844677e-01       8.678947046077e+02 
       3.263032530092e-01       8.185244337480e+02 
       3.374091587054e-01       7.651439011989e+02 
       3.489509817175e-01       7.106651682029e+02 
       3.609605657343e-01       6.607821025196e+02 
       3.734747921333e-01       6.180803510044e+02 
       3.865366902904e-01       5.793086732307e+02 
       4.001968667448e-01       5.403829536324e+02 
       4.145153713076e-01       5.011474704828e+02 
       4.295641718077e-01       4.644958999928e+02 
       4.454304922144e-01       4.314050355567e+02 
       4.622214006969e-01       4.001076432646e+02 
       4.800702491654e-01       3.690872738071e+02 
       4.991459272112e-01       3.394724537427e+02 
       5.196665217302e-01       3.119805915916e+02 
       5.419201087032e-01       2.852427272178e+02 
       5.662975451962e-01       2.593289945142e+02 
       5.933463737275e-01       2.345442542720e+02 
       6.238638458458e-01       2.102275267507e+02 
       6.590669257916e-01       1.864318936015e+02 
       7.009246080454e-01       1.627243732781e+02 
       7.528593308799e-01       1.388178008179e+02 
       8.213469537518e-01       1.141866519799e+02 
       9.196980813302e-01       8.835871123162e+01 
       1.075112183810e+00       6.172581165296e+01 
       1.322697471132e+00       3.804234222948e+01 
       1.662328205042e+00       2.209733763314e+01 
       2.092692408506e+00       1.266850567114e+01 
       2.634543445090e+00       7.202400825787e+00 
       3.316693691389e+00       4.063990903891e+00 
       4.175469971226e+00       2.277080115997e+00 
       5.256605252960e+00       1.267346822101e+00 
       6.617673932723e+00       7.005256094025e-01 
       8.331157880872e+00       3.841029198454e-01 
       1.048830636590e+01       2.081953009386e-01 
       1.320399541071e+01       1.106120572754e-01 
       1.662284535976e+01       5.646193974540e-02 
       2.092692243973e+01       2.643038535619e-02 
       2.634543445002e+01       1.011305821153e-02 
       3.316693691389e+01       2.211932430293e-03 
       4.175469971226e+01       1.486904272565e-06 
       5.256605252960e+01       1.008074035211e-03 
       6.617673932723e+01       1.707438945648e-03 
