# Matter power spectrum P(k) at redshift z=0
# for k=1.04775e-05 to 66.1767 h/Mpc,
# number of wavenumbers equal to 130
#    1:k (h/Mpc)              2:P (Mpc/h)^3        
       1.047750691046e-05       5.020964811307e+01 
       1.319039970183e-05       6.270562594775e+01 
       1.660572937635e-05       7.831147247912e+01 
       2.090537469327e-05       9.780108069297e+01 
       2.631830744443e-05       1.221408203809e+02 
       3.313278603720e-05       1.525374501932e+02 
       4.171170630578e-05       1.904975994009e+02 
       5.251192703764e-05       2.379022224249e+02 
       6.610859936996e-05       2.970989227880e+02 
       8.322579568497e-05       3.710167318946e+02 
       1.047750691046e-04       4.633080766742e+02 
       1.319039970183e-04       5.785234129335e+02 
       1.660572937635e-04       7.223242666092e+02 
       2.090537469327e-04       9.017396271824e+02 
       2.631830744443e-04       1.125468123750e+03 
       3.313278603720e-04       1.404223053681e+03 
       4.171170630578e-04       1.751108028790e+03 
       5.251192703764e-04       2.181998448133e+03 
       6.610859936996e-04       2.715889983593e+03 
       8.322579568497e-04       3.375152337134e+03 
       1.047750691046e-03       4.185552174308e+03 
       1.319039970183e-03       5.175742741535e+03 
       1.660572937635e-03       6.376123051779e+03 
       2.090537469327e-03       7.815671868418e+03 
       2.631830744443e-03       9.517783069112e+03 
       3.313278603720e-03       1.149357460346e+04 
       4.171170630578e-03       1.373266011893e+04 
       5.251192703764e-03       1.619063614555e+04 
       6.610859936996e-03       1.877460411054e+04 
       8.322579568497e-03       2.132607231823e+04 
       1.047750691046e-02       2.360548784289e+04 
       1.319039970183e-02       2.528218602550e+04 
       1.660572937633e-02       2.595028917422e+04 
       2.090537453514e-02       2.520931597263e+04 
       2.631818545635e-02       2.287033065385e+04 
       3.311571692125e-02       1.928628010175e+04 
       4.113809243311e-02       1.568427600402e+04 
       4.792590854610e-02       1.361065664931e+04 
       5.284436902701e-02       1.259128412265e+04 
       5.689644391095e-02       1.195554197749e+04 
       6.051252627066e-02       1.147548187812e+04 
       6.388413457411e-02       1.105590313562e+04 
       6.711249296401e-02       1.064898703117e+04 
       7.025823437965e-02       1.022928715796e+04 
       7.336115587705e-02       9.784510940734e+03 
       7.644928796912e-02       9.311668273680e+03 
       7.954353299775e-02       8.814524927807e+03 
       8.266024078725e-02       8.302122758163e+03 
       8.581273398637e-02       7.786944205849e+03 
       8.901225918437e-02       7.283180382025e+03 
       9.226860540985e-02       6.805150691886e+03 
       9.559052048996e-02       6.365644018794e+03 
       9.898599946599e-02       5.974408564289e+03 
       1.024624891378e-01       5.637317487957e+03 
       1.060270359164e-01       5.355766645286e+03 
       1.096863943056e-01       5.126232357899e+03 
       1.134471073830e-01       4.940489374330e+03 
       1.173155669539e-01       4.786161687431e+03 
       1.212980586983e-01       4.647942513471e+03 
       1.254007961065e-01       4.509125497123e+03 
       1.296299459934e-01       4.354546781194e+03 
       1.339916477160e-01       4.173210775394e+03 
       1.384920277736e-01       3.961160044378e+03 
       1.431372111762e-01       3.722684153292e+03 
       1.479333307714e-01       3.469524849764e+03 
       1.528865355934e-01       3.218345116000e+03 
       1.580029992204e-01       2.986296354491e+03 
       1.632889290723e-01       2.786971086574e+03 
       1.687505775527e-01       2.626833862415e+03 
       1.743942559171e-01       2.503754171246e+03 
       1.802263517371e-01       2.407343656076e+03 
       1.862533508214e-01       2.322252409630e+03 
       1.924818644494e-01       2.231553080794e+03 
       1.989186627765e-01       2.122182571161e+03 
       2.055707152847e-01       1.992022439901e+03 
       2.124452391818e-01       1.850320310913e+03 
       2.195497567139e-01       1.712183187673e+03 
       2.268921624510e-01       1.590993398464e+03 
       2.344808017550e-01       1.493668951228e+03 
       2.423245618548e-01       1.418312999412e+03 
       2.504329772620e-01       1.354462475520e+03 
       2.588163516754e-01       1.288936745184e+03 
       2.674858990930e-01       1.213937300331e+03 
       2.764539076010e-01       1.130690833752e+03 
       2.857339303080e-01       1.048100251630e+03 
       2.953410092148e-01       9.761819888069e+02 
       3.052919395542e-01       9.178121012777e+02 
       3.156055844677e-01       8.678975362027e+02 
       3.263032530092e-01       8.185241795003e+02 
       3.374091587054e-01       7.651463080636e+02 
       3.489509817175e-01       7.106712820844e+02 
       3.609605657343e-01       6.607868081436e+02 
       3.734747921333e-01       6.180860616584e+02 
       3.865366902904e-01       5.793092116479e+02 
       4.001968667448e-01       5.403911613142e+02 
       4.145153713076e-01       5.011515916003e+02 
       4.295641718077e-01       4.645006485421e+02 
       4.454304922144e-01       4.314074281073e+02 
       4.622214006969e-01       4.001122658585e+02 
       4.800702491654e-01       3.690901158069e+02 
       4.991459272112e-01       3.394757976425e+02 
       5.196665217302e-01       3.119850540045e+02 
       5.419201087032e-01       2.852472147237e+02 
       5.662975451962e-01       2.593305760827e+02 
       5.933463737275e-01       2.345472669949e+02 
       6.238638458458e-01       2.102301861933e+02 
       6.590669257916e-01       1.864339135907e+02 
       7.009246080454e-01       1.627254387285e+02 
       7.528593308799e-01       1.388182475802e+02 
       8.213469537518e-01       1.141880364030e+02 
       9.196980813302e-01       8.835907498344e+01 
       1.075112183810e+00       6.172591053964e+01 
       1.322697471132e+00       3.804263385021e+01 
       1.662328205042e+00       2.209786022031e+01 
       2.092692408506e+00       1.266916441501e+01 
       2.634543445090e+00       7.203302760992e+00 
       3.316693691389e+00       4.065140578030e+00 
       4.175469971226e+00       2.278605314485e+00 
       5.256605252960e+00       1.269341737956e+00 
       6.617673932723e+00       7.031378299678e-01 
       8.331157880872e+00       3.874755620892e-01 
       1.048830636590e+01       2.125097667387e-01 
       1.320399541071e+01       1.160354729101e-01 
       1.662284535976e+01       6.309823874840e-02 
       2.092692243973e+01       3.417926037755e-02 
       2.634543445002e+01       1.844579637282e-02 
       3.316693691389e+01       9.918898425135e-03 
       4.175469971226e+01       5.314327350978e-03 
       5.256605252960e+01       2.836445334057e-03 
       6.617673932723e+01       1.507475961331e-03 
