# Matter power spectrum P(k) at redshift z=0
# for k=1.04775e-05 to 66.1767 h/Mpc,
# number of wavenumbers equal to 130
#    1:k (h/Mpc)              2:P (Mpc/h)^3        
       1.047750691046e-05       5.020964811308e+01 
       1.319039970183e-05       6.270562594788e+01 
       1.660572937635e-05       7.831147247911e+01 
       2.090537469327e-05       9.780108069295e+01 
       2.631830744443e-05       1.221408203809e+02 
       3.313278603720e-05       1.525374501932e+02 
       4.171170630578e-05       1.904975994009e+02 
       5.251192703764e-05       2.379022224249e+02 
       6.610859936996e-05       2.970989227882e+02 
       8.322579568497e-05       3.710167318946e+02 
       1.047750691046e-04       4.633080766742e+02 
       1.319039970183e-04       5.785234129331e+02 
       1.660572937635e-04       7.223242666092e+02 
       2.090537469327e-04       9.017396271824e+02 
       2.631830744443e-04       1.125468123750e+03 
       3.313278603720e-04       1.404223053681e+03 
       4.171170630578e-04       1.751108028790e+03 
       5.251192703764e-04       2.181998448133e+03 
       6.610859936996e-04       2.715889983592e+03 
       8.322579568497e-04       3.375152337134e+03 
       1.047750691046e-03       4.185552174309e+03 
       1.319039970183e-03       5.175742738487e+03 
       1.660572937635e-03       6.376123051783e+03 
       2.090537469327e-03       7.815671862213e+03 
       2.631830744443e-03       9.517783069112e+03 
       3.313278603720e-03       1.149357460346e+04 
       4.171170630578e-03       1.373266013250e+04 
       5.251192703764e-03       1.619063614560e+04 
       6.610859936996e-03       1.877460417417e+04 
       8.322579568497e-03       2.132606940991e+04 
       1.047750691046e-02       2.360548195744e+04 
       1.319039970183e-02       2.528218936839e+04 
       1.660572937633e-02       2.595027311750e+04 
       2.090537453514e-02       2.520935008263e+04 
       2.631818545635e-02       2.287033782948e+04 
       3.311571692125e-02       1.928624663088e+04 
       4.113809243311e-02       1.568427054097e+04 
       4.792590854610e-02       1.361060198116e+04 
       5.284436902701e-02       1.259130015702e+04 
       5.689644391095e-02       1.195557697577e+04 
       6.051252627066e-02       1.147548491458e+04 
       6.388413457411e-02       1.105589531510e+04 
       6.711249296401e-02       1.064897544548e+04 
       7.025823437965e-02       1.022928557608e+04 
       7.336115587705e-02       9.784552604004e+03 
       7.644928796912e-02       9.311644154596e+03 
       7.954353299775e-02       8.814541387287e+03 
       8.266024078725e-02       8.302100163281e+03 
       8.581273398637e-02       7.786947698226e+03 
       8.901225918437e-02       7.283180542509e+03 
       9.226860540985e-02       6.805170404916e+03 
       9.559052048996e-02       6.365628961883e+03 
       9.898599946599e-02       5.974392626901e+03 
       1.024624891378e-01       5.637315699715e+03 
       1.060270359164e-01       5.355775261641e+03 
       1.096863943056e-01       5.126252800482e+03 
       1.134471073830e-01       4.940480627538e+03 
       1.173155669539e-01       4.786174886974e+03 
       1.212980586983e-01       4.647933038116e+03 
       1.254007961065e-01       4.509150291029e+03 
       1.296299459934e-01       4.354541410513e+03 
       1.339916477160e-01       4.173213405016e+03 
       1.384920277736e-01       3.961172218485e+03 
       1.431372111762e-01       3.722686277127e+03 
       1.479333307714e-01       3.469548285707e+03 
       1.528865355934e-01       3.218337900911e+03 
       1.580029992204e-01       2.986299889513e+03 
       1.632889290723e-01       2.786969896957e+03 
       1.687505775527e-01       2.626828109161e+03 
       1.743942559171e-01       2.503754665422e+03 
       1.802263517371e-01       2.407342091630e+03 
       1.862533508214e-01       2.322254031071e+03 
       1.924818644494e-01       2.231548598055e+03 
       1.989186627765e-01       2.122194908153e+03 
       2.055707152847e-01       1.992024002085e+03 
       2.124452391818e-01       1.850322799281e+03 
       2.195497567139e-01       1.712187961078e+03 
       2.268921624510e-01       1.590987683731e+03 
       2.344808017550e-01       1.493669288372e+03 
       2.423245618548e-01       1.418309410431e+03 
       2.504329772620e-01       1.354465325914e+03 
       2.588163516754e-01       1.288935112696e+03 
       2.674858990930e-01       1.213938951284e+03 
       2.764539076010e-01       1.130693488391e+03 
       2.857339303080e-01       1.048102904598e+03 
       2.953410092148e-01       9.761804294454e+02 
       3.052919395542e-01       9.178096065689e+02 
       3.156055844677e-01       8.678973063028e+02 
       3.263032530092e-01       8.185279344143e+02 
       3.374091587054e-01       7.651470333960e+02 
       3.489509817175e-01       7.106697673116e+02 
       3.609605657343e-01       6.607876362151e+02 
       3.734747921333e-01       6.180851980813e+02 
       3.865366902904e-01       5.793119203880e+02 
       4.001968667448e-01       5.403933245523e+02 
       4.145153713076e-01       5.011509487917e+02 
       4.295641718077e-01       4.644981543013e+02 
       4.454304922144e-01       4.314085633750e+02 
       4.622214006969e-01       4.001148747238e+02 
       4.800702491654e-01       3.690887568979e+02 
       4.991459272112e-01       3.394764148737e+02 
       5.196665217302e-01       3.119849365070e+02 
       5.419201087032e-01       2.852474393321e+02 
       5.662975451962e-01       2.593312280856e+02 
       5.933463737275e-01       2.345482396164e+02 
       6.238638458458e-01       2.102300416692e+02 
       6.590669257916e-01       1.864332516197e+02 
       7.009246080454e-01       1.627257324255e+02 
       7.528593308799e-01       1.388184279630e+02 
       8.213469537518e-01       1.141882393057e+02 
       9.196980813302e-01       8.835912258617e+01 
       1.075112183810e+00       6.172618424740e+01 
       1.322697471132e+00       3.804285313911e+01 
       1.662328205042e+00       2.209797076833e+01 
       2.092692408506e+00       1.266927090294e+01 
       2.634543445090e+00       7.203385676491e+00 
       3.316693691389e+00       4.065145129275e+00 
       4.175469971226e+00       2.278627786146e+00 
       5.256605252960e+00       1.269346062492e+00 
       6.617673932723e+00       7.031407404970e-01 
       8.331157880872e+00       3.874817873251e-01 
       1.048830636590e+01       2.125078883767e-01 
       1.320399541071e+01       1.160366096783e-01 
       1.662284535976e+01       6.309881888603e-02 
       2.092692243973e+01       3.417926533218e-02 
       2.634543445002e+01       1.844611321203e-02 
       3.316693691389e+01       9.919064581215e-03 
       4.175469971226e+01       5.314628791285e-03 
       5.256605252960e+01       2.836659121545e-03 
       6.617673932723e+01       1.507679290232e-03 
