# Matter power spectrum P(k) at redshift z=0
# for k=1.04775e-05 to 66.1767 h/Mpc,
# number of wavenumbers equal to 130
#    1:k (h/Mpc)              2:P (Mpc/h)^3        
       1.047750691046e-05       5.020964811308e+01 
       1.319039970183e-05       6.270562594770e+01 
       1.660572937635e-05       7.831147247912e+01 
       2.090537469327e-05       9.780108069294e+01 
       2.631830744443e-05       1.221408203809e+02 
       3.313278603720e-05       1.525374501932e+02 
       4.171170630578e-05       1.904975994010e+02 
       5.251192703764e-05       2.379022224249e+02 
       6.610859936996e-05       2.970989227881e+02 
       8.322579568497e-05       3.710167318946e+02 
       1.047750691046e-04       4.633080766742e+02 
       1.319039970183e-04       5.785234129336e+02 
       1.660572937635e-04       7.223242666092e+02 
       2.090537469327e-04       9.017396271824e+02 
       2.631830744443e-04       1.125468123750e+03 
       3.313278603720e-04       1.404223053681e+03 
       4.171170630578e-04       1.751108028790e+03 
       5.251192703764e-04       2.181998448133e+03 
       6.610859936996e-04       2.715889983592e+03 
       8.322579568497e-04       3.375152337134e+03 
       1.047750691046e-03       4.185552174308e+03 
       1.319039970183e-03       5.175742742907e+03 
       1.660572937635e-03       6.376123051778e+03 
       2.090537469327e-03       7.815671868414e+03 
       2.631830744443e-03       9.517783069113e+03 
       3.313278603720e-03       1.149357460345e+04 
       4.171170630578e-03       1.373265990817e+04 
       5.251192703764e-03       1.619063614560e+04 
       6.610859936996e-03       1.877460420632e+04 
       8.322579568497e-03       2.132606836060e+04 
       1.047750691046e-02       2.360548498050e+04 
       1.319039970183e-02       2.528218797703e+04 
       1.660572937633e-02       2.595027682306e+04 
       2.090537453514e-02       2.520935429566e+04 
       2.631818545635e-02       2.287034302413e+04 
       3.311571692125e-02       1.928627359392e+04 
       4.113809243311e-02       1.568428788826e+04 
       4.792590854610e-02       1.361062519381e+04 
       5.284436902701e-02       1.259130985816e+04 
       5.689644391095e-02       1.195555113857e+04 
       6.051252627066e-02       1.147545688983e+04 
       6.388413457411e-02       1.105589866240e+04 
       6.711249296401e-02       1.064899636912e+04 
       7.025823437965e-02       1.022932490825e+04 
       7.336115587705e-02       9.784548344683e+03 
       7.644928796912e-02       9.311652793916e+03 
       7.954353299775e-02       8.814527954992e+03 
       8.266024078725e-02       8.302118684414e+03 
       8.581273398637e-02       7.786934236692e+03 
       8.901225918437e-02       7.283171228224e+03 
       9.226860540985e-02       6.805149128699e+03 
       9.559052048996e-02       6.365618486172e+03 
       9.898599946599e-02       5.974397496678e+03 
       1.024624891378e-01       5.637324135003e+03 
       1.060270359164e-01       5.355766528109e+03 
       1.096863943056e-01       5.126255522413e+03 
       1.134471073830e-01       4.940476016919e+03 
       1.173155669539e-01       4.786161134962e+03 
       1.212980586983e-01       4.647941229110e+03 
       1.254007961065e-01       4.509151968262e+03 
       1.296299459934e-01       4.354546995764e+03 
       1.339916477160e-01       4.173216175492e+03 
       1.384920277736e-01       3.961158092317e+03 
       1.431372111762e-01       3.722685249341e+03 
       1.479333307714e-01       3.469551920865e+03 
       1.528865355934e-01       3.218342738201e+03 
       1.580029992204e-01       2.986293121286e+03 
       1.632889290723e-01       2.786970296816e+03 
       1.687505775527e-01       2.626829568422e+03 
       1.743942559171e-01       2.503758818659e+03 
       1.802263517371e-01       2.407341378264e+03 
       1.862533508214e-01       2.322251086767e+03 
       1.924818644494e-01       2.231551026772e+03 
       1.989186627765e-01       2.122189222786e+03 
       2.055707152847e-01       1.992024386127e+03 
       2.124452391818e-01       1.850324623126e+03 
       2.195497567139e-01       1.712181133179e+03 
       2.268921624510e-01       1.590988399119e+03 
       2.344808017550e-01       1.493668823378e+03 
       2.423245618548e-01       1.418308543295e+03 
       2.504329772620e-01       1.354465101900e+03 
       2.588163516754e-01       1.288939283706e+03 
       2.674858990930e-01       1.213936237501e+03 
       2.764539076010e-01       1.130695371226e+03 
       2.857339303080e-01       1.048100863263e+03 
       2.953410092148e-01       9.761824405366e+02 
       3.052919395542e-01       9.178089091619e+02 
       3.156055844677e-01       8.678980544540e+02 
       3.263032530092e-01       8.185247487356e+02 
       3.374091587054e-01       7.651444767057e+02 
       3.489509817175e-01       7.106695158682e+02 
       3.609605657343e-01       6.607849536964e+02 
       3.734747921333e-01       6.180860660117e+02 
       3.865366902904e-01       5.793107982095e+02 
       4.001968667448e-01       5.403920963880e+02 
       4.145153713076e-01       5.011502054859e+02 
       4.295641718077e-01       4.644982768311e+02 
       4.454304922144e-01       4.314076948807e+02 
       4.622214006969e-01       4.001136377412e+02 
       4.800702491654e-01       3.690892668746e+02 
       4.991459272112e-01       3.394755712596e+02 
       5.196665217302e-01       3.119848406378e+02 
       5.419201087032e-01       2.852463699590e+02 
       5.662975451962e-01       2.593303015952e+02 
       5.933463737275e-01       2.345477970183e+02 
       6.238638458458e-01       2.102308653656e+02 
       6.590669257916e-01       1.864333462037e+02 
       7.009246080454e-01       1.627254058735e+02 
       7.528593308799e-01       1.388185549385e+02 
       8.213469537518e-01       1.141880506919e+02 
       9.196980813302e-01       8.835942329366e+01 
       1.075112183810e+00       6.172637053474e+01 
       1.322697471132e+00       3.804293152358e+01 
       1.662328205042e+00       2.209808660775e+01 
       2.092692408506e+00       1.266922162624e+01 
       2.634543445090e+00       7.203390438516e+00 
       3.316693691389e+00       4.065131005507e+00 
       4.175469971226e+00       2.278612584868e+00 
       5.256605252960e+00       1.269346400021e+00 
       6.617673932723e+00       7.031369108866e-01 
       8.331157880872e+00       3.874798648617e-01 
       1.048830636590e+01       2.125098063844e-01 
       1.320399541071e+01       1.160363231309e-01 
       1.662284535976e+01       6.309877362977e-02 
       2.092692243973e+01       3.417969636135e-02 
       2.634543445002e+01       1.844611014604e-02 
       3.316693691389e+01       9.919149537747e-03 
       4.175469971226e+01       5.314637800887e-03 
       5.256605252960e+01       2.836685491755e-03 
       6.617673932723e+01       1.507692765365e-03 
