# Matter power spectrum P(k) at redshift z=0
# for k=1.04775e-05 to 66.1767 h/Mpc,
# number of wavenumbers equal to 130
#    1:k (h/Mpc)              2:P (Mpc/h)^3        
       1.047750691046e-05       5.020964811312e+01 
       1.319039970183e-05       6.270562594785e+01 
       1.660572937635e-05       7.831147247912e+01 
       2.090537469327e-05       9.780108069294e+01 
       2.631830744443e-05       1.221408203809e+02 
       3.313278603720e-05       1.525374501932e+02 
       4.171170630578e-05       1.904975994009e+02 
       5.251192703764e-05       2.379022224249e+02 
       6.610859936996e-05       2.970989227882e+02 
       8.322579568497e-05       3.710167318945e+02 
       1.047750691046e-04       4.633080766742e+02 
       1.319039970183e-04       5.785234129331e+02 
       1.660572937635e-04       7.223242666092e+02 
       2.090537469327e-04       9.017396271824e+02 
       2.631830744443e-04       1.125468123750e+03 
       3.313278603720e-04       1.404223053681e+03 
       4.171170630578e-04       1.751108028789e+03 
       5.251192703764e-04       2.181998448133e+03 
       6.610859936996e-04       2.715889983592e+03 
       8.322579568497e-04       3.375152337134e+03 
       1.047750691046e-03       4.185552174307e+03 
       1.319039970183e-03       5.175742739531e+03 
       1.660572937635e-03       6.376123051777e+03 
       2.090537469327e-03       7.815671868445e+03 
       2.631830744443e-03       9.517783069112e+03 
       3.313278603720e-03       1.149357460346e+04 
       4.171170630578e-03       1.373265990154e+04 
       5.251192703764e-03       1.619063614560e+04 
       6.610859936996e-03       1.877460419115e+04 
       8.322579568497e-03       2.132606915433e+04 
       1.047750691046e-02       2.360548845353e+04 
       1.319039970183e-02       2.528218655181e+04 
       1.660572937633e-02       2.595027954336e+04 
       2.090537453514e-02       2.520934649918e+04 
       2.631818545635e-02       2.287035409809e+04 
       3.311571692125e-02       1.928623880416e+04 
       4.113809243311e-02       1.568429861853e+04 
       4.792590854610e-02       1.361064893014e+04 
       5.284436902701e-02       1.259131128193e+04 
       5.689644391095e-02       1.195553817996e+04 
       6.051252627066e-02       1.147548020282e+04 
       6.388413457411e-02       1.105590341164e+04 
       6.711249296401e-02       1.064899712389e+04 
       7.025823437965e-02       1.022929605936e+04 
       7.336115587705e-02       9.784557247743e+03 
       7.644928796912e-02       9.311669179397e+03 
       7.954353299775e-02       8.814525161416e+03 
       8.266024078725e-02       8.302096260894e+03 
       8.581273398637e-02       7.786951477882e+03 
       8.901225918437e-02       7.283180350397e+03 
       9.226860540985e-02       6.805160713943e+03 
       9.559052048996e-02       6.365640550384e+03 
       9.898599946599e-02       5.974403433941e+03 
       1.024624891378e-01       5.637317297703e+03 
       1.060270359164e-01       5.355761575612e+03 
       1.096863943056e-01       5.126242357546e+03 
       1.134471073830e-01       4.940477300283e+03 
       1.173155669539e-01       4.786162126040e+03 
       1.212980586983e-01       4.647939296514e+03 
       1.254007961065e-01       4.509164251257e+03 
       1.296299459934e-01       4.354558251427e+03 
       1.339916477160e-01       4.173219849566e+03 
       1.384920277736e-01       3.961157215224e+03 
       1.431372111762e-01       3.722674463716e+03 
       1.479333307714e-01       3.469550443994e+03 
       1.528865355934e-01       3.218338844993e+03 
       1.580029992204e-01       2.986291837254e+03 
       1.632889290723e-01       2.786970182114e+03 
       1.687505775527e-01       2.626830489206e+03 
       1.743942559171e-01       2.503756406976e+03 
       1.802263517371e-01       2.407346143986e+03 
       1.862533508214e-01       2.322254047508e+03 
       1.924818644494e-01       2.231554432122e+03 
       1.989186627765e-01       2.122190290306e+03 
       2.055707152847e-01       1.992027383520e+03 
       2.124452391818e-01       1.850326446985e+03 
       2.195497567139e-01       1.712182083237e+03 
       2.268921624510e-01       1.590992226786e+03 
       2.344808017550e-01       1.493668180535e+03 
       2.423245618548e-01       1.418314405405e+03 
       2.504329772620e-01       1.354466386664e+03 
       2.588163516754e-01       1.288934948201e+03 
       2.674858990930e-01       1.213933748155e+03 
       2.764539076010e-01       1.130695350676e+03 
       2.857339303080e-01       1.048101357310e+03 
       2.953410092148e-01       9.761798449603e+02 
       3.052919395542e-01       9.178093283720e+02 
       3.156055844677e-01       8.678976550386e+02 
       3.263032530092e-01       8.185259319461e+02 
       3.374091587054e-01       7.651456022715e+02 
       3.489509817175e-01       7.106712905493e+02 
       3.609605657343e-01       6.607855863614e+02 
       3.734747921333e-01       6.180878928880e+02 
       3.865366902904e-01       5.793102605551e+02 
       4.001968667448e-01       5.403937373005e+02 
       4.145153713076e-01       5.011521216277e+02 
       4.295641718077e-01       4.644993724714e+02 
       4.454304922144e-01       4.314093073502e+02 
       4.622214006969e-01       4.001134777942e+02 
       4.800702491654e-01       3.690883607265e+02 
       4.991459272112e-01       3.394773535564e+02 
       5.196665217302e-01       3.119858140092e+02 
       5.419201087032e-01       2.852474039799e+02 
       5.662975451962e-01       2.593311868922e+02 
       5.933463737275e-01       2.345487651142e+02 
       6.238638458458e-01       2.102305795272e+02 
       6.590669257916e-01       1.864337111553e+02 
       7.009246080454e-01       1.627251190565e+02 
       7.528593308799e-01       1.388179513276e+02 
       8.213469537518e-01       1.141885266997e+02 
       9.196980813302e-01       8.835943090338e+01 
       1.075112183810e+00       6.172617755769e+01 
       1.322697471132e+00       3.804277917690e+01 
       1.662328205042e+00       2.209806750691e+01 
       2.092692408506e+00       1.266925897530e+01 
       2.634543445090e+00       7.203338860706e+00 
       3.316693691389e+00       4.065138364611e+00 
       4.175469971226e+00       2.278626794414e+00 
       5.256605252960e+00       1.269347547519e+00 
       6.617673932723e+00       7.031444573875e-01 
       8.331157880872e+00       3.874793399200e-01 
       1.048830636590e+01       2.125122480288e-01 
       1.320399541071e+01       1.160372413954e-01 
       1.662284535976e+01       6.309908994992e-02 
       2.092692243973e+01       3.417982045136e-02 
       2.634543445002e+01       1.844630178057e-02 
       3.316693691389e+01       9.919184179297e-03 
       4.175469971226e+01       5.314691450322e-03 
       5.256605252960e+01       2.836714448662e-03 
       6.617673932723e+01       1.507716015710e-03 
