# Matter power spectrum P(k) at redshift z=99
# for k=1.04775e-05 to 66.1767 h/Mpc,
# number of wavenumbers equal to 130
#    1:k (h/Mpc)              2:P (Mpc/h)^3        
       1.047750691046e-05       7.261927680862e-03 
       1.319039970183e-05       9.069258201849e-03 
       1.660572937635e-05       1.132639106725e-02 
       2.090537469327e-05       1.414527123399e-02 
       2.631830744443e-05       1.766569584058e-02 
       3.313278603720e-05       2.206225515943e-02 
       4.171170630578e-05       2.755297766277e-02 
       5.251192703764e-05       3.441013522948e-02 
       6.610859936996e-05       4.297372172778e-02 
       8.322579568497e-05       5.366826852945e-02 
       1.047750691046e-04       6.702379872775e-02 
       1.319039970183e-04       8.370193441286e-02 
       1.660572937635e-04       1.045283355384e-01 
       2.090537469327e-04       1.305329134104e-01 
       2.631830744443e-04       1.629994506605e-01 
       3.313278603720e-04       2.035264004602e-01 
       4.171170630578e-04       2.541004744243e-01 
       5.251192703764e-04       3.171839528557e-01 
       6.610859936996e-04       3.958147256514e-01 
       8.322579568497e-04       4.937136006284e-01 
       1.047750691046e-03       6.153841636041e-01 
       1.319039970183e-03       7.661720592477e-01 
       1.660572937635e-03       9.522588016468e-01 
       2.090537469327e-03       1.180312991700e+00 
       2.631830744443e-03       1.456802684685e+00 
       3.313278603720e-03       1.786503854035e+00 
       4.171170630578e-03       2.169896195763e+00 
       5.251192703764e-03       2.599430630717e+00 
       6.610859936996e-03       3.055668692128e+00 
       8.322579568497e-03       3.505725598540e+00 
       1.047750691046e-02       3.905489918590e+00 
       1.319039970183e-02       4.200915349391e+00 
       1.660572937633e-02       4.325061176574e+00 
       2.090537453514e-02       4.210199060074e+00 
       2.631818545635e-02       3.825147977487e+00 
       3.311571692125e-02       3.229067822002e+00 
       4.113809243311e-02       2.627730063920e+00 
       4.792590854610e-02       2.280788662252e+00 
       5.284436902701e-02       2.110087473499e+00 
       5.689644391095e-02       2.003536755613e+00 
       6.051252627066e-02       1.923052784487e+00 
       6.388413457411e-02       1.852734361111e+00 
       6.711249296401e-02       1.784564975989e+00 
       7.025823437965e-02       1.714276726236e+00 
       7.336115587705e-02       1.639810013185e+00 
       7.644928796912e-02       1.560661752351e+00 
       7.954353299775e-02       1.477456551609e+00 
       8.266024078725e-02       1.391697252839e+00 
       8.581273398637e-02       1.305462927023e+00 
       8.901225918437e-02       1.221126727638e+00 
       9.226860540985e-02       1.141080261191e+00 
       9.559052048996e-02       1.067456896783e+00 
       9.898599946599e-02       1.001889547134e+00 
       1.024624891378e-01       9.453839121308e-01 
       1.060270359164e-01       8.981498366027e-01 
       1.096863943056e-01       8.596125970492e-01 
       1.134471073830e-01       8.284039777564e-01 
       1.173155669539e-01       8.024665644535e-01 
       1.212980586983e-01       7.792290388806e-01 
       1.254007961065e-01       7.559175917240e-01 
       1.296299459934e-01       7.299823488882e-01 
       1.339916477160e-01       6.995921169716e-01 
       1.384920277736e-01       6.640799322529e-01 
       1.431372111762e-01       6.241465991740e-01 
       1.479333307714e-01       5.817640554419e-01 
       1.528865355934e-01       5.396922877321e-01 
       1.580029992204e-01       5.008135569215e-01 
       1.632889290723e-01       4.673987024363e-01 
       1.687505775527e-01       4.405329074454e-01 
       1.743942559171e-01       4.198663213114e-01 
       1.802263517371e-01       4.036591588516e-01 
       1.862533508214e-01       3.893600961518e-01 
       1.924818644494e-01       3.741350343949e-01 
       1.989186627765e-01       3.558021552306e-01 
       2.055707152847e-01       3.340004351366e-01 
       2.124452391818e-01       3.102671500398e-01 
       2.195497567139e-01       2.871230376071e-01 
       2.268921624510e-01       2.668077584109e-01 
       2.344808017550e-01       2.504835130876e-01 
       2.423245618548e-01       2.378331583754e-01 
       2.504329772620e-01       2.271118896716e-01 
       2.588163516754e-01       2.161192092823e-01 
       2.674858990930e-01       2.035451921622e-01 
       2.764539076010e-01       1.895984210594e-01 
       2.857339303080e-01       1.757575758120e-01 
       2.953410092148e-01       1.636992461194e-01 
       3.052919395542e-01       1.539058148188e-01 
       3.156055844677e-01       1.455308645703e-01 
       3.263032530092e-01       1.372508273983e-01 
       3.374091587054e-01       1.283022556167e-01 
       3.489509817175e-01       1.191712947084e-01 
       3.609605657343e-01       1.108072803702e-01 
       3.734747921333e-01       1.036448514487e-01 
       3.865366902904e-01       9.714130206252e-02 
       4.001968667448e-01       9.061572933873e-02 
       4.145153713076e-01       8.403694030051e-02 
       4.295641718077e-01       7.789118296333e-02 
       4.454304922144e-01       7.234167527284e-02 
       4.622214006969e-01       6.709374040679e-02 
       4.800702491654e-01       6.189176776128e-02 
       4.991459272112e-01       5.692639783994e-02 
       5.196665217302e-01       5.231606634818e-02 
       5.419201087032e-01       4.783232250915e-02 
       5.662975451962e-01       4.348679886248e-02 
       5.933463737275e-01       3.933085087240e-02 
       6.238638458458e-01       3.525330276831e-02 
       6.590669257916e-01       3.126273079525e-02 
       7.009246080454e-01       2.728717244083e-02 
       7.528593308799e-01       2.327819631542e-02 
       8.213469537518e-01       1.914798021687e-02 
       9.196980813302e-01       1.481672034597e-02 
       1.075112183810e+00       1.035056402220e-02 
       1.322697471132e+00       6.378975264014e-03 
       1.662328205042e+00       3.704995994513e-03 
       2.092692408506e+00       2.123623983083e-03 
       2.634543445090e+00       1.206732473926e-03 
       3.316693691389e+00       6.800772389406e-04 
       4.175469971226e+00       3.799788638557e-04 
       5.256605252960e+00       2.100912497912e-04 
       6.617673932723e+00       1.143605158246e-04 
       8.331157880872e+00       6.052505698771e-05 
       1.048830636590e+01       3.024968753155e-05 
       1.320399541071e+01       1.332522745971e-05 
       1.662284535976e+01       4.312440201749e-06 
       2.092692243973e+01       4.894350073883e-07 
       2.634543445002e+01       1.855407913533e-07 
       3.316693691389e+01       1.187992621062e-06 
       4.175469971226e+01       9.629176875289e-07 
       5.256605252960e+01       2.777665473235e-08 
       6.617673932723e+01       2.317993702731e-07 
