# Matter power spectrum P(k) at redshift z=0
# for k=1.04775e-05 to 66.1767 h/Mpc,
# number of wavenumbers equal to 130
#    1:k (h/Mpc)              2:P (Mpc/h)^3        
       1.047750691046e-05       5.020964811307e+01 
       1.319039970183e-05       6.270562594784e+01 
       1.660572937635e-05       7.831147247912e+01 
       2.090537469327e-05       9.780108069294e+01 
       2.631830744443e-05       1.221408203809e+02 
       3.313278603720e-05       1.525374501932e+02 
       4.171170630578e-05       1.904975994010e+02 
       5.251192703764e-05       2.379022224249e+02 
       6.610859936996e-05       2.970989227881e+02 
       8.322579568497e-05       3.710167318946e+02 
       1.047750691046e-04       4.633080766742e+02 
       1.319039970183e-04       5.785234129341e+02 
       1.660572937635e-04       7.223242666092e+02 
       2.090537469327e-04       9.017396271824e+02 
       2.631830744443e-04       1.125468123750e+03 
       3.313278603720e-04       1.404223053681e+03 
       4.171170630578e-04       1.751108028790e+03 
       5.251192703764e-04       2.181998448133e+03 
       6.610859936996e-04       2.715889983592e+03 
       8.322579568497e-04       3.375152337135e+03 
       1.047750691046e-03       4.185552174305e+03 
       1.319039970183e-03       5.175742740675e+03 
       1.660572937635e-03       6.376123051778e+03 
       2.090537469327e-03       7.815671862800e+03 
       2.631830744443e-03       9.517783069113e+03 
       3.313278603720e-03       1.149357460343e+04 
       4.171170630578e-03       1.373266010603e+04 
       5.251192703764e-03       1.619063614560e+04 
       6.610859936996e-03       1.877460423527e+04 
       8.322579568497e-03       2.132607231831e+04 
       1.047750691046e-02       2.360547294592e+04 
       1.319039970183e-02       2.528218949552e+04 
       1.660572937633e-02       2.595025415858e+04 
       2.090537453514e-02       2.520935479965e+04 
       2.631818545635e-02       2.287036728508e+04 
       3.311571692125e-02       1.928626869706e+04 
       4.113809243311e-02       1.568428113432e+04 
       4.792590854610e-02       1.361062090925e+04 
       5.284436902701e-02       1.259130767508e+04 
       5.689644391095e-02       1.195553854471e+04 
       6.051252627066e-02       1.147547696309e+04 
       6.388413457411e-02       1.105590529578e+04 
       6.711249296401e-02       1.064900718186e+04 
       7.025823437965e-02       1.022928879020e+04 
       7.336115587705e-02       9.784538820536e+03 
       7.644928796912e-02       9.311664458027e+03 
       7.954353299775e-02       8.814540684190e+03 
       8.266024078725e-02       8.302126951664e+03 
       8.581273398637e-02       7.786947294753e+03 
       8.901225918437e-02       7.283185555942e+03 
       9.226860540985e-02       6.805164850257e+03 
       9.559052048996e-02       6.365632795200e+03 
       9.898599946599e-02       5.974396286440e+03 
       1.024624891378e-01       5.637335132648e+03 
       1.060270359164e-01       5.355764325523e+03 
       1.096863943056e-01       5.126226996724e+03 
       1.134471073830e-01       4.940483586560e+03 
       1.173155669539e-01       4.786163043252e+03 
       1.212980586983e-01       4.647931709181e+03 
       1.254007961065e-01       4.509144842904e+03 
       1.296299459934e-01       4.354554236945e+03 
       1.339916477160e-01       4.173213726296e+03 
       1.384920277736e-01       3.961171803994e+03 
       1.431372111762e-01       3.722685270575e+03 
       1.479333307714e-01       3.469554684898e+03 
       1.528865355934e-01       3.218333022990e+03 
       1.580029992204e-01       2.986296283605e+03 
       1.632889290723e-01       2.786963371132e+03 
       1.687505775527e-01       2.626825290393e+03 
       1.743942559171e-01       2.503757580882e+03 
       1.802263517371e-01       2.407341368854e+03 
       1.862533508214e-01       2.322253792303e+03 
       1.924818644494e-01       2.231551334447e+03 
       1.989186627765e-01       2.122188990312e+03 
       2.055707152847e-01       1.992028069816e+03 
       2.124452391818e-01       1.850329579450e+03 
       2.195497567139e-01       1.712185224413e+03 
       2.268921624510e-01       1.590992028470e+03 
       2.344808017550e-01       1.493669798581e+03 
       2.423245618548e-01       1.418305825874e+03 
       2.504329772620e-01       1.354464419519e+03 
       2.588163516754e-01       1.288934588940e+03 
       2.674858990930e-01       1.213937625775e+03 
       2.764539076010e-01       1.130693197595e+03 
       2.857339303080e-01       1.048100968135e+03 
       2.953410092148e-01       9.761845062850e+02 
       3.052919395542e-01       9.178124882779e+02 
       3.156055844677e-01       8.678986643072e+02 
       3.263032530092e-01       8.185244552936e+02 
       3.374091587054e-01       7.651465294595e+02 
       3.489509817175e-01       7.106688657542e+02 
       3.609605657343e-01       6.607858943621e+02 
       3.734747921333e-01       6.180863411490e+02 
       3.865366902904e-01       5.793110199116e+02 
       4.001968667448e-01       5.403925124037e+02 
       4.145153713076e-01       5.011518681806e+02 
       4.295641718077e-01       4.644984139080e+02 
       4.454304922144e-01       4.314094264431e+02 
       4.622214006969e-01       4.001127435080e+02 
       4.800702491654e-01       3.690887478273e+02 
       4.991459272112e-01       3.394775081311e+02 
       5.196665217302e-01       3.119868513054e+02 
       5.419201087032e-01       2.852472620921e+02 
       5.662975451962e-01       2.593313264788e+02 
       5.933463737275e-01       2.345490266740e+02 
       6.238638458458e-01       2.102306373607e+02 
       6.590669257916e-01       1.864334632873e+02 
       7.009246080454e-01       1.627248295826e+02 
       7.528593308799e-01       1.388186990581e+02 
       8.213469537518e-01       1.141881155049e+02 
       9.196980813302e-01       8.835912878779e+01 
       1.075112183810e+00       6.172602683177e+01 
       1.322697471132e+00       3.804281048358e+01 
       1.662328205042e+00       2.209807180270e+01 
       2.092692408506e+00       1.266922703900e+01 
       2.634543445090e+00       7.203381284836e+00 
       3.316693691389e+00       4.065140021124e+00 
       4.175469971226e+00       2.278622082484e+00 
       5.256605252960e+00       1.269350634520e+00 
       6.617673932723e+00       7.031388234565e-01 
       8.331157880872e+00       3.874801226692e-01 
       1.048830636590e+01       2.125125713966e-01 
       1.320399541071e+01       1.160361584682e-01 
       1.662284535976e+01       6.309910700023e-02 
       2.092692243973e+01       3.417975695798e-02 
       2.634543445002e+01       1.844620665400e-02 
       3.316693691389e+01       9.919225352676e-03 
       4.175469971226e+01       5.314623440474e-03 
       5.256605252960e+01       2.836728956547e-03 
       6.617673932723e+01       1.507709448444e-03 
