# Matter power spectrum P(k) at redshift z=0
# for k=1.04775e-05 to 66.1767 h/Mpc,
# number of wavenumbers equal to 130
#    1:k (h/Mpc)              2:P (Mpc/h)^3        
       1.047750691046e-05       5.020964811308e+01 
       1.319039970183e-05       6.270562594780e+01 
       1.660572937635e-05       7.831147247912e+01 
       2.090537469327e-05       9.780108069295e+01 
       2.631830744443e-05       1.221408203809e+02 
       3.313278603720e-05       1.525374501932e+02 
       4.171170630578e-05       1.904975994010e+02 
       5.251192703764e-05       2.379022224249e+02 
       6.610859936996e-05       2.970989227882e+02 
       8.322579568497e-05       3.710167318946e+02 
       1.047750691046e-04       4.633080766742e+02 
       1.319039970183e-04       5.785234129339e+02 
       1.660572937635e-04       7.223242666092e+02 
       2.090537469327e-04       9.017396271824e+02 
       2.631830744443e-04       1.125468123749e+03 
       3.313278603720e-04       1.404223053681e+03 
       4.171170630578e-04       1.751108028790e+03 
       5.251192703764e-04       2.181998448132e+03 
       6.610859936996e-04       2.715889983593e+03 
       8.322579568497e-04       3.375152337134e+03 
       1.047750691046e-03       4.185552174303e+03 
       1.319039970183e-03       5.175742738738e+03 
       1.660572937635e-03       6.376123051787e+03 
       2.090537469327e-03       7.815671859505e+03 
       2.631830744443e-03       9.517783069054e+03 
       3.313278603720e-03       1.149357460334e+04 
       4.171170630578e-03       1.373266008822e+04 
       5.251192703764e-03       1.619063608242e+04 
       6.610859936996e-03       1.877460419366e+04 
       8.322579568497e-03       2.132611397714e+04 
       1.047750691046e-02       2.360547952069e+04 
       1.319039970183e-02       2.528218895997e+04 
       1.660572937633e-02       2.595026977698e+04 
       2.090537453514e-02       2.520933314728e+04 
       2.631818545635e-02       2.287034650875e+04 
       3.311571692125e-02       1.928619558774e+04 
       4.113809243311e-02       1.568421794971e+04 
       4.792590854610e-02       1.361062001089e+04 
       5.284436902701e-02       1.259131019907e+04 
       5.689644391095e-02       1.195562722353e+04 
       6.051252627066e-02       1.147545763067e+04 
       6.388413457411e-02       1.105590720388e+04 
       6.711249296401e-02       1.064899388945e+04 
       7.025823437965e-02       1.022931967570e+04 
       7.336115587705e-02       9.784588032455e+03 
       7.644928796912e-02       9.311527166701e+03 
       7.954353299775e-02       8.814569854775e+03 
       8.266024078725e-02       8.302172463622e+03 
       8.581273398637e-02       7.786974818689e+03 
       8.901225918437e-02       7.283266253829e+03 
       9.226860540985e-02       6.805180588184e+03 
       9.559052048996e-02       6.365628003320e+03 
       9.898599946599e-02       5.974403573931e+03 
       1.024624891378e-01       5.637355026127e+03 
       1.060270359164e-01       5.355773187926e+03 
       1.096863943056e-01       5.126238906343e+03 
       1.134471073830e-01       4.940517245801e+03 
       1.173155669539e-01       4.786166884979e+03 
       1.212980586983e-01       4.647942670193e+03 
       1.254007961065e-01       4.509050737562e+03 
       1.296299459934e-01       4.354538583146e+03 
       1.339916477160e-01       4.173233135350e+03 
       1.384920277736e-01       3.961175514407e+03 
       1.431372111762e-01       3.722599573458e+03 
       1.479333307714e-01       3.469558060230e+03 
       1.528865355934e-01       3.218320330837e+03 
       1.580029992204e-01       2.986244523578e+03 
       1.632889290723e-01       2.786946301488e+03 
       1.687505775527e-01       2.626810447942e+03 
       1.743942559171e-01       2.503756620114e+03 
       1.802263517371e-01       2.407302670611e+03 
       1.862533508214e-01       2.322255008205e+03 
       1.924818644494e-01       2.231570515004e+03 
       1.989186627765e-01       2.122208629834e+03 
       2.055707152847e-01       1.992040396460e+03 
       2.124452391818e-01       1.850311074023e+03 
       2.195497567139e-01       1.712158692543e+03 
       2.268921624510e-01       1.590967683273e+03 
       2.344808017550e-01       1.493655687732e+03 
       2.423245618548e-01       1.418302551035e+03 
       2.504329772620e-01       1.354446576586e+03 
       2.588163516754e-01       1.288930773320e+03 
       2.674858990930e-01       1.213903746989e+03 
       2.764539076010e-01       1.130684610739e+03 
       2.857339303080e-01       1.048086676522e+03 
       2.953410092148e-01       9.761722281834e+02 
       3.052919395542e-01       9.177997524463e+02 
       3.156055844677e-01       8.678854196603e+02 
       3.263032530092e-01       8.185220981420e+02 
       3.374091587054e-01       7.651474708563e+02 
       3.489509817175e-01       7.106586886048e+02 
       3.609605657343e-01       6.607764721864e+02 
       3.734747921333e-01       6.180808391591e+02 
       3.865366902904e-01       5.793012742917e+02 
       4.001968667448e-01       5.403820130284e+02 
       4.145153713076e-01       5.011434263255e+02 
       4.295641718077e-01       4.644942354458e+02 
       4.454304922144e-01       4.313998509168e+02 
       4.622214006969e-01       4.001093145982e+02 
       4.800702491654e-01       3.690827644131e+02 
       4.991459272112e-01       3.394699836411e+02 
       5.196665217302e-01       3.119800794232e+02 
       5.419201087032e-01       2.852407219585e+02 
       5.662975451962e-01       2.593261940651e+02 
       5.933463737275e-01       2.345435690727e+02 
       6.238638458458e-01       2.102288348120e+02 
       6.590669257916e-01       1.864314559784e+02 
       7.009246080454e-01       1.627231212806e+02 
       7.528593308799e-01       1.388167561544e+02 
       8.213469537518e-01       1.141873159011e+02 
       9.196980813302e-01       8.835789279489e+01 
       1.075112183810e+00       6.172482321599e+01 
       1.322697471132e+00       3.804176454085e+01 
       1.662328205042e+00       2.209699007685e+01 
       2.092692408506e+00       1.266827537208e+01 
       2.634543445090e+00       7.202441698619e+00 
       3.316693691389e+00       4.064338751515e+00 
       4.175469971226e+00       2.277839257598e+00 
       5.256605252960e+00       1.268594738402e+00 
       6.617673932723e+00       7.024031590495e-01 
       8.331157880872e+00       3.867740010559e-01 
       1.048830636590e+01       2.118226264287e-01 
       1.320399541071e+01       1.153596295640e-01 
       1.662284535976e+01       6.242269893159e-02 
       2.092692243973e+01       3.349432323619e-02 
       2.634543445002e+01       1.774081496063e-02 
       3.316693691389e+01       9.184328787561e-03 
       4.175469971226e+01       4.547471637637e-03 
       5.256605252960e+01       2.052153332954e-03 
       6.617673932723e+01       7.526266570623e-04 
