# Matter power spectrum P(k) at redshift z=0
# for k=1.04775e-05 to 67.6233 h/Mpc,
# number of wavenumbers equal to 246
#    1:k (h/Mpc)              2:P (Mpc/h)^3        
       1.047750691046e-05       5.020964811307e+01 
       1.131335172503e-05       5.407050701929e+01 
       1.221587619537e-05       5.822819068721e+01 
       1.319039970183e-05       6.270562594788e+01 
       1.424266597921e-05       6.752732240880e+01 
       1.537887696968e-05       7.271977206173e+01 
       1.660572937635e-05       7.831147247912e+01 
       1.793045413292e-05       8.433311821988e+01 
       1.936085902198e-05       9.081778249833e+01 
       2.090537469327e-05       9.780108069295e+01 
       2.257310435294e-05       1.053213197893e+02 
       2.437387741694e-05       1.134197377890e+02 
       2.631830744443e-05       1.221408203810e+02 
       2.841785469300e-05       1.315324642470e+02 
       3.068489366414e-05       1.416462094881e+02 
       3.313278603720e-05       1.525374501932e+02 
       3.577595942169e-05       1.642660688414e+02 
       3.862999239199e-05       1.768963506307e+02 
       4.171170630578e-05       1.904975994010e+02 
       4.503926444729e-05       2.051444491974e+02 
       4.863227907969e-05       2.209171465549e+02 
       5.251192703764e-05       2.379022224249e+02 
       5.670107454120e-05       2.561927927751e+02 
       6.122441196689e-05       2.758890444041e+02 
       6.610859936996e-05       2.970989227881e+02 
       7.138242361596e-05       3.199385560802e+02 
       7.707696804727e-05       3.445329783680e+02 
       8.322579568497e-05       3.710167318946e+02 
       8.986514704559e-05       3.995346444203e+02 
       9.703415373875e-05       4.302425407383e+02 
       1.047750691046e-04       4.633080766742e+02 
       1.131335172503e-04       4.989116271565e+02 
       1.221587619537e-04       5.372471950929e+02 
       1.319039970183e-04       5.785234129333e+02 
       1.424266597921e-04       6.229645936045e+02 
       1.537887696968e-04       6.708118490405e+02 
       1.660572937635e-04       7.223242666092e+02 
       1.793045413292e-04       7.777801559931e+02 
       1.936085902198e-04       8.374783614140e+02 
       2.090537469327e-04       9.017396271824e+02 
       2.257310435294e-04       9.709080268041e+02 
       2.437387741694e-04       1.045352449493e+03 
       2.631830744443e-04       1.125468123750e+03 
       2.841785469300e-04       1.211678180495e+03 
       3.068489366414e-04       1.304435250150e+03 
       3.313278603720e-04       1.404223053681e+03 
       3.577595942169e-04       1.511558014616e+03 
       3.862999239199e-04       1.626990837786e+03 
       4.171170630578e-04       1.751108028790e+03 
       4.503926444729e-04       1.884533382872e+03 
       4.863227907969e-04       2.027929378113e+03 
       5.251192703764e-04       2.181998448133e+03 
       5.670107454121e-04       2.347484102755e+03 
       6.122441196689e-04       2.525171871365e+03 
       6.610859936996e-04       2.715889983593e+03 
       7.138242361596e-04       2.920509688386e+03 
       7.707696804727e-04       3.139945100279e+03 
       8.322579568497e-04       3.375152337587e+03 
       8.986514704559e-04       3.627127831141e+03 
       9.703415373875e-04       3.896905453136e+03 
       1.047750691046e-03       4.185552174299e+03 
       1.131335172503e-03       4.494162430373e+03 
       1.221587619537e-03       4.823850706496e+03 
       1.319039970183e-03       5.175742740030e+03 
       1.424266597921e-03       5.551019596901e+03 
       1.537887696968e-03       5.950788340561e+03 
       1.660572937635e-03       6.376123051789e+03 
       1.793045413292e-03       6.828073901459e+03 
       1.936085902198e-03       7.307625381066e+03 
       2.090537469327e-03       7.815671913081e+03 
       2.257310435294e-03       8.352990375823e+03 
       2.437387741694e-03       8.920211064337e+03 
       2.631830744443e-03       9.517783069112e+03 
       2.841785469300e-03       1.014593704435e+04 
       3.068489366414e-03       1.080464502792e+04 
       3.313278603720e-03       1.149357460345e+04 
       3.577595942169e-03       1.221203621722e+04 
       3.862999239199e-03       1.295892539446e+04 
       4.171170630578e-03       1.373266012799e+04 
       4.503926444729e-03       1.453111835625e+04 
       4.863227907969e-03       1.535154985299e+04 
       5.251192703764e-03       1.619063614551e+04 
       5.670107454120e-03       1.704431257741e+04 
       6.122441196689e-03       1.790755939656e+04 
       6.610859936996e-03       1.877460419273e+04 
       7.138242361596e-03       1.963872430369e+04 
       7.707696804727e-03       2.049215714558e+04 
       8.322579568496e-03       2.132607231758e+04 
       8.986514704559e-03       2.213055109396e+04 
       9.703415373875e-03       2.289445472160e+04 
       1.047750691046e-02       2.360548120112e+04 
       1.131335172503e-02       2.425022857872e+04 
       1.221587619537e-02       2.481423923454e+04 
       1.319039970183e-02       2.528218849437e+04 
       1.424266597920e-02       2.563814931620e+04 
       1.537887696964e-02       2.586606589396e+04 
       1.660572937560e-02       2.595027090066e+04 
       1.793045412207e-02       2.587634154613e+04 
       1.936085889642e-02       2.563220487053e+04 
       2.090537351881e-02       2.520936321929e+04 
       2.257309534705e-02       2.460447380537e+04 
       2.437382002240e-02       2.382089059392e+04 
       2.631799943729e-02       2.287044447683e+04 
       2.841644544598e-02       2.177449680508e+04 
       3.067933354524e-02       2.056549568327e+04 
       3.311368469821e-02       1.928732185843e+04 
       3.571840442514e-02       1.799404318278e+04 
       3.847720347390e-02       1.674679435692e+04 
       4.135335537314e-02       1.560459275574e+04 
       4.429361666563e-02       1.461038442442e+04 
       4.724366437916e-02       1.378057435523e+04 
       5.016480834039e-02       1.310507722717e+04 
       5.303989618930e-02       1.255715137712e+04 
       5.586870668205e-02       1.210426058787e+04 
       5.866042679206e-02       1.171464822848e+04 
       6.142798931504e-02       1.136045745380e+04 
       6.418496438662e-02       1.101856803048e+04 
       6.694418832236e-02       1.067068890632e+04 
       6.971731104453e-02       1.030355619939e+04 
       7.251476154108e-02       9.909001689119e+03 
       7.534587669814e-02       9.483786513564e+03 
       7.821907664495e-02       9.029485493325e+03 
       8.114203771084e-02       8.552337833681e+03 
       8.412184533139e-02       8.061928257165e+03 
       8.716512277352e-02       7.570781942373e+03 
       9.027813693913e-02       7.092517594051e+03 
       9.346688429613e-02       6.640515116817e+03 
       9.673716026122e-02       6.226711481637e+03 
       1.000946150608e-01       5.859934440018e+03 
       1.035447986307e-01       5.545285220439e+03 
       1.070931966524e-01       5.283106671639e+03 
       1.107452594180e-01       5.069421794205e+03 
       1.145064248899e-01       4.895244624953e+03 
       1.183821370656e-01       4.747866232061e+03 
       1.223778605591e-01       4.611730678389e+03 
       1.264990921707e-01       4.470619335913e+03 
       1.307513701078e-01       4.310275498023e+03 
       1.351402814485e-01       4.121385795851e+03 
       1.396714683894e-01       3.902054669049e+03 
       1.443506337875e-01       3.658643153303e+03 
       1.491835464900e-01       3.404486029965e+03 
       1.541760469368e-01       3.156672512223e+03 
       1.593340535209e-01       2.931985574127e+03 
       1.646635701934e-01       2.742372384842e+03 
       1.701706958081e-01       2.592258154437e+03 
       1.758616357070e-01       2.477249551390e+03 
       1.817427160581e-01       2.385182641327e+03 
       1.878204014651e-01       2.300362165777e+03 
       1.941013163855e-01       2.205760076790e+03 
       2.005922709060e-01       2.090819061276e+03 
       2.073002914514e-01       1.956472114571e+03 
       2.142326570343e-01       1.814191635680e+03 
       2.213969417044e-01       1.679293852307e+03 
       2.288010639201e-01       1.563846624492e+03 
       2.364533436625e-01       1.472682734601e+03 
       2.443625682390e-01       1.401516399975e+03 
       2.525380678946e-01       1.338413686867e+03 
       2.609898025770e-01       1.270903566621e+03 
       2.697284614969e-01       1.193380697063e+03 
       2.787655775073e-01       1.109340051144e+03 
       2.881136588192e-01       1.028768681888e+03 
       2.977863412019e-01       9.604796536490e+02 
       3.077985646248e-01       9.050229684085e+02 
       3.181667793367e-01       8.561400436752e+02 
       3.289091877084e-01       8.061869523814e+02 
       3.400460298905e-01       7.523890993111e+02 
       3.515999235695e-01       6.989244488529e+02 
       3.635962710278e-01       6.510647577845e+02 
       3.760637505499e-01       6.101238094257e+02 
       3.890349143014e-01       5.721326511420e+02 
       4.025469215929e-01       5.337820106378e+02 
       4.166424455447e-01       4.956312215508e+02 
       4.313708034899e-01       4.604699205160e+02 
       4.467893781976e-01       4.287771246284e+02 
       4.629654198623e-01       3.987716694034e+02 
       4.799783500912e-01       3.692429956149e+02 
       4.979227318246e-01       3.412410930236e+02 
       5.169121269689e-01       3.154838423398e+02 
       5.370841403262e-01       2.908349146332e+02 
       5.586070463286e-01       2.671063720918e+02 
       5.816885093582e-01       2.448098633619e+02 
       6.065870143577e-01       2.235680147329e+02 
       6.336266466978e-01       2.032106936147e+02 
       6.632156057925e-01       1.838787061433e+02 
       6.958678637575e-01       1.653539585934e+02 
       7.322247983784e-01       1.476958430912e+02 
       7.730680193171e-01       1.308335142558e+02 
       8.193049551574e-01       1.148312700787e+02 
       8.718988013754e-01       9.976244646590e+01 
       9.317218028590e-01       8.577808933503e+01 
       9.993660906273e-01       7.305495982188e+01 
       1.075037109879e+00       6.173581429103e+01 
       1.158653485387e+00       5.187906938381e+01 
       1.250099156961e+00       4.344017298614e+01 
       1.349432400897e+00       3.628938593657e+01 
       1.456947456991e+00       3.026801787570e+01 
       1.573135110893e+00       2.521450193224e+01 
       1.698621895119e+00       2.098200428582e+01 
       1.834127512423e+00       1.744237198563e+01 
       1.980444933977e+00       1.448564643432e+01 
       2.138435191130e+00       1.201892706818e+01 
       2.309029198543e+00       9.963176568509e+00 
       2.493232376993e+00       8.251779575381e+00 
       2.692130394536e+00       6.828604354903e+00 
       2.906895533764e+00       5.646216875193e+00 
       3.138793596840e+00       4.664876139570e+00 
       3.389191365541e+00       3.851125430973e+00 
       3.659564656886e+00       3.176919754116e+00 
       3.951507021438e+00       2.618875164776e+00 
       4.266739135513e+00       2.157333523497e+00 
       4.607118942658e+00       1.775936481314e+00 
       4.974652604172e+00       1.460986607877e+00 
       5.371506323193e+00       1.201129690955e+00 
       5.800019112071e+00       9.868781002940e-01 
       6.262716578240e+00       8.103476937725e-01 
       6.762325809881e+00       6.650004050308e-01 
       7.301791449077e+00       5.454183543454e-01 
       7.884293047211e+00       4.470913684528e-01 
       8.513263804891e+00       3.662860829815e-01 
       9.192410806865e+00       2.999309889469e-01 
       9.925736871166e+00       2.454690008621e-01 
       1.071756414128e+01       2.007943915976e-01 
       1.157255956041e+01       1.641701750389e-01 
       1.249576237789e+01       1.341620278219e-01 
       1.349261385000e+01       1.095859417552e-01 
       1.456898931011e+01       8.946943202889e-02 
       1.573123279727e+01       7.301326271742e-02 
       1.698619444729e+01       5.955612067786e-02 
       1.834127086665e+01       4.855687838538e-02 
       1.980444872733e+01       3.957065151110e-02 
       2.138435183937e+01       3.223209643540e-02 
       2.309029197863e+01       2.624227109001e-02 
       2.493232376942e+01       2.135493443735e-02 
       2.692130394533e+01       1.736839600039e-02 
       2.906895533764e+01       1.411792201214e-02 
       3.138793596840e+01       1.146877813292e-02 
       3.389191365541e+01       9.310057096581e-03 
       3.659564656886e+01       7.551658589977e-03 
       3.951507021438e+01       6.119774777912e-03 
       4.266739135513e+01       4.953916351274e-03 
       4.607118942658e+01       4.004811656096e-03 
       4.974652604172e+01       3.232281725307e-03 
       5.371506323193e+01       2.603517748353e-03 
       5.800019112071e+01       2.091775257551e-03 
       6.262716578240e+01       1.675343892687e-03 
       6.762325809881e+01       1.336410711196e-03 
