# Matter power spectrum P(k) at redshift z=99
# for k=1.04775e-05 to 66.1767 h/Mpc,
# number of wavenumbers equal to 130
#    1:k (h/Mpc)              2:P (Mpc/h)^3        
       1.047750691046e-05       7.261927680868e-03 
       1.319039970183e-05       9.069258201856e-03 
       1.660572937635e-05       1.132639106726e-02 
       2.090537469327e-05       1.414527123400e-02 
       2.631830744443e-05       1.766569584059e-02 
       3.313278603720e-05       2.206225515944e-02 
       4.171170630578e-05       2.755297766279e-02 
       5.251192703764e-05       3.441013522950e-02 
       6.610859936996e-05       4.297372172781e-02 
       8.322579568497e-05       5.366826852949e-02 
       1.047750691046e-04       6.702379872780e-02 
       1.319039970183e-04       8.370193441293e-02 
       1.660572937635e-04       1.045283355385e-01 
       2.090537469327e-04       1.305329134105e-01 
       2.631830744443e-04       1.629994506607e-01 
       3.313278603720e-04       2.035264004603e-01 
       4.171170630578e-04       2.541004744245e-01 
       5.251192703764e-04       3.171839528559e-01 
       6.610859936996e-04       3.958147256516e-01 
       8.322579568497e-04       4.937136006277e-01 
       1.047750691046e-03       6.153841636043e-01 
       1.319039970183e-03       7.661720592675e-01 
       1.660572937635e-03       9.522588016492e-01 
       2.090537469327e-03       1.180312991698e+00 
       2.631830744443e-03       1.456802684682e+00 
       3.313278603720e-03       1.786503854035e+00 
       4.171170630578e-03       2.169896194693e+00 
       5.251192703764e-03       2.599430630687e+00 
       6.610859936996e-03       3.055668711172e+00 
       8.322579568497e-03       3.505725598530e+00 
       1.047750691046e-02       3.905491192844e+00 
       1.319039970183e-02       4.200915347757e+00 
       1.660572937633e-02       4.325060829507e+00 
       2.090537453514e-02       4.210197362002e+00 
       2.631818545635e-02       3.825150144691e+00 
       3.311571692125e-02       3.229062722210e+00 
       4.113809243311e-02       2.627730544781e+00 
       4.792590854610e-02       2.280789915501e+00 
       5.284436902701e-02       2.110084344456e+00 
       5.689644391095e-02       2.003538061208e+00 
       6.051252627066e-02       1.923058280391e+00 
       6.388413457411e-02       1.852733973952e+00 
       6.711249296401e-02       1.784562797540e+00 
       7.025823437965e-02       1.714277657198e+00 
       7.336115587705e-02       1.639814231840e+00 
       7.644928796912e-02       1.560667772720e+00 
       7.954353299775e-02       1.477458563281e+00 
       8.266024078725e-02       1.391696696194e+00 
       8.581273398637e-02       1.305460852500e+00 
       8.901225918437e-02       1.221127360678e+00 
       9.226860540985e-02       1.141078666561e+00 
       9.559052048996e-02       1.067457978412e+00 
       9.898599946599e-02       1.001887205354e+00 
       1.024624891378e-01       9.453820721120e-01 
       1.060270359164e-01       8.981516328141e-01 
       1.096863943056e-01       8.596131714159e-01 
       1.134471073830e-01       8.284060169529e-01 
       1.173155669539e-01       8.024667674777e-01 
       1.212980586983e-01       7.792291713661e-01 
       1.254007961065e-01       7.559170468334e-01 
       1.296299459934e-01       7.299836745499e-01 
       1.339916477160e-01       6.995936795379e-01 
       1.384920277736e-01       6.640761937209e-01 
       1.431372111762e-01       6.241475876532e-01 
       1.479333307714e-01       5.817650994751e-01 
       1.528865355934e-01       5.396908103606e-01 
       1.580029992204e-01       5.008139611954e-01 
       1.632889290723e-01       4.673991128206e-01 
       1.687505775527e-01       4.405344023114e-01 
       1.743942559171e-01       4.198660161528e-01 
       1.802263517371e-01       4.036590726684e-01 
       1.862533508214e-01       3.893615220645e-01 
       1.924818644494e-01       3.741383779709e-01 
       1.989186627765e-01       3.558061958559e-01 
       2.055707152847e-01       3.340035808015e-01 
       2.124452391818e-01       3.102662126752e-01 
       2.195497567139e-01       2.871224051827e-01 
       2.268921624510e-01       2.668079274666e-01 
       2.344808017550e-01       2.504835456564e-01 
       2.423245618548e-01       2.378334869859e-01 
       2.504329772620e-01       2.271114277925e-01 
       2.588163516754e-01       2.161192709931e-01 
       2.674858990930e-01       2.035472393709e-01 
       2.764539076010e-01       1.895975471030e-01 
       2.857339303080e-01       1.757567547379e-01 
       2.953410092148e-01       1.636990134953e-01 
       3.052919395542e-01       1.539065096226e-01 
       3.156055844677e-01       1.455302986668e-01 
       3.263032530092e-01       1.372501085732e-01 
       3.374091587054e-01       1.283019917342e-01 
       3.489509817175e-01       1.191711651698e-01 
       3.609605657343e-01       1.108073351988e-01 
       3.734747921333e-01       1.036449273323e-01 
       3.865366902904e-01       9.714159770582e-02 
       4.001968667448e-01       9.061566021067e-02 
       4.145153713076e-01       8.403686092576e-02 
       4.295641718077e-01       7.789129317267e-02 
       4.454304922144e-01       7.234159878060e-02 
       4.622214006969e-01       6.709357097087e-02 
       4.800702491654e-01       6.189167107635e-02 
       4.991459272112e-01       5.692634069444e-02 
       5.196665217302e-01       5.231615025549e-02 
       5.419201087032e-01       4.783243016539e-02 
       5.662975451962e-01       4.348697595548e-02 
       5.933463737275e-01       3.933098675555e-02 
       6.238638458458e-01       3.525342480168e-02 
       6.590669257916e-01       3.126289935994e-02 
       7.009246080454e-01       2.728726215658e-02 
       7.528593308799e-01       2.327846246886e-02 
       8.213469537518e-01       1.914821979973e-02 
       9.196980813302e-01       1.481696928765e-02 
       1.075112183810e+00       1.035084540144e-02 
       1.322697471132e+00       6.379380466000e-03 
       1.662328205042e+00       3.705590089614e-03 
       2.092692408506e+00       2.124476555999e-03 
       2.634543445090e+00       1.207895648759e-03 
       3.316693691389e+00       6.816480648893e-04 
       4.175469971226e+00       3.820588479841e-04 
       5.256605252960e+00       2.128130133626e-04 
       6.617673932723e+00       1.178629486563e-04 
       8.331157880872e+00       6.493037660400e-05 
       1.048830636590e+01       3.559173781286e-05 
       1.320399541071e+01       1.941587509065e-05 
       1.662284535976e+01       1.054055512018e-05 
       2.092692243973e+01       5.692844933070e-06 
       2.634543445002e+01       3.056196210500e-06 
       3.316693691389e+01       1.627781495644e-06 
       4.175469971226e+01       8.568095619006e-07 
       5.256605252960e+01       4.422039572975e-07 
       6.617673932723e+01       2.201812682792e-07 
