# Matter power spectrum P(k) at redshift z=99
# for k=1.04775e-05 to 67.6233 h/Mpc,
# number of wavenumbers equal to 246
#    1:k (h/Mpc)              2:P (Mpc/h)^3        
       1.047750691046e-05       7.261927680861e-03 
       1.131335172503e-05       7.820331652431e-03 
       1.221587619537e-05       8.421675995454e-03 
       1.319039970183e-05       9.069258201848e-03 
       1.424266597921e-05       9.766638412133e-03 
       1.537887696968e-05       1.051764070801e-02 
       1.660572937635e-05       1.132639106725e-02 
       1.793045413292e-05       1.219733232715e-02 
       1.936085902198e-05       1.313524225779e-02 
       2.090537469327e-05       1.414527123399e-02 
       2.257310435294e-05       1.523296273823e-02 
       2.437387741694e-05       1.640429446288e-02 
       2.631830744443e-05       1.766569584058e-02 
       2.841785469300e-05       1.902408737005e-02 
       3.068489366414e-05       2.048692972772e-02 
       3.313278603720e-05       2.206225515942e-02 
       3.577595942169e-05       2.375870707438e-02 
       3.862999239199e-05       2.558560730202e-02 
       4.171170630578e-05       2.755297766277e-02 
       4.503926444729e-05       2.967161930474e-02 
       4.863227907969e-05       3.195316454233e-02 
       5.251192703764e-05       3.441013522947e-02 
       5.670107454120e-05       3.705601726472e-02 
       6.122441196689e-05       3.990533417796e-02 
       6.610859936996e-05       4.297372172777e-02 
       7.138242361596e-05       4.627802146614e-02 
       7.707696804727e-05       4.983636199464e-02 
       8.322579568497e-05       5.366826852944e-02 
       8.986514704559e-05       5.779476400720e-02 
       9.703415373875e-05       6.223848250510e-02 
       1.047750691046e-04       6.702379872774e-02 
       1.131335172503e-04       7.217695161063e-02 
       1.221587619537e-04       7.772619081847e-02 
       1.319039970183e-04       8.370193441285e-02 
       1.424266597921e-04       9.013692517142e-02 
       1.537887696968e-04       9.706641252902e-02 
       1.660572937635e-04       1.045283355384e-01 
       1.793045413292e-04       1.125635350266e-01 
       1.936085902198e-04       1.212159616259e-01 
       2.090537469327e-04       1.305329134104e-01 
       2.257310435294e-04       1.405652847711e-01 
       2.437387741694e-04       1.513678304151e-01 
       2.631830744443e-04       1.629994506605e-01 
       2.841785469300e-04       1.755234923092e-01 
       3.068489366414e-04       1.890080672425e-01 
       3.313278603720e-04       2.035264004601e-01 
       3.577595942169e-04       2.191571806013e-01 
       3.862999239199e-04       2.359849440104e-01 
       4.171170630578e-04       2.541004744243e-01 
       4.503926444729e-04       2.736012083189e-01 
       4.863227907969e-04       2.945916794099e-01 
       5.251192703764e-04       3.171839528558e-01 
       5.670107454121e-04       3.414980767635e-01 
       6.122441196689e-04       3.676625417011e-01 
       6.610859936996e-04       3.958147256513e-01 
       7.138242361596e-04       4.261013289361e-01 
       7.707696804727e-04       4.586787797350e-01 
       8.322579568497e-04       4.937136006280e-01 
       8.986514704559e-04       5.313826807049e-01 
       9.703415373875e-04       5.718734978233e-01 
       1.047750691046e-03       6.153841636040e-01 
       1.131335172503e-03       6.621233246495e-01 
       1.221587619537e-03       7.123098227988e-01 
       1.319039970183e-03       7.661720592577e-01 
       1.424266597921e-03       8.239546306466e-01 
       1.537887696968e-03       8.859011182851e-01 
       1.660572937635e-03       9.522588016486e-01 
       1.793045413292e-03       1.023280100902e+00 
       1.936085902198e-03       1.099216305740e+00 
       2.090537469327e-03       1.180312991698e+00 
       2.257310435294e-03       1.266804117185e+00 
       2.437387741694e-03       1.358904854835e+00 
       2.631830744443e-03       1.456802684686e+00 
       2.841785469300e-03       1.560646892157e+00 
       3.068489366414e-03       1.670536064245e+00 
       3.313278603720e-03       1.786503854039e+00 
       3.577595942169e-03       1.908502932770e+00 
       3.862999239199e-03       2.036387732815e+00 
       4.171170630578e-03       2.169896192288e+00 
       4.503926444729e-03       2.308631881359e+00 
       4.863227907969e-03       2.452047293460e+00 
       5.251192703764e-03       2.599430630722e+00 
       5.670107454120e-03       2.749896934568e+00 
       6.122441196689e-03       2.902386516272e+00 
       6.610859936996e-03       3.055668705705e+00 
       7.138242361596e-03       3.208356464661e+00 
       7.707696804727e-03       3.358923896033e+00 
       8.322579568496e-03       3.505725144391e+00 
       8.986514704559e-03       3.647009646058e+00 
       9.703415373875e-03       3.780923307718e+00 
       1.047750691046e-02       3.905491372542e+00 
       1.131335172503e-02       4.018588043346e+00 
       1.221587619537e-02       4.117901590163e+00 
       1.319039970183e-02       4.200915303293e+00 
       1.424266597920e-02       4.264943271160e+00 
       1.537887696964e-02       4.307218559644e+00 
       1.660572937560e-02       4.325066121440e+00 
       1.793045412207e-02       4.316058851039e+00 
       1.936085889642e-02       4.278226486704e+00 
       2.090537351881e-02       4.210201689765e+00 
       2.257309534705e-02       4.111422081696e+00 
       2.437382002240e-02       3.982427367521e+00 
       2.631799943729e-02       3.825166767256e+00 
       2.841644544598e-02       3.643279080248e+00 
       3.067933354524e-02       3.442194327879e+00 
       3.311368469821e-02       3.229239134287e+00 
       3.571840442514e-02       3.013514828594e+00 
       3.847720347390e-02       2.805275410054e+00 
       4.135335537314e-02       2.614411097029e+00 
       4.429361666563e-02       2.448131767924e+00 
       4.724366437916e-02       2.309243271179e+00 
       5.016480834039e-02       2.196110884802e+00 
       5.303989618930e-02       2.104367482879e+00 
       5.586870668205e-02       2.028460063196e+00 
       5.866042679206e-02       1.963155009101e+00 
       6.142798931504e-02       1.903781371404e+00 
       6.418496438662e-02       1.846483726743e+00 
       6.694418832236e-02       1.788198008651e+00 
       6.971731104453e-02       1.726716783544e+00 
       7.251476154108e-02       1.660656453432e+00 
       7.534587669814e-02       1.589468969583e+00 
       7.821907664495e-02       1.513442687983e+00 
       8.114203771084e-02       1.433568654745e+00 
       8.412184533139e-02       1.351487388976e+00 
       8.716512277352e-02       1.269276243679e+00 
       9.027813693913e-02       1.189192272727e+00 
       9.346688429613e-02       1.113499944490e+00 
       9.673716026122e-02       1.044175615098e+00 
       1.000946150608e-01       9.827063608542e-01 
       1.035447986307e-01       9.299371321377e-01 
       1.070931966524e-01       8.859599004886e-01 
       1.107452594180e-01       8.500717090313e-01 
       1.145064248899e-01       8.208052040509e-01 
       1.183821370656e-01       7.960255020397e-01 
       1.223778605591e-01       7.731462581781e-01 
       1.264990921707e-01       7.494525894404e-01 
       1.307513701078e-01       7.225586591640e-01 
       1.351402814485e-01       6.909088089158e-01 
       1.396714683894e-01       6.541805348647e-01 
       1.443506337875e-01       6.134264007276e-01 
       1.491835464900e-01       5.708690044753e-01 
       1.541760469368e-01       5.293631900374e-01 
       1.593340535209e-01       4.917098729898e-01 
       1.646635701934e-01       4.599198883950e-01 
       1.701706958081e-01       4.347279938978e-01 
       1.758616357070e-01       4.154080402569e-01 
       1.817427160581e-01       3.999375169272e-01 
       1.878204014651e-01       3.856830153984e-01 
       1.941013163855e-01       3.698097876874e-01 
       2.005922709060e-01       3.505458193105e-01 
       2.073002914514e-01       3.280432931643e-01 
       2.142326570343e-01       3.042141698126e-01 
       2.213969417044e-01       2.816114432184e-01 
       2.288010639201e-01       2.622575833788e-01 
       2.364533436625e-01       2.469616171142e-01 
       2.443625682390e-01       2.350128056673e-01 
       2.525380678946e-01       2.244175361294e-01 
       2.609898025770e-01       2.130938772834e-01 
       2.697284614969e-01       2.001012584059e-01 
       2.787655775073e-01       1.860197752056e-01 
       2.881136588192e-01       1.725174593796e-01 
       2.977863412019e-01       1.610660692908e-01 
       3.077985646248e-01       1.517608871861e-01 
       3.181667793367e-01       1.435592693752e-01 
       3.289091877084e-01       1.351814556810e-01 
       3.400460298905e-01       1.261643617343e-01 
       3.515999235695e-01       1.172024639142e-01 
       3.635962710278e-01       1.091771332076e-01 
       3.760637505499e-01       1.023095978980e-01 
       3.890349143014e-01       9.593750828103e-02 
       4.025469215929e-01       8.950772355405e-02 
       4.166424455447e-01       8.311171687542e-02 
       4.313708034899e-01       7.721549870219e-02 
       4.467893781976e-01       7.190076371377e-02 
       4.629654198623e-01       6.686906166918e-02 
       4.799783500912e-01       6.191742978099e-02 
       4.979227318246e-01       5.722218251456e-02 
       5.169121269689e-01       5.290321291154e-02 
       5.370841403262e-01       4.876978671228e-02 
       5.586070463286e-01       4.479094575841e-02 
       5.816885093582e-01       4.105187271851e-02 
       6.065870143577e-01       3.748992816228e-02 
       6.336266466978e-01       3.407624641053e-02 
       6.632156057925e-01       3.083460331566e-02 
       6.958678637575e-01       2.772830087982e-02 
       7.322247983784e-01       2.476713844104e-02 
       7.730680193171e-01       2.193961050939e-02 
       8.193049551574e-01       1.925613952123e-02 
       8.718988013754e-01       1.672923074677e-02 
       9.317218028590e-01       1.438418121426e-02 
       9.993660906273e-01       1.225065233758e-02 
       1.075037109879e+00       1.035260396427e-02 
       1.158653485387e+00       8.699716559077e-03 
       1.250099156961e+00       7.284579579190e-03 
       1.349432400897e+00       6.085446085182e-03 
       1.456947456991e+00       5.075715878835e-03 
       1.573135110893e+00       4.228312936608e-03 
       1.698621895119e+00       3.518540558890e-03 
       1.834127512423e+00       2.924972587499e-03 
       1.980444933977e+00       2.429148672427e-03 
       2.138435191130e+00       2.015499448826e-03 
       2.309029198543e+00       1.670757964661e-03 
       2.493232376993e+00       1.383776371933e-03 
       2.692130394536e+00       1.145117618417e-03 
       2.906895533764e+00       9.468398138286e-04 
       3.138793596840e+00       7.822692665474e-04 
       3.389191365541e+00       6.457981843102e-04 
       3.659564656886e+00       5.327419311499e-04 
       3.951507021438e+00       4.391527233553e-04 
       4.266739135513e+00       3.617560962824e-04 
       4.607118942658e+00       2.977924098343e-04 
       4.974652604172e+00       2.449728339555e-04 
       5.371506323193e+00       2.013907453322e-04 
       5.800019112071e+00       1.654576538694e-04 
       6.262716578240e+00       1.358497152443e-04 
       6.762325809881e+00       1.114717509352e-04 
       7.301791449077e+00       9.141280531838e-05 
       7.884293047211e+00       7.491689717342e-05 
       8.513263804891e+00       6.136059350623e-05 
       9.192410806865e+00       5.022611681661e-05 
       9.925736871166e+00       4.108563820992e-05 
       1.071756414128e+01       3.358596735782e-05 
       1.157255956041e+01       2.743630642633e-05 
       1.249576237789e+01       2.239486801638e-05 
       1.349261385000e+01       1.826431384951e-05 
       1.456898931011e+01       1.488103825613e-05 
       1.573123279727e+01       1.211075926252e-05 
       1.698619444729e+01       9.843016674494e-06 
       1.834127086665e+01       7.987022465940e-06 
       1.980444872733e+01       6.468118387202e-06 
       2.138435183937e+01       5.225215930218e-06 
       2.309029197863e+01       4.208217339166e-06 
       2.493232376942e+01       3.375951356688e-06 
       2.692130394533e+01       2.694968097187e-06 
       2.906895533764e+01       2.137721550680e-06 
       3.138793596840e+01       1.681983583815e-06 
       3.389191365541e+01       1.309584103075e-06 
       3.659564656886e+01       1.005845109384e-06 
       3.951507021438e+01       7.589210894386e-07 
       4.266739135513e+01       5.593186925844e-07 
       4.607118942658e+01       3.994802448467e-07 
       4.974652604172e+01       2.733339468224e-07 
       5.371506323193e+01       1.760559567240e-07 
       5.800019112071e+01       1.037221139273e-07 
       6.262716578240e+01       5.297803652312e-08 
       6.762325809881e+01       2.079835342809e-08 
