# Matter power spectrum P(k) at redshift z=0
# for k=1.04775e-05 to 67.6233 h/Mpc,
# number of wavenumbers equal to 246
#    1:k (h/Mpc)              2:P (Mpc/h)^3        
       1.047750691046e-05       5.020964811308e+01 
       1.131335172503e-05       5.407050701928e+01 
       1.221587619537e-05       5.822819068752e+01 
       1.319039970183e-05       6.270562594780e+01 
       1.424266597921e-05       6.752732240880e+01 
       1.537887696968e-05       7.271977206173e+01 
       1.660572937635e-05       7.831147247912e+01 
       1.793045413292e-05       8.433311821988e+01 
       1.936085902198e-05       9.081778249833e+01 
       2.090537469327e-05       9.780108069296e+01 
       2.257310435294e-05       1.053213197893e+02 
       2.437387741694e-05       1.134197377890e+02 
       2.631830744443e-05       1.221408203809e+02 
       2.841785469300e-05       1.315324642474e+02 
       3.068489366414e-05       1.416462094881e+02 
       3.313278603720e-05       1.525374501932e+02 
       3.577595942169e-05       1.642660688414e+02 
       3.862999239199e-05       1.768963506307e+02 
       4.171170630578e-05       1.904975994010e+02 
       4.503926444729e-05       2.051444491973e+02 
       4.863227907969e-05       2.209171465549e+02 
       5.251192703764e-05       2.379022224249e+02 
       5.670107454120e-05       2.561927927876e+02 
       6.122441196689e-05       2.758890444040e+02 
       6.610859936996e-05       2.970989227882e+02 
       7.138242361596e-05       3.199385560802e+02 
       7.707696804727e-05       3.445329783680e+02 
       8.322579568497e-05       3.710167318945e+02 
       8.986514704559e-05       3.995346444203e+02 
       9.703415373875e-05       4.302425407382e+02 
       1.047750691046e-04       4.633080766741e+02 
       1.131335172503e-04       4.989116271564e+02 
       1.221587619537e-04       5.372471950929e+02 
       1.319039970183e-04       5.785234129330e+02 
       1.424266597921e-04       6.229645936044e+02 
       1.537887696968e-04       6.708118490404e+02 
       1.660572937635e-04       7.223242666090e+02 
       1.793045413292e-04       7.777801562978e+02 
       1.936085902198e-04       8.374783614137e+02 
       2.090537469327e-04       9.017396271820e+02 
       2.257310435294e-04       9.709080268037e+02 
       2.437387741694e-04       1.045352449493e+03 
       2.631830744443e-04       1.125468123749e+03 
       2.841785469300e-04       1.211678180494e+03 
       3.068489366414e-04       1.304435250149e+03 
       3.313278603720e-04       1.404223053680e+03 
       3.577595942169e-04       1.511558014615e+03 
       3.862999239199e-04       1.626990837795e+03 
       4.171170630578e-04       1.751108028788e+03 
       4.503926444729e-04       1.884533382869e+03 
       4.863227907969e-04       2.027929378109e+03 
       5.251192703764e-04       2.181998448128e+03 
       5.670107454121e-04       2.347484102748e+03 
       6.122441196689e-04       2.525171871356e+03 
       6.610859936996e-04       2.715889983581e+03 
       7.138242361596e-04       2.920509688370e+03 
       7.707696804727e-04       3.139945100263e+03 
       8.322579568497e-04       3.375152337558e+03 
       8.986514704559e-04       3.627127831115e+03 
       9.703415373875e-04       3.896905453104e+03 
       1.047750691046e-03       4.185552174258e+03 
       1.131335172503e-03       4.494162430323e+03 
       1.221587619537e-03       4.823850706433e+03 
       1.319039970183e-03       5.175742738651e+03 
       1.424266597921e-03       5.551019596800e+03 
       1.537887696968e-03       5.950788340426e+03 
       1.660572937635e-03       6.376123051644e+03 
       1.793045413292e-03       6.828073901230e+03 
       1.936085902198e-03       7.307625380785e+03 
       2.090537469327e-03       7.815671865909e+03 
       2.257310435294e-03       8.352990375354e+03 
       2.437387741694e-03       8.920211063794e+03 
       2.631830744443e-03       9.517783068365e+03 
       2.841785469300e-03       1.014593704341e+04 
       3.068489366414e-03       1.080464502676e+04 
       3.313278603720e-03       1.149357460191e+04 
       3.577595942169e-03       1.221203621530e+04 
       3.862999239199e-03       1.295892539204e+04 
       4.171170630578e-03       1.373266011124e+04 
       4.503926444729e-03       1.453111835244e+04 
       4.863227907969e-03       1.535154971637e+04 
       5.251192703764e-03       1.619063533090e+04 
       5.670107454120e-03       1.704431252599e+04 
       6.122441196689e-03       1.790755985633e+04 
       6.610859936996e-03       1.877460446593e+04 
       7.138242361596e-03       1.963872567397e+04 
       7.707696804727e-03       2.049215694388e+04 
       8.322579568496e-03       2.132611334133e+04 
       8.986514704559e-03       2.213055903707e+04 
       9.703415373875e-03       2.289445712398e+04 
       1.047750691046e-02       2.360548358094e+04 
       1.131335172503e-02       2.425021000403e+04 
       1.221587619537e-02       2.481423258654e+04 
       1.319039970183e-02       2.528219458438e+04 
       1.424266597920e-02       2.563812436004e+04 
       1.537887696964e-02       2.586610786071e+04 
       1.660572937560e-02       2.595038413943e+04 
       1.793045412207e-02       2.587632837649e+04 
       1.936085889642e-02       2.563218871897e+04 
       2.090537351881e-02       2.520930547131e+04 
       2.257309534705e-02       2.460441160102e+04 
       2.437382002240e-02       2.382078657201e+04 
       2.631799943729e-02       2.287039252862e+04 
       2.841644544598e-02       2.177436239303e+04 
       3.067933354524e-02       2.056546424676e+04 
       3.311368469821e-02       1.928721590388e+04 
       3.571840442514e-02       1.799391938562e+04 
       3.847720347390e-02       1.674673267920e+04 
       4.135335537314e-02       1.560456842320e+04 
       4.429361666563e-02       1.461028032584e+04 
       4.724366437916e-02       1.378044732753e+04 
       5.016480834039e-02       1.310498402199e+04 
       5.303989618930e-02       1.255712340665e+04 
       5.586870668205e-02       1.210425512225e+04 
       5.866042679206e-02       1.171466491039e+04 
       6.142798931504e-02       1.136016560588e+04 
       6.418496438662e-02       1.101858857151e+04 
       6.694418832236e-02       1.067067700307e+04 
       6.971731104453e-02       1.030363707272e+04 
       7.251476154108e-02       9.909065179098e+03 
       7.534587669814e-02       9.483620871087e+03 
       7.821907664495e-02       9.029313938037e+03 
       8.114203771084e-02       8.552131939022e+03 
       8.412184533139e-02       8.061932067588e+03 
       8.716512277352e-02       7.570757768087e+03 
       9.027813693913e-02       7.092470655799e+03 
       9.346688429613e-02       6.640542650697e+03 
       9.673716026122e-02       6.226723271797e+03 
       1.000946150608e-01       5.859939425212e+03 
       1.035447986307e-01       5.545246923717e+03 
       1.070931966524e-01       5.283142778694e+03 
       1.107452594180e-01       5.069445074598e+03 
       1.145064248899e-01       4.895266709045e+03 
       1.183821370656e-01       4.747849256893e+03 
       1.223778605591e-01       4.611735786037e+03 
       1.264990921707e-01       4.470621341677e+03 
       1.307513701078e-01       4.310273616348e+03 
       1.351402814485e-01       4.121388922820e+03 
       1.396714683894e-01       3.902056078558e+03 
       1.443506337875e-01       3.658649916099e+03 
       1.491835464900e-01       3.404466526004e+03 
       1.541760469368e-01       3.156634499226e+03 
       1.593340535209e-01       2.931927400102e+03 
       1.646635701934e-01       2.742356033046e+03 
       1.701706958081e-01       2.592227646701e+03 
       1.758616357070e-01       2.477213249892e+03 
       1.817427160581e-01       2.385159320585e+03 
       1.878204014651e-01       2.300344856512e+03 
       1.941013163855e-01       2.205771731990e+03 
       2.005922709060e-01       2.090841463715e+03 
       2.073002914514e-01       1.956456561247e+03 
       2.142326570343e-01       1.814174622578e+03 
       2.213969417044e-01       1.679270859302e+03 
       2.288010639201e-01       1.563840009476e+03 
       2.364533436625e-01       1.472665390040e+03 
       2.443625682390e-01       1.401504704248e+03 
       2.525380678946e-01       1.338415441139e+03 
       2.609898025770e-01       1.270893428364e+03 
       2.697284614969e-01       1.193351892456e+03 
       2.787655775073e-01       1.109326237504e+03 
       2.881136588192e-01       1.028757660598e+03 
       2.977863412019e-01       9.604691606929e+02 
       3.077985646248e-01       9.050131454565e+02 
       3.181667793367e-01       8.561289397413e+02 
       3.289091877084e-01       8.061727528246e+02 
       3.400460298905e-01       7.523739727849e+02 
       3.515999235695e-01       6.989083373292e+02 
       3.635962710278e-01       6.510441987212e+02 
       3.760637505499e-01       6.101123860471e+02 
       3.890349143014e-01       5.721201685640e+02 
       4.025469215929e-01       5.337685200756e+02 
       4.166424455447e-01       4.956170429409e+02 
       4.313708034899e-01       4.604573095719e+02 
       4.467893781976e-01       4.287630823319e+02 
       4.629654198623e-01       3.987610424240e+02 
       4.799783500912e-01       3.692273151824e+02 
       4.979227318246e-01       3.412288986126e+02 
       5.169121269689e-01       3.154703591540e+02 
       5.370841403262e-01       2.908217155546e+02 
       5.586070463286e-01       2.670936275192e+02 
       5.816885093582e-01       2.447976043473e+02 
       6.065870143577e-01       2.235573165272e+02 
       6.336266466978e-01       2.032003326509e+02 
       6.632156057925e-01       1.838684120890e+02 
       6.958678637575e-01       1.653435604542e+02 
       7.322247983784e-01       1.476853583365e+02 
       7.730680193171e-01       1.308238649034e+02 
       8.193049551574e-01       1.148212959760e+02 
       8.718988013754e-01       9.975268776240e+01 
       9.317218028590e-01       8.576769498007e+01 
       9.993660906273e-01       7.304432015949e+01 
       1.075037109879e+00       6.172548444354e+01 
       1.158653485387e+00       5.186876521525e+01 
       1.250099156961e+00       4.342984523820e+01 
       1.349432400897e+00       3.627896018967e+01 
       1.456947456991e+00       3.025752843173e+01 
       1.573135110893e+00       2.520417286832e+01 
       1.698621895119e+00       2.097156578928e+01 
       1.834127512423e+00       1.743200179868e+01 
       1.980444933977e+00       1.447530449846e+01 
       2.138435191130e+00       1.200855961787e+01 
       2.309029198543e+00       9.952971306470e+00 
       2.493232376993e+00       8.241624673785e+00 
       2.692130394536e+00       6.818454002959e+00 
       2.906895533764e+00       5.636143195230e+00 
       3.138793596840e+00       4.654886299405e+00 
       3.389191365541e+00       3.841222767519e+00 
       3.659564656886e+00       3.167172114661e+00 
       3.951507021438e+00       2.609195528961e+00 
       4.266739135513e+00       2.147762348214e+00 
       4.607118942658e+00       1.766464183678e+00 
       4.974652604172e+00       1.451663979612e+00 
       5.371506323193e+00       1.191912177136e+00 
       5.800019112071e+00       9.777872668911e-01 
       6.262716578240e+00       8.013899050906e-01 
       6.762325809881e+00       6.561721455164e-01 
       7.301791449077e+00       5.367232386600e-01 
       7.884293047211e+00       4.385284355516e-01 
       8.513263804891e+00       3.578594958849e-01 
       9.192410806865e+00       2.916328306734e-01 
       9.925736871166e+00       2.373063129780e-01 
       1.071756414128e+01       1.927678738276e-01 
       1.157255956041e+01       1.562763123010e-01 
       1.249576237789e+01       1.264013468114e-01 
       1.349261385000e+01       1.019605140222e-01 
       1.456898931011e+01       8.198202909734e-02 
       1.573123279727e+01       6.566425311575e-02 
       1.698619444729e+01       5.234990771919e-02 
       1.834127086665e+01       4.149979317638e-02 
       1.980444872733e+01       3.267197453794e-02 
       2.138435183937e+01       2.550349808481e-02 
       2.309029197863e+01       1.969869513429e-02 
       2.493232376942e+01       1.501559093809e-02 
       2.692130394533e+01       1.125810866591e-02 
       2.906895533764e+01       8.265748118783e-03 
       3.138793596840e+01       5.908409505947e-03 
       3.389191365541e+01       4.079702675488e-03 
       3.659564656886e+01       2.691659046769e-03 
       3.951507021438e+01       1.670563084781e-03 
       4.266739135513e+01       9.522499093569e-04 
       4.607118942658e+01       4.790891272830e-04 
       4.974652604172e+01       1.971711041580e-04 
       5.371506323193e+01       5.513406684472e-05 
       5.800019112071e+01       4.638999561858e-06 
       6.262716578240e+01       2.792323556001e-06 
       6.762325809881e+01       1.596803260002e-05 
