# Matter power spectrum P(k) at redshift z=0
# for k=1.04775e-05 to 66.1767 h/Mpc,
# number of wavenumbers equal to 130
#    1:k (h/Mpc)              2:P (Mpc/h)^3        
       1.047750691046e-05       5.020964811312e+01 
       1.319039970183e-05       6.270562594778e+01 
       1.660572937635e-05       7.831147247912e+01 
       2.090537469327e-05       9.780108069297e+01 
       2.631830744443e-05       1.221408203809e+02 
       3.313278603720e-05       1.525374501932e+02 
       4.171170630578e-05       1.904975994010e+02 
       5.251192703764e-05       2.379022224249e+02 
       6.610859936996e-05       2.970989227881e+02 
       8.322579568497e-05       3.710167318946e+02 
       1.047750691046e-04       4.633080766742e+02 
       1.319039970183e-04       5.785234129336e+02 
       1.660572937635e-04       7.223242666092e+02 
       2.090537469327e-04       9.017396271824e+02 
       2.631830744443e-04       1.125468123749e+03 
       3.313278603720e-04       1.404223053681e+03 
       4.171170630578e-04       1.751108028791e+03 
       5.251192703764e-04       2.181998448133e+03 
       6.610859936996e-04       2.715889983593e+03 
       8.322579568497e-04       3.375152337134e+03 
       1.047750691046e-03       4.185552174306e+03 
       1.319039970183e-03       5.175742743415e+03 
       1.660572937635e-03       6.376123051779e+03 
       2.090537469327e-03       7.815671861682e+03 
       2.631830744443e-03       9.517783069112e+03 
       3.313278603720e-03       1.149357460346e+04 
       4.171170630578e-03       1.373266013279e+04 
       5.251192703764e-03       1.619063614559e+04 
       6.610859936996e-03       1.877460422561e+04 
       8.322579568497e-03       2.132606779400e+04 
       1.047750691046e-02       2.360548853832e+04 
       1.319039970183e-02       2.528218458339e+04 
       1.660572937633e-02       2.595027940149e+04 
       2.090537453514e-02       2.520937933530e+04 
       2.631818545635e-02       2.287034816586e+04 
       3.311571692125e-02       1.928625237337e+04 
       4.113809243311e-02       1.568428046834e+04 
       4.792590854610e-02       1.361063922534e+04 
       5.284436902701e-02       1.259128949847e+04 
       5.689644391095e-02       1.195556732885e+04 
       6.051252627066e-02       1.147546644812e+04 
       6.388413457411e-02       1.105591254967e+04 
       6.711249296401e-02       1.064898318360e+04 
       7.025823437965e-02       1.022929690261e+04 
       7.336115587705e-02       9.784512399134e+03 
       7.644928796912e-02       9.311653691634e+03 
       7.954353299775e-02       8.814543848422e+03 
       8.266024078725e-02       8.302113917262e+03 
       8.581273398637e-02       7.786950173223e+03 
       8.901225918437e-02       7.283158948703e+03 
       9.226860540985e-02       6.805172198456e+03 
       9.559052048996e-02       6.365642004611e+03 
       9.898599946599e-02       5.974403396709e+03 
       1.024624891378e-01       5.637314001035e+03 
       1.060270359164e-01       5.355757568326e+03 
       1.096863943056e-01       5.126256074780e+03 
       1.134471073830e-01       4.940481219223e+03 
       1.173155669539e-01       4.786160305125e+03 
       1.212980586983e-01       4.647932273521e+03 
       1.254007961065e-01       4.509153794102e+03 
       1.296299459934e-01       4.354537733226e+03 
       1.339916477160e-01       4.173206917615e+03 
       1.384920277736e-01       3.961160157849e+03 
       1.431372111762e-01       3.722683346009e+03 
       1.479333307714e-01       3.469555602719e+03 
       1.528865355934e-01       3.218339312161e+03 
       1.580029992204e-01       2.986298747310e+03 
       1.632889290723e-01       2.786965856479e+03 
       1.687505775527e-01       2.626826520354e+03 
       1.743942559171e-01       2.503759117362e+03 
       1.802263517371e-01       2.407342178195e+03 
       1.862533508214e-01       2.322253737924e+03 
       1.924818644494e-01       2.231553458288e+03 
       1.989186627765e-01       2.122191894992e+03 
       2.055707152847e-01       1.992030272095e+03 
       2.124452391818e-01       1.850322564791e+03 
       2.195497567139e-01       1.712186291886e+03 
       2.268921624510e-01       1.590989374468e+03 
       2.344808017550e-01       1.493671956247e+03 
       2.423245618548e-01       1.418308937702e+03 
       2.504329772620e-01       1.354461500254e+03 
       2.588163516754e-01       1.288937304512e+03 
       2.674858990930e-01       1.213935588923e+03 
       2.764539076010e-01       1.130693435207e+03 
       2.857339303080e-01       1.048095352431e+03 
       2.953410092148e-01       9.761821272324e+02 
       3.052919395542e-01       9.178089099342e+02 
       3.156055844677e-01       8.678995907603e+02 
       3.263032530092e-01       8.185264457812e+02 
       3.374091587054e-01       7.651478527200e+02 
       3.489509817175e-01       7.106697538538e+02 
       3.609605657343e-01       6.607868093418e+02 
       3.734747921333e-01       6.180859398501e+02 
       3.865366902904e-01       5.793125421406e+02 
       4.001968667448e-01       5.403917396052e+02 
       4.145153713076e-01       5.011514098266e+02 
       4.295641718077e-01       4.644983137282e+02 
       4.454304922144e-01       4.314072739216e+02 
       4.622214006969e-01       4.001129681827e+02 
       4.800702491654e-01       3.690894743992e+02 
       4.991459272112e-01       3.394767634281e+02 
       5.196665217302e-01       3.119848989349e+02 
       5.419201087032e-01       2.852477443461e+02 
       5.662975451962e-01       2.593310247623e+02 
       5.933463737275e-01       2.345484308845e+02 
       6.238638458458e-01       2.102301774668e+02 
       6.590669257916e-01       1.864330395795e+02 
       7.009246080454e-01       1.627249093879e+02 
       7.528593308799e-01       1.388188154520e+02 
       8.213469537518e-01       1.141884929533e+02 
       9.196980813302e-01       8.835954878329e+01 
       1.075112183810e+00       6.172627812850e+01 
       1.322697471132e+00       3.804274480311e+01 
       1.662328205042e+00       2.209799871613e+01 
       2.092692408506e+00       1.266915484544e+01 
       2.634543445090e+00       7.203330627474e+00 
       3.316693691389e+00       4.065122021176e+00 
       4.175469971226e+00       2.278614058341e+00 
       5.256605252960e+00       1.269356366955e+00 
       6.617673932723e+00       7.031374583728e-01 
       8.331157880872e+00       3.874767942935e-01 
       1.048830636590e+01       2.125093130445e-01 
       1.320399541071e+01       1.160359093297e-01 
       1.662284535976e+01       6.309902024408e-02 
       2.092692243973e+01       3.417953785904e-02 
       2.634543445002e+01       1.844609801585e-02 
       3.316693691389e+01       9.919128050973e-03 
       4.175469971226e+01       5.314569368165e-03 
       5.256605252960e+01       2.836656724617e-03 
       6.617673932723e+01       1.507676786084e-03 
