# Matter power spectrum P(k) at redshift z=0
# for k=1.04775e-05 to 66.1767 h/Mpc,
# number of wavenumbers equal to 130
#    1:k (h/Mpc)              2:P (Mpc/h)^3        
       1.047750691046e-05       5.020964811308e+01 
       1.319039970183e-05       6.270562594778e+01 
       1.660572937635e-05       7.831147247912e+01 
       2.090537469327e-05       9.780108069295e+01 
       2.631830744443e-05       1.221408203809e+02 
       3.313278603720e-05       1.525374501932e+02 
       4.171170630578e-05       1.904975994010e+02 
       5.251192703764e-05       2.379022224249e+02 
       6.610859936996e-05       2.970989227881e+02 
       8.322579568497e-05       3.710167318946e+02 
       1.047750691046e-04       4.633080766742e+02 
       1.319039970183e-04       5.785234129338e+02 
       1.660572937635e-04       7.223242666092e+02 
       2.090537469327e-04       9.017396271824e+02 
       2.631830744443e-04       1.125468123750e+03 
       3.313278603720e-04       1.404223053681e+03 
       4.171170630578e-04       1.751108028790e+03 
       5.251192703764e-04       2.181998448133e+03 
       6.610859936996e-04       2.715889983592e+03 
       8.322579568497e-04       3.375152337134e+03 
       1.047750691046e-03       4.185552174307e+03 
       1.319039970183e-03       5.175742740706e+03 
       1.660572937635e-03       6.376123051777e+03 
       2.090537469327e-03       7.815671866156e+03 
       2.631830744443e-03       9.517783069112e+03 
       3.313278603720e-03       1.149357460342e+04 
       4.171170630578e-03       1.373266013237e+04 
       5.251192703764e-03       1.619063614560e+04 
       6.610859936996e-03       1.877460423682e+04 
       8.322579568497e-03       2.132606844405e+04 
       1.047750691046e-02       2.360549379754e+04 
       1.319039970183e-02       2.528218807392e+04 
       1.660572937633e-02       2.595027608987e+04 
       2.090537453514e-02       2.520933711811e+04 
       2.631818545635e-02       2.287033844221e+04 
       3.311571692125e-02       1.928624449153e+04 
       4.113809243311e-02       1.568424820198e+04 
       4.792590854610e-02       1.361065071584e+04 
       5.284436902701e-02       1.259128930958e+04 
       5.689644391095e-02       1.195556948668e+04 
       6.051252627066e-02       1.147545177411e+04 
       6.388413457411e-02       1.105592555957e+04 
       6.711249296401e-02       1.064899828452e+04 
       7.025823437965e-02       1.022930628883e+04 
       7.336115587705e-02       9.784557135436e+03 
       7.644928796912e-02       9.311674837284e+03 
       7.954353299775e-02       8.814548948293e+03 
       8.266024078725e-02       8.302140151334e+03 
       8.581273398637e-02       7.786957021689e+03 
       8.901225918437e-02       7.283165403315e+03 
       9.226860540985e-02       6.805156220304e+03 
       9.559052048996e-02       6.365627384517e+03 
       9.898599946599e-02       5.974399658334e+03 
       1.024624891378e-01       5.637326957354e+03 
       1.060270359164e-01       5.355764327658e+03 
       1.096863943056e-01       5.126238211073e+03 
       1.134471073830e-01       4.940469461591e+03 
       1.173155669539e-01       4.786159768203e+03 
       1.212980586983e-01       4.647930212705e+03 
       1.254007961065e-01       4.509144635122e+03 
       1.296299459934e-01       4.354549941602e+03 
       1.339916477160e-01       4.173222400962e+03 
       1.384920277736e-01       3.961165211097e+03 
       1.431372111762e-01       3.722689834577e+03 
       1.479333307714e-01       3.469550936469e+03 
       1.528865355934e-01       3.218344594616e+03 
       1.580029992204e-01       2.986295221116e+03 
       1.632889290723e-01       2.786969546941e+03 
       1.687505775527e-01       2.626825870361e+03 
       1.743942559171e-01       2.503757995345e+03 
       1.802263517371e-01       2.407346781122e+03 
       1.862533508214e-01       2.322254047477e+03 
       1.924818644494e-01       2.231552853460e+03 
       1.989186627765e-01       2.122190027633e+03 
       2.055707152847e-01       1.992019094843e+03 
       2.124452391818e-01       1.850324437299e+03 
       2.195497567139e-01       1.712185150647e+03 
       2.268921624510e-01       1.590983738317e+03 
       2.344808017550e-01       1.493667528273e+03 
       2.423245618548e-01       1.418312157074e+03 
       2.504329772620e-01       1.354466294905e+03 
       2.588163516754e-01       1.288935573631e+03 
       2.674858990930e-01       1.213940999439e+03 
       2.764539076010e-01       1.130693763953e+03 
       2.857339303080e-01       1.048102064581e+03 
       2.953410092148e-01       9.761847494220e+02 
       3.052919395542e-01       9.178095896726e+02 
       3.156055844677e-01       8.678977195615e+02 
       3.263032530092e-01       8.185259730394e+02 
       3.374091587054e-01       7.651471469771e+02 
       3.489509817175e-01       7.106699959767e+02 
       3.609605657343e-01       6.607877599124e+02 
       3.734747921333e-01       6.180867109145e+02 
       3.865366902904e-01       5.793113194301e+02 
       4.001968667448e-01       5.403927771499e+02 
       4.145153713076e-01       5.011511150360e+02 
       4.295641718077e-01       4.645001153718e+02 
       4.454304922144e-01       4.314079102863e+02 
       4.622214006969e-01       4.001155007965e+02 
       4.800702491654e-01       3.690893312982e+02 
       4.991459272112e-01       3.394766046055e+02 
       5.196665217302e-01       3.119850840014e+02 
       5.419201087032e-01       2.852461323060e+02 
       5.662975451962e-01       2.593311623247e+02 
       5.933463737275e-01       2.345481334928e+02 
       6.238638458458e-01       2.102305409507e+02 
       6.590669257916e-01       1.864334449516e+02 
       7.009246080454e-01       1.627249125985e+02 
       7.528593308799e-01       1.388184845721e+02 
       8.213469537518e-01       1.141880085656e+02 
       9.196980813302e-01       8.835926598011e+01 
       1.075112183810e+00       6.172617427340e+01 
       1.322697471132e+00       3.804286596892e+01 
       1.662328205042e+00       2.209796690617e+01 
       2.092692408506e+00       1.266929923056e+01 
       2.634543445090e+00       7.203354983423e+00 
       3.316693691389e+00       4.065157065457e+00 
       4.175469971226e+00       2.278620266989e+00 
       5.256605252960e+00       1.269348203364e+00 
       6.617673932723e+00       7.031383368940e-01 
       8.331157880872e+00       3.874775717471e-01 
       1.048830636590e+01       2.125102824450e-01 
       1.320399541071e+01       1.160363898048e-01 
       1.662284535976e+01       6.309879787089e-02 
       2.092692243973e+01       3.417964822753e-02 
       2.634543445002e+01       1.844612893498e-02 
       3.316693691389e+01       9.919134674088e-03 
       4.175469971226e+01       5.314622985066e-03 
       5.256605252960e+01       2.836680937705e-03 
       6.617673932723e+01       1.507708178618e-03 
