# Matter power spectrum P(k) at redshift z=0
# for k=1.04775e-05 to 66.1767 h/Mpc,
# number of wavenumbers equal to 130
#    1:k (h/Mpc)              2:P (Mpc/h)^3        
       1.047750691046e-05       5.020964811312e+01 
       1.319039970183e-05       6.270562594781e+01 
       1.660572937635e-05       7.831147247912e+01 
       2.090537469327e-05       9.780108069294e+01 
       2.631830744443e-05       1.221408203809e+02 
       3.313278603720e-05       1.525374501932e+02 
       4.171170630578e-05       1.904975994010e+02 
       5.251192703764e-05       2.379022224248e+02 
       6.610859936996e-05       2.970989227881e+02 
       8.322579568497e-05       3.710167318945e+02 
       1.047750691046e-04       4.633080766741e+02 
       1.319039970183e-04       5.785234129335e+02 
       1.660572937635e-04       7.223242666088e+02 
       2.090537469327e-04       9.017396271815e+02 
       2.631830744443e-04       1.125468123748e+03 
       3.313278603720e-04       1.404223053678e+03 
       4.171170630578e-04       1.751108028783e+03 
       5.251192703764e-04       2.181998448119e+03 
       6.610859936996e-04       2.715889983566e+03 
       8.322579568497e-04       3.375152337082e+03 
       1.047750691046e-03       4.185552174210e+03 
       1.319039970183e-03       5.175742741912e+03 
       1.660572937635e-03       6.376123051361e+03 
       2.090537469327e-03       7.815671864505e+03 
       2.631830744443e-03       9.517783067172e+03 
       3.313278603720e-03       1.149357459952e+04 
       4.171170630578e-03       1.373266009401e+04 
       5.251192703764e-03       1.619063399544e+04 
       6.610859936996e-03       1.877460499446e+04 
       8.322579568497e-03       2.132611185502e+04 
       1.047750691046e-02       2.360547602828e+04 
       1.319039970183e-02       2.528215341852e+04 
       1.660572937633e-02       2.595025834915e+04 
       2.090537453514e-02       2.520928847145e+04 
       2.631818545635e-02       2.287024784439e+04 
       3.311571692125e-02       1.928616290535e+04 
       4.113809243311e-02       1.568415826155e+04 
       4.792590854610e-02       1.361053711260e+04 
       5.284436902701e-02       1.259121590708e+04 
       5.689644391095e-02       1.195550153686e+04 
       6.051252627066e-02       1.147546682409e+04 
       6.388413457411e-02       1.105561624937e+04 
       6.711249296401e-02       1.064882455070e+04 
       7.025823437965e-02       1.022926073669e+04 
       7.336115587705e-02       9.784545669674e+03 
       7.644928796912e-02       9.311702044552e+03 
       7.954353299775e-02       8.814482190564e+03 
       8.266024078725e-02       8.301906201298e+03 
       8.581273398637e-02       7.786943923005e+03 
       8.901225918437e-02       7.283185775419e+03 
       9.226860540985e-02       6.805179096610e+03 
       9.559052048996e-02       6.365621170716e+03 
       9.898599946599e-02       5.974369752448e+03 
       1.024624891378e-01       5.637319462545e+03 
       1.060270359164e-01       5.355786386537e+03 
       1.096863943056e-01       5.126232171061e+03 
       1.134471073830e-01       4.940463371033e+03 
       1.173155669539e-01       4.786144654823e+03 
       1.212980586983e-01       4.647914436284e+03 
       1.254007961065e-01       4.509030077548e+03 
       1.296299459934e-01       4.354541442070e+03 
       1.339916477160e-01       4.173124949437e+03 
       1.384920277736e-01       3.961163748264e+03 
       1.431372111762e-01       3.722588122573e+03 
       1.479333307714e-01       3.469546108665e+03 
       1.528865355934e-01       3.218319337614e+03 
       1.580029992204e-01       2.986231410594e+03 
       1.632889290723e-01       2.786936888131e+03 
       1.687505775527e-01       2.626800753934e+03 
       1.743942559171e-01       2.503744253429e+03 
       1.802263517371e-01       2.407291621898e+03 
       1.862533508214e-01       2.322243021411e+03 
       1.924818644494e-01       2.231552613671e+03 
       1.989186627765e-01       2.122197435259e+03 
       2.055707152847e-01       1.992029893736e+03 
       2.124452391818e-01       1.850289891234e+03 
       2.195497567139e-01       1.712143203324e+03 
       2.268921624510e-01       1.590958256148e+03 
       2.344808017550e-01       1.493642683616e+03 
       2.423245618548e-01       1.418287331456e+03 
       2.504329772620e-01       1.354426697995e+03 
       2.588163516754e-01       1.288915651060e+03 
       2.674858990930e-01       1.213917283741e+03 
       2.764539076010e-01       1.130664532441e+03 
       2.857339303080e-01       1.048066113502e+03 
       2.953410092148e-01       9.761548856722e+02 
       3.052919395542e-01       9.177831143723e+02 
       3.156055844677e-01       8.678698221593e+02 
       3.263032530092e-01       8.185037899862e+02 
       3.374091587054e-01       7.651228403095e+02 
       3.489509817175e-01       7.106416544979e+02 
       3.609605657343e-01       6.607583719001e+02 
       3.734747921333e-01       6.180622052505e+02 
       3.865366902904e-01       5.792807902008e+02 
       4.001968667448e-01       5.403617261069e+02 
       4.145153713076e-01       5.011221010920e+02 
       4.295641718077e-01       4.644745012359e+02 
       4.454304922144e-01       4.313796728437e+02 
       4.622214006969e-01       4.000878577013e+02 
       4.800702491654e-01       3.690609872363e+02 
       4.991459272112e-01       3.394491959725e+02 
       5.196665217302e-01       3.119567641175e+02 
       5.419201087032e-01       2.852193406622e+02 
       5.662975451962e-01       2.593035382482e+02 
       5.933463737275e-01       2.345209075332e+02 
       6.238638458458e-01       2.102055827233e+02 
       6.590669257916e-01       1.864078490229e+02 
       7.009246080454e-01       1.626999607676e+02 
       7.528593308799e-01       1.387928739126e+02 
       8.213469537518e-01       1.141625525855e+02 
       9.196980813302e-01       8.833327937598e+01 
       1.075112183810e+00       6.169967594342e+01 
       1.322697471132e+00       3.801573114027e+01 
       1.662328205042e+00       2.207132648488e+01 
       2.092692408506e+00       1.264268567491e+01 
       2.634543445090e+00       7.177326867198e+00 
       3.316693691389e+00       4.039981616507e+00 
       4.175469971226e+00       2.254443398287e+00 
       5.256605252960e+00       1.246355433810e+00 
       6.617673932723e+00       6.814754548684e-01 
       8.331157880872e+00       3.673099125428e-01 
       1.048830636590e+01       1.939808905071e-01 
       1.320399541071e+01       9.929916335611e-02 
       1.662284535976e+01       4.834060584020e-02 
       2.092692243973e+01       2.162087141098e-02 
       2.634543445002e+01       8.322441461418e-03 
       3.316693691389e+01       2.403604900518e-03 
       4.175469971226e+01       3.590730103063e-04 
       5.256605252960e+01       1.046416303054e-06 
       6.617673932723e+01       2.315691183299e-05 
