# Matter power spectrum P(k) at redshift z=99
# for k=1.04775e-05 to 66.1767 h/Mpc,
# number of wavenumbers equal to 130
#    1:k (h/Mpc)              2:P (Mpc/h)^3        
       1.047750691046e-05       7.261927680867e-03 
       1.319039970183e-05       9.069258201855e-03 
       1.660572937635e-05       1.132639106726e-02 
       2.090537469327e-05       1.414527123400e-02 
       2.631830744443e-05       1.766569584059e-02 
       3.313278603720e-05       2.206225515944e-02 
       4.171170630578e-05       2.755297766279e-02 
       5.251192703764e-05       3.441013522950e-02 
       6.610859936996e-05       4.297372172781e-02 
       8.322579568497e-05       5.366826852948e-02 
       1.047750691046e-04       6.702379872779e-02 
       1.319039970183e-04       8.370193441292e-02 
       1.660572937635e-04       1.045283355385e-01 
       2.090537469327e-04       1.305329134105e-01 
       2.631830744443e-04       1.629994506607e-01 
       3.313278603720e-04       2.035264004603e-01 
       4.171170630578e-04       2.541004744244e-01 
       5.251192703764e-04       3.171839528559e-01 
       6.610859936996e-04       3.958147256516e-01 
       8.322579568497e-04       4.937136006288e-01 
       1.047750691046e-03       6.153841636044e-01 
       1.319039970183e-03       7.661720592592e-01 
       1.660572937635e-03       9.522588016470e-01 
       2.090537469327e-03       1.180312991699e+00 
       2.631830744443e-03       1.456802684683e+00 
       3.313278603720e-03       1.786503854035e+00 
       4.171170630578e-03       2.169896196033e+00 
       5.251192703764e-03       2.599430630691e+00 
       6.610859936996e-03       3.055668705943e+00 
       8.322579568497e-03       3.505725278577e+00 
       1.047750691046e-02       3.905491167561e+00 
       1.319039970183e-02       4.200915414817e+00 
       1.660572937633e-02       4.325062681024e+00 
       2.090537453514e-02       4.210203309347e+00 
       2.631818545635e-02       3.825156854033e+00 
       3.311571692125e-02       3.229062084682e+00 
       4.113809243311e-02       2.627727520832e+00 
       4.792590854610e-02       2.280791629176e+00 
       5.284436902701e-02       2.110092965877e+00 
       5.689644391095e-02       2.003538078727e+00 
       6.051252627066e-02       1.923056388401e+00 
       6.388413457411e-02       1.852733655827e+00 
       6.711249296401e-02       1.784565655176e+00 
       7.025823437965e-02       1.714273458602e+00 
       7.336115587705e-02       1.639813328221e+00 
       7.644928796912e-02       1.560658944924e+00 
       7.954353299775e-02       1.477455657746e+00 
       8.266024078725e-02       1.391696593976e+00 
       8.581273398637e-02       1.305460035210e+00 
       8.901225918437e-02       1.221124932404e+00 
       9.226860540985e-02       1.141078149928e+00 
       9.559052048996e-02       1.067451884016e+00 
       9.898599946599e-02       1.001888330200e+00 
       1.024624891378e-01       9.453808880557e-01 
       1.060270359164e-01       8.981508334285e-01 
       1.096863943056e-01       8.596134511057e-01 
       1.134471073830e-01       8.284054698348e-01 
       1.173155669539e-01       8.024676299471e-01 
       1.212980586983e-01       7.792283857391e-01 
       1.254007961065e-01       7.559174253250e-01 
       1.296299459934e-01       7.299833393225e-01 
       1.339916477160e-01       6.995918467234e-01 
       1.384920277736e-01       6.640783699815e-01 
       1.431372111762e-01       6.241462964828e-01 
       1.479333307714e-01       5.817651077633e-01 
       1.528865355934e-01       5.396908900859e-01 
       1.580029992204e-01       5.008148455733e-01 
       1.632889290723e-01       4.673976945511e-01 
       1.687505775527e-01       4.405340622096e-01 
       1.743942559171e-01       4.198664324288e-01 
       1.802263517371e-01       4.036596174104e-01 
       1.862533508214e-01       3.893620927172e-01 
       1.924818644494e-01       3.741383925438e-01 
       1.989186627765e-01       3.558047373466e-01 
       2.055707152847e-01       3.340031651302e-01 
       2.124452391818e-01       3.102654848094e-01 
       2.195497567139e-01       2.871221403897e-01 
       2.268921624510e-01       2.668074036117e-01 
       2.344808017550e-01       2.504829745335e-01 
       2.423245618548e-01       2.378330831340e-01 
       2.504329772620e-01       2.271120442574e-01 
       2.588163516754e-01       2.161192801142e-01 
       2.674858990930e-01       2.035469544441e-01 
       2.764539076010e-01       1.895973487049e-01 
       2.857339303080e-01       1.757568590243e-01 
       2.953410092148e-01       1.636991567613e-01 
       3.052919395542e-01       1.539060961607e-01 
       3.156055844677e-01       1.455307332482e-01 
       3.263032530092e-01       1.372503497637e-01 
       3.374091587054e-01       1.283018040205e-01 
       3.489509817175e-01       1.191711896544e-01 
       3.609605657343e-01       1.108072302116e-01 
       3.734747921333e-01       1.036448124681e-01 
       3.865366902904e-01       9.714123910477e-02 
       4.001968667448e-01       9.061544792129e-02 
       4.145153713076e-01       8.403699991521e-02 
       4.295641718077e-01       7.789109264846e-02 
       4.454304922144e-01       7.234168270320e-02 
       4.622214006969e-01       6.709366653507e-02 
       4.800702491654e-01       6.189164373903e-02 
       4.991459272112e-01       5.692632326572e-02 
       5.196665217302e-01       5.231614666287e-02 
       5.419201087032e-01       4.783264299135e-02 
       5.662975451962e-01       4.348687043153e-02 
       5.933463737275e-01       3.933107561032e-02 
       6.238638458458e-01       3.525341756352e-02 
       6.590669257916e-01       3.126297956548e-02 
       7.009246080454e-01       2.728738600472e-02 
       7.528593308799e-01       2.327844217695e-02 
       8.213469537518e-01       1.914823446530e-02 
       9.196980813302e-01       1.481698316645e-02 
       1.075112183810e+00       1.035083527187e-02 
       1.322697471132e+00       6.379413860633e-03 
       1.662328205042e+00       3.705610606195e-03 
       2.092692408506e+00       2.124472113418e-03 
       2.634543445090e+00       1.207904412385e-03 
       3.316693691389e+00       6.816535023636e-04 
       4.175469971226e+00       3.820651578044e-04 
       5.256605252960e+00       2.128193631266e-04 
       6.617673932723e+00       1.178699688846e-04 
       8.331157880872e+00       6.493788317052e-05 
       1.048830636590e+01       3.559888315365e-05 
       1.320399541071e+01       1.942260392224e-05 
       1.662284535976e+01       1.054717576832e-05 
       2.092692243973e+01       5.699366180579e-06 
       2.634543445002e+01       3.062681451455e-06 
       3.316693691389e+01       1.634304149041e-06 
       4.175469971226e+01       8.635159962877e-07 
       5.256605252960e+01       4.491424183388e-07 
       6.617673932723e+01       2.273217767493e-07 
