# Matter power spectrum P(k) at redshift z=99
# for k=1.04775e-05 to 66.1767 h/Mpc,
# number of wavenumbers equal to 130
#    1:k (h/Mpc)              2:P (Mpc/h)^3        
       1.047750691046e-05       7.261927680939e-03 
       1.319039970183e-05       9.069258201945e-03 
       1.660572937635e-05       1.132639106737e-02 
       2.090537469327e-05       1.414527123414e-02 
       2.631830744443e-05       1.766569584077e-02 
       3.313278603720e-05       2.206225515966e-02 
       4.171170630578e-05       2.755297766306e-02 
       5.251192703764e-05       3.441013522984e-02 
       6.610859936996e-05       4.297372172823e-02 
       8.322579568497e-05       5.366826853001e-02 
       1.047750691046e-04       6.702379872845e-02 
       1.319039970183e-04       8.370193441375e-02 
       1.660572937635e-04       1.045283355395e-01 
       2.090537469327e-04       1.305329134117e-01 
       2.631830744443e-04       1.629994506622e-01 
       3.313278603720e-04       2.035264004622e-01 
       4.171170630578e-04       2.541004744268e-01 
       5.251192703764e-04       3.171839528587e-01 
       6.610859936996e-04       3.958147256548e-01 
       8.322579568497e-04       4.937136006313e-01 
       1.047750691046e-03       6.153841636077e-01 
       1.319039970183e-03       7.661720592804e-01 
       1.660572937635e-03       9.522588016445e-01 
       2.090537469327e-03       1.180312991684e+00 
       2.631830744443e-03       1.456802684644e+00 
       3.313278603720e-03       1.786503853942e+00 
       4.171170630578e-03       2.169896197040e+00 
       5.251192703764e-03       2.599430630276e+00 
       6.610859936996e-03       3.055668711033e+00 
       8.322579568497e-03       3.505725596765e+00 
       1.047750691046e-02       3.905490470925e+00 
       1.319039970183e-02       4.200915326299e+00 
       1.660572937633e-02       4.325058751336e+00 
       2.090537453514e-02       4.210203087564e+00 
       2.631818545635e-02       3.825148990599e+00 
       3.311571692125e-02       3.229065290833e+00 
       4.113809243311e-02       2.627727286666e+00 
       4.792590854610e-02       2.280790460668e+00 
       5.284436902701e-02       2.110084086929e+00 
       5.689644391095e-02       2.003535587756e+00 
       6.051252627066e-02       1.923058752890e+00 
       6.388413457411e-02       1.852732090395e+00 
       6.711249296401e-02       1.784561197289e+00 
       7.025823437965e-02       1.714276103571e+00 
       7.336115587705e-02       1.639816091614e+00 
       7.644928796912e-02       1.560663294957e+00 
       7.954353299775e-02       1.477456807486e+00 
       8.266024078725e-02       1.391699126835e+00 
       8.581273398637e-02       1.305463293811e+00 
       8.901225918437e-02       1.221124780370e+00 
       9.226860540985e-02       1.141080341947e+00 
       9.559052048996e-02       1.067453549933e+00 
       9.898599946599e-02       1.001888906254e+00 
       1.024624891378e-01       9.453819816612e-01 
       1.060270359164e-01       8.981495204238e-01 
       1.096863943056e-01       8.596152744725e-01 
       1.134471073830e-01       8.284062661342e-01 
       1.173155669539e-01       8.024671962008e-01 
       1.212980586983e-01       7.792291447824e-01 
       1.254007961065e-01       7.559198284300e-01 
       1.296299459934e-01       7.299840162725e-01 
       1.339916477160e-01       6.995936782995e-01 
       1.384920277736e-01       6.640794695847e-01 
       1.431372111762e-01       6.241472862152e-01 
       1.479333307714e-01       5.817649863177e-01 
       1.528865355934e-01       5.396894252796e-01 
       1.580029992204e-01       5.008129233306e-01 
       1.632889290723e-01       4.673990387710e-01 
       1.687505775527e-01       4.405340282744e-01 
       1.743942559171e-01       4.198655556652e-01 
       1.802263517371e-01       4.036593578576e-01 
       1.862533508214e-01       3.893615319033e-01 
       1.924818644494e-01       3.741401725603e-01 
       1.989186627765e-01       3.558064988026e-01 
       2.055707152847e-01       3.340024088929e-01 
       2.124452391818e-01       3.102659687169e-01 
       2.195497567139e-01       2.871222624827e-01 
       2.268921624510e-01       2.668080393616e-01 
       2.344808017550e-01       2.504833398855e-01 
       2.423245618548e-01       2.378326771499e-01 
       2.504329772620e-01       2.271115693009e-01 
       2.588163516754e-01       2.161190090273e-01 
       2.674858990930e-01       2.035466141135e-01 
       2.764539076010e-01       1.895967044496e-01 
       2.857339303080e-01       1.757567290256e-01 
       2.953410092148e-01       1.636983494483e-01 
       3.052919395542e-01       1.539055707069e-01 
       3.156055844677e-01       1.455301169241e-01 
       3.263032530092e-01       1.372497517131e-01 
       3.374091587054e-01       1.283010169957e-01 
       3.489509817175e-01       1.191705159159e-01 
       3.609605657343e-01       1.108063788537e-01 
       3.734747921333e-01       1.036442092918e-01 
       3.865366902904e-01       9.714044156865e-02 
       4.001968667448e-01       9.061482336826e-02 
       4.145153713076e-01       8.403637930543e-02 
       4.295641718077e-01       7.789052586842e-02 
       4.454304922144e-01       7.234100233566e-02 
       4.622214006969e-01       6.709289449623e-02 
       4.800702491654e-01       6.189121068577e-02 
       4.991459272112e-01       5.692556834854e-02 
       5.196665217302e-01       5.231533387979e-02 
       5.419201087032e-01       4.783183488360e-02 
       5.662975451962e-01       4.348626067077e-02 
       5.933463737275e-01       3.933025476329e-02 
       6.238638458458e-01       3.525263189960e-02 
       6.590669257916e-01       3.126212464913e-02 
       7.009246080454e-01       2.728659157979e-02 
       7.528593308799e-01       2.327760585312e-02 
       8.213469537518e-01       1.914741662654e-02 
       9.196980813302e-01       1.481616982340e-02 
       1.075112183810e+00       1.035002725436e-02 
       1.322697471132e+00       6.378577737420e-03 
       1.662328205042e+00       3.704775162586e-03 
       2.092692408506e+00       2.123658355974e-03 
       2.634543445090e+00       1.207096367118e-03 
       3.316693691389e+00       6.808673858769e-04 
       4.175469971226e+00       3.813056538995e-04 
       5.256605252960e+00       2.120928618034e-04 
       6.617673932723e+00       1.171812868232e-04 
       8.331157880872e+00       6.428989544915e-05 
       1.048830636590e+01       3.499260671243e-05 
       1.320399541071e+01       1.885996514651e-05 
       1.662284535976e+01       1.002861783412e-05 
       2.092692243973e+01       5.226152058306e-06 
       2.634543445002e+01       2.636542845616e-06 
       3.316693691389e+01       1.258858136620e-06 
       4.175469971226e+01       5.448430150794e-07 
       5.256605252960e+01       1.960391409322e-07 
       6.617673932723e+01       4.832943584272e-08 
