# Matter power spectrum P(k) at redshift z=0
# for k=1.04775e-05 to 66.1767 h/Mpc,
# number of wavenumbers equal to 130
#    1:k (h/Mpc)              2:P (Mpc/h)^3        
       1.047750691046e-05       5.020964811312e+01 
       1.319039970183e-05       6.270562594776e+01 
       1.660572937635e-05       7.831147247911e+01 
       2.090537469327e-05       9.780108069296e+01 
       2.631830744443e-05       1.221408203809e+02 
       3.313278603720e-05       1.525374501932e+02 
       4.171170630578e-05       1.904975994010e+02 
       5.251192703764e-05       2.379022224249e+02 
       6.610859936996e-05       2.970989227882e+02 
       8.322579568497e-05       3.710167318946e+02 
       1.047750691046e-04       4.633080766742e+02 
       1.319039970183e-04       5.785234129340e+02 
       1.660572937635e-04       7.223242666092e+02 
       2.090537469327e-04       9.017396271824e+02 
       2.631830744443e-04       1.125468123750e+03 
       3.313278603720e-04       1.404223053681e+03 
       4.171170630578e-04       1.751108028790e+03 
       5.251192703764e-04       2.181998448133e+03 
       6.610859936996e-04       2.715889983591e+03 
       8.322579568497e-04       3.375152337135e+03 
       1.047750691046e-03       4.185552174309e+03 
       1.319039970183e-03       5.175742740647e+03 
       1.660572937635e-03       6.376123051778e+03 
       2.090537469327e-03       7.815671866274e+03 
       2.631830744443e-03       9.517783069112e+03 
       3.313278603720e-03       1.149357460346e+04 
       4.171170630578e-03       1.373266012024e+04 
       5.251192703764e-03       1.619063614552e+04 
       6.610859936996e-03       1.877460418759e+04 
       8.322579568497e-03       2.132607231979e+04 
       1.047750691046e-02       2.360548488907e+04 
       1.319039970183e-02       2.528218642276e+04 
       1.660572937633e-02       2.595029567828e+04 
       2.090537453514e-02       2.520935014578e+04 
       2.631818545635e-02       2.287033830652e+04 
       3.311571692125e-02       1.928630503511e+04 
       4.113809243311e-02       1.568422987737e+04 
       4.792590854610e-02       1.361059596626e+04 
       5.284436902701e-02       1.259129600261e+04 
       5.689644391095e-02       1.195556184992e+04 
       6.051252627066e-02       1.147545541469e+04 
       6.388413457411e-02       1.105588301927e+04 
       6.711249296401e-02       1.064898901631e+04 
       7.025823437965e-02       1.022926144488e+04 
       7.336115587705e-02       9.784506592754e+03 
       7.644928796912e-02       9.311651327938e+03 
       7.954353299775e-02       8.814536852458e+03 
       8.266024078725e-02       8.302117986626e+03 
       8.581273398637e-02       7.786937044305e+03 
       8.901225918437e-02       7.283186657635e+03 
       9.226860540985e-02       6.805193093585e+03 
       9.559052048996e-02       6.365632531780e+03 
       9.898599946599e-02       5.974387526207e+03 
       1.024624891378e-01       5.637316274221e+03 
       1.060270359164e-01       5.355770588834e+03 
       1.096863943056e-01       5.126216498837e+03 
       1.134471073830e-01       4.940479296975e+03 
       1.173155669539e-01       4.786164678745e+03 
       1.212980586983e-01       4.647944955691e+03 
       1.254007961065e-01       4.509161453675e+03 
       1.296299459934e-01       4.354555113195e+03 
       1.339916477160e-01       4.173222413369e+03 
       1.384920277736e-01       3.961165446405e+03 
       1.431372111762e-01       3.722669665541e+03 
       1.479333307714e-01       3.469552370494e+03 
       1.528865355934e-01       3.218347001748e+03 
       1.580029992204e-01       2.986293649206e+03 
       1.632889290723e-01       2.786967960706e+03 
       1.687505775527e-01       2.626826788610e+03 
       1.743942559171e-01       2.503750115880e+03 
       1.802263517371e-01       2.407350050875e+03 
       1.862533508214e-01       2.322253551522e+03 
       1.924818644494e-01       2.231555168454e+03 
       1.989186627765e-01       2.122186667225e+03 
       2.055707152847e-01       1.992025180720e+03 
       2.124452391818e-01       1.850323511879e+03 
       2.195497567139e-01       1.712181074853e+03 
       2.268921624510e-01       1.590992796568e+03 
       2.344808017550e-01       1.493671162876e+03 
       2.423245618548e-01       1.418309304125e+03 
       2.504329772620e-01       1.354464155478e+03 
       2.588163516754e-01       1.288933252302e+03 
       2.674858990930e-01       1.213937041336e+03 
       2.764539076010e-01       1.130698913673e+03 
       2.857339303080e-01       1.048097471247e+03 
       2.953410092148e-01       9.761838193211e+02 
       3.052919395542e-01       9.178091788594e+02 
       3.156055844677e-01       8.678981420141e+02 
       3.263032530092e-01       8.185259990778e+02 
       3.374091587054e-01       7.651433150003e+02 
       3.489509817175e-01       7.106691075924e+02 
       3.609605657343e-01       6.607866116240e+02 
       3.734747921333e-01       6.180861023065e+02 
       3.865366902904e-01       5.793105848376e+02 
       4.001968667448e-01       5.403901457732e+02 
       4.145153713076e-01       5.011504735208e+02 
       4.295641718077e-01       4.644986094171e+02 
       4.454304922144e-01       4.314091943755e+02 
       4.622214006969e-01       4.001125962804e+02 
       4.800702491654e-01       3.690891716692e+02 
       4.991459272112e-01       3.394753992374e+02 
       5.196665217302e-01       3.119840289173e+02 
       5.419201087032e-01       2.852462876747e+02 
       5.662975451962e-01       2.593302124479e+02 
       5.933463737275e-01       2.345482727868e+02 
       6.238638458458e-01       2.102305805994e+02 
       6.590669257916e-01       1.864332370418e+02 
       7.009246080454e-01       1.627251032569e+02 
       7.528593308799e-01       1.388178907243e+02 
       8.213469537518e-01       1.141879398475e+02 
       9.196980813302e-01       8.835923496232e+01 
       1.075112183810e+00       6.172575461330e+01 
       1.322697471132e+00       3.804266848699e+01 
       1.662328205042e+00       2.209794760731e+01 
       2.092692408506e+00       1.266917567613e+01 
       2.634543445090e+00       7.203289319556e+00 
       3.316693691389e+00       4.065088212135e+00 
       4.175469971226e+00       2.278617423036e+00 
       5.256605252960e+00       1.269338514312e+00 
       6.617673932723e+00       7.031316339965e-01 
       8.331157880872e+00       3.874761680370e-01 
       1.048830636590e+01       2.125101889641e-01 
       1.320399541071e+01       1.160354727258e-01 
       1.662284535976e+01       6.309815347840e-02 
       2.092692243973e+01       3.417895700897e-02 
       2.634543445002e+01       1.844567540168e-02 
       3.316693691389e+01       9.918673394676e-03 
       4.175469971226e+01       5.314095221539e-03 
       5.256605252960e+01       2.836256685927e-03 
       6.617673932723e+01       1.507295119025e-03 
