# Matter power spectrum P(k) at redshift z=99
# for k=1.04775e-05 to 66.1767 h/Mpc,
# number of wavenumbers equal to 130
#    1:k (h/Mpc)              2:P (Mpc/h)^3        
       1.047750691046e-05       7.261927680862e-03 
       1.319039970183e-05       9.069258201849e-03 
       1.660572937635e-05       1.132639106725e-02 
       2.090537469327e-05       1.414527123399e-02 
       2.631830744443e-05       1.766569584058e-02 
       3.313278603720e-05       2.206225515942e-02 
       4.171170630578e-05       2.755297766277e-02 
       5.251192703764e-05       3.441013522947e-02 
       6.610859936996e-05       4.297372172778e-02 
       8.322579568497e-05       5.366826852944e-02 
       1.047750691046e-04       6.702379872775e-02 
       1.319039970183e-04       8.370193441286e-02 
       1.660572937635e-04       1.045283355384e-01 
       2.090537469327e-04       1.305329134104e-01 
       2.631830744443e-04       1.629994506605e-01 
       3.313278603720e-04       2.035264004601e-01 
       4.171170630578e-04       2.541004744243e-01 
       5.251192703764e-04       3.171839528557e-01 
       6.610859936996e-04       3.958147256514e-01 
       8.322579568497e-04       4.937136006266e-01 
       1.047750691046e-03       6.153841636041e-01 
       1.319039970183e-03       7.661720592651e-01 
       1.660572937635e-03       9.522588016474e-01 
       2.090537469327e-03       1.180312991699e+00 
       2.631830744443e-03       1.456802684686e+00 
       3.313278603720e-03       1.786503854040e+00 
       4.171170630578e-03       2.169896192356e+00 
       5.251192703764e-03       2.599430630719e+00 
       6.610859936996e-03       3.055668708103e+00 
       8.322579568497e-03       3.505725598449e+00 
       1.047750691046e-02       3.905490330702e+00 
       1.319039970183e-02       4.200915380321e+00 
       1.660572937633e-02       4.325061633104e+00 
       2.090537453514e-02       4.210199427754e+00 
       2.631818545635e-02       3.825157572092e+00 
       3.311571692125e-02       3.229059869924e+00 
       4.113809243311e-02       2.627735191822e+00 
       4.792590854610e-02       2.280790669272e+00 
       5.284436902701e-02       2.110087461810e+00 
       5.689644391095e-02       2.003537609228e+00 
       6.051252627066e-02       1.923059324730e+00 
       6.388413457411e-02       1.852733785351e+00 
       6.711249296401e-02       1.784562706687e+00 
       7.025823437965e-02       1.714276404367e+00 
       7.336115587705e-02       1.639812406874e+00 
       7.644928796912e-02       1.560662035054e+00 
       7.954353299775e-02       1.477462239771e+00 
       8.266024078725e-02       1.391699866741e+00 
       8.581273398637e-02       1.305462695111e+00 
       8.901225918437e-02       1.221126989506e+00 
       9.226860540985e-02       1.141078782344e+00 
       9.559052048996e-02       1.067450714193e+00 
       9.898599946599e-02       1.001890609333e+00 
       1.024624891378e-01       9.453795371025e-01 
       1.060270359164e-01       8.981490239744e-01 
       1.096863943056e-01       8.596137077308e-01 
       1.134471073830e-01       8.284071993139e-01 
       1.173155669539e-01       8.024661615101e-01 
       1.212980586983e-01       7.792296915919e-01 
       1.254007961065e-01       7.559183318685e-01 
       1.296299459934e-01       7.299837379402e-01 
       1.339916477160e-01       6.995917580224e-01 
       1.384920277736e-01       6.640780926884e-01 
       1.431372111762e-01       6.241457837174e-01 
       1.479333307714e-01       5.817627677117e-01 
       1.528865355934e-01       5.396937454593e-01 
       1.580029992204e-01       5.008145839386e-01 
       1.632889290723e-01       4.673977546553e-01 
       1.687505775527e-01       4.405343338599e-01 
       1.743942559171e-01       4.198658432994e-01 
       1.802263517371e-01       4.036602052502e-01 
       1.862533508214e-01       3.893591925938e-01 
       1.924818644494e-01       3.741349931315e-01 
       1.989186627765e-01       3.558021803748e-01 
       2.055707152847e-01       3.340005249660e-01 
       2.124452391818e-01       3.102672408431e-01 
       2.195497567139e-01       2.871222396355e-01 
       2.268921624510e-01       2.668083542198e-01 
       2.344808017550e-01       2.504833885461e-01 
       2.423245618548e-01       2.378334838337e-01 
       2.504329772620e-01       2.271116255417e-01 
       2.588163516754e-01       2.161186357328e-01 
       2.674858990930e-01       2.035454962754e-01 
       2.764539076010e-01       1.895980462477e-01 
       2.857339303080e-01       1.757572651109e-01 
       2.953410092148e-01       1.636992083511e-01 
       3.052919395542e-01       1.539059413575e-01 
       3.156055844677e-01       1.455311012611e-01 
       3.263032530092e-01       1.372504309959e-01 
       3.374091587054e-01       1.283026427176e-01 
       3.489509817175e-01       1.191712709422e-01 
       3.609605657343e-01       1.108073360957e-01 
       3.734747921333e-01       1.036449967336e-01 
       3.865366902904e-01       9.714148702351e-02 
       4.001968667448e-01       9.061538918358e-02 
       4.145153713076e-01       8.403684353887e-02 
       4.295641718077e-01       7.789111727608e-02 
       4.454304922144e-01       7.234158741398e-02 
       4.622214006969e-01       6.709382441189e-02 
       4.800702491654e-01       6.189185499215e-02 
       4.991459272112e-01       5.692629127447e-02 
       5.196665217302e-01       5.231599187294e-02 
       5.419201087032e-01       4.783251534017e-02 
       5.662975451962e-01       4.348688951899e-02 
       5.933463737275e-01       3.933109589124e-02 
       6.238638458458e-01       3.525338287256e-02 
       6.590669257916e-01       3.126296265330e-02 
       7.009246080454e-01       2.728733433877e-02 
       7.528593308799e-01       2.327844370231e-02 
       8.213469537518e-01       1.914824732662e-02 
       9.196980813302e-01       1.481701587034e-02 
       1.075112183810e+00       1.035092929069e-02 
       1.322697471132e+00       6.379460308124e-03 
       1.662328205042e+00       3.705656798482e-03 
       2.092692408506e+00       2.124543589341e-03 
       2.634543445090e+00       1.207962655200e-03 
       3.316693691389e+00       6.817053805312e-04 
       4.175469971226e+00       3.821181224196e-04 
       5.256605252960e+00       2.128681995224e-04 
       6.617673932723e+00       1.179169855896e-04 
       8.331157880872e+00       6.498222435979e-05 
       1.048830636590e+01       3.564057530418e-05 
       1.320399541071e+01       1.946148542778e-05 
       1.662284535976e+01       1.058355392102e-05 
       2.092692243973e+01       5.733307632968e-06 
       2.634543445002e+01       3.094400250634e-06 
       3.316693691389e+01       1.664111010582e-06 
       4.175469971226e+01       8.916534407212e-07 
       5.256605252960e+01       4.758868490441e-07 
       6.617673932723e+01       2.528391121472e-07 
