# Matter power spectrum P(k) at redshift z=0
# for k=1.04775e-05 to 66.1767 h/Mpc,
# number of wavenumbers equal to 130
#    1:k (h/Mpc)              2:P (Mpc/h)^3        
       1.047750691046e-05       5.020964811312e+01 
       1.319039970183e-05       6.270562594773e+01 
       1.660572937635e-05       7.831147247912e+01 
       2.090537469327e-05       9.780108069294e+01 
       2.631830744443e-05       1.221408203809e+02 
       3.313278603720e-05       1.525374501932e+02 
       4.171170630578e-05       1.904975994010e+02 
       5.251192703764e-05       2.379022224249e+02 
       6.610859936996e-05       2.970989227882e+02 
       8.322579568497e-05       3.710167318946e+02 
       1.047750691046e-04       4.633080766742e+02 
       1.319039970183e-04       5.785234129335e+02 
       1.660572937635e-04       7.223242666092e+02 
       2.090537469327e-04       9.017396271824e+02 
       2.631830744443e-04       1.125468123750e+03 
       3.313278603720e-04       1.404223053681e+03 
       4.171170630578e-04       1.751108028790e+03 
       5.251192703764e-04       2.181998448133e+03 
       6.610859936996e-04       2.715889983591e+03 
       8.322579568497e-04       3.375152337134e+03 
       1.047750691046e-03       4.185552174305e+03 
       1.319039970183e-03       5.175742738978e+03 
       1.660572937635e-03       6.376123051776e+03 
       2.090537469327e-03       7.815671859375e+03 
       2.631830744443e-03       9.517783069107e+03 
       3.313278603720e-03       1.149357460344e+04 
       4.171170630578e-03       1.373266010628e+04 
       5.251192703764e-03       1.619063613950e+04 
       6.610859936996e-03       1.877460419651e+04 
       8.322579568497e-03       2.132606759302e+04 
       1.047750691046e-02       2.360547469701e+04 
       1.319039970183e-02       2.528218666902e+04 
       1.660572937633e-02       2.595028395539e+04 
       2.090537453514e-02       2.520936182216e+04 
       2.631818545635e-02       2.287033878554e+04 
       3.311571692125e-02       1.928622990080e+04 
       4.113809243311e-02       1.568422480151e+04 
       4.792590854610e-02       1.361061438203e+04 
       5.284436902701e-02       1.259129267845e+04 
       5.689644391095e-02       1.195561339936e+04 
       6.051252627066e-02       1.147547857344e+04 
       6.388413457411e-02       1.105590773151e+04 
       6.711249296401e-02       1.064902150077e+04 
       7.025823437965e-02       1.022932076118e+04 
       7.336115587705e-02       9.784572816371e+03 
       7.644928796912e-02       9.311705769944e+03 
       7.954353299775e-02       8.814561434761e+03 
       8.266024078725e-02       8.302151016211e+03 
       8.581273398637e-02       7.786980068242e+03 
       8.901225918437e-02       7.283247743734e+03 
       9.226860540985e-02       6.805201534944e+03 
       9.559052048996e-02       6.365655525571e+03 
       9.898599946599e-02       5.974416297990e+03 
       1.024624891378e-01       5.637391999791e+03 
       1.060270359164e-01       5.355817733062e+03 
       1.096863943056e-01       5.126256607181e+03 
       1.134471073830e-01       4.940502469794e+03 
       1.173155669539e-01       4.786180942977e+03 
       1.212980586983e-01       4.647939962244e+03 
       1.254007961065e-01       4.509171261123e+03 
       1.296299459934e-01       4.354562712820e+03 
       1.339916477160e-01       4.173219953900e+03 
       1.384920277736e-01       3.961173445417e+03 
       1.431372111762e-01       3.722683127637e+03 
       1.479333307714e-01       3.469545071400e+03 
       1.528865355934e-01       3.218339186428e+03 
       1.580029992204e-01       2.986267320051e+03 
       1.632889290723e-01       2.786957785542e+03 
       1.687505775527e-01       2.626813025761e+03 
       1.743942559171e-01       2.503772197827e+03 
       1.802263517371e-01       2.407319809275e+03 
       1.862533508214e-01       2.322233380801e+03 
       1.924818644494e-01       2.231536788688e+03 
       1.989186627765e-01       2.122171740351e+03 
       2.055707152847e-01       1.992013983827e+03 
       2.124452391818e-01       1.850319164266e+03 
       2.195497567139e-01       1.712158609281e+03 
       2.268921624510e-01       1.590968327120e+03 
       2.344808017550e-01       1.493660840649e+03 
       2.423245618548e-01       1.418307273287e+03 
       2.504329772620e-01       1.354448289204e+03 
       2.588163516754e-01       1.288943449839e+03 
       2.674858990930e-01       1.213937227974e+03 
       2.764539076010e-01       1.130679343617e+03 
       2.857339303080e-01       1.048096651578e+03 
       2.953410092148e-01       9.761703957958e+02 
       3.052919395542e-01       9.178047528403e+02 
       3.156055844677e-01       8.678869532278e+02 
       3.263032530092e-01       8.185204841740e+02 
       3.374091587054e-01       7.651415594572e+02 
       3.489509817175e-01       7.106628093467e+02 
       3.609605657343e-01       6.607793869115e+02 
       3.734747921333e-01       6.180838702458e+02 
       3.865366902904e-01       5.793042467393e+02 
       4.001968667448e-01       5.403890663712e+02 
       4.145153713076e-01       5.011425949468e+02 
       4.295641718077e-01       4.644952739666e+02 
       4.454304922144e-01       4.314009576666e+02 
       4.622214006969e-01       4.001098142953e+02 
       4.800702491654e-01       3.690833579400e+02 
       4.991459272112e-01       3.394709891725e+02 
       5.196665217302e-01       3.119804520486e+02 
       5.419201087032e-01       2.852421122663e+02 
       5.662975451962e-01       2.593265592427e+02 
       5.933463737275e-01       2.345442755327e+02 
       6.238638458458e-01       2.102290392912e+02 
       6.590669257916e-01       1.864321028453e+02 
       7.009246080454e-01       1.627238702260e+02 
       7.528593308799e-01       1.388171738256e+02 
       8.213469537518e-01       1.141876284348e+02 
       9.196980813302e-01       8.835863767665e+01 
       1.075112183810e+00       6.172570549613e+01 
       1.322697471132e+00       3.804276334269e+01 
       1.662328205042e+00       2.209779155562e+01 
       2.092692408506e+00       1.266897374048e+01 
       2.634543445090e+00       7.203170852520e+00 
       3.316693691389e+00       4.065031187037e+00 
       4.175469971226e+00       2.278520835872e+00 
       5.256605252960e+00       1.269258299007e+00 
       6.617673932723e+00       7.030538929731e-01 
       8.331157880872e+00       3.873916636479e-01 
       1.048830636590e+01       2.124233580714e-01 
       1.320399541071e+01       1.159420861243e-01 
       1.662284535976e+01       6.299683342946e-02 
       2.092692243973e+01       3.406494713738e-02 
       2.634543445002e+01       1.831487357028e-02 
       3.316693691389e+01       9.766699230941e-03 
       4.175469971226e+01       5.135542381550e-03 
       5.256605252960e+01       2.627062080804e-03 
       6.617673932723e+01       1.267613790978e-03 
