# Matter power spectrum P(k) at redshift z=99
# for k=1.04775e-05 to 67.6233 h/Mpc,
# number of wavenumbers equal to 246
#    1:k (h/Mpc)              2:P (Mpc/h)^3        
       1.047750691046e-05       7.261927680861e-03 
       1.131335172503e-05       7.820331652431e-03 
       1.221587619537e-05       8.421675995453e-03 
       1.319039970183e-05       9.069258201848e-03 
       1.424266597921e-05       9.766638412133e-03 
       1.537887696968e-05       1.051764070801e-02 
       1.660572937635e-05       1.132639106725e-02 
       1.793045413292e-05       1.219733232715e-02 
       1.936085902198e-05       1.313524225779e-02 
       2.090537469327e-05       1.414527123399e-02 
       2.257310435294e-05       1.523296273823e-02 
       2.437387741694e-05       1.640429446288e-02 
       2.631830744443e-05       1.766569584058e-02 
       2.841785469300e-05       1.902408737005e-02 
       3.068489366414e-05       2.048692972772e-02 
       3.313278603720e-05       2.206225515942e-02 
       3.577595942169e-05       2.375870707438e-02 
       3.862999239199e-05       2.558560730202e-02 
       4.171170630578e-05       2.755297766277e-02 
       4.503926444729e-05       2.967161930473e-02 
       4.863227907969e-05       3.195316454233e-02 
       5.251192703764e-05       3.441013522947e-02 
       5.670107454120e-05       3.705601726475e-02 
       6.122441196689e-05       3.990533417796e-02 
       6.610859936996e-05       4.297372172777e-02 
       7.138242361596e-05       4.627802146614e-02 
       7.707696804727e-05       4.983636199464e-02 
       8.322579568497e-05       5.366826852944e-02 
       8.986514704559e-05       5.779476400720e-02 
       9.703415373875e-05       6.223848250510e-02 
       1.047750691046e-04       6.702379872774e-02 
       1.131335172503e-04       7.217695161064e-02 
       1.221587619537e-04       7.772619081846e-02 
       1.319039970183e-04       8.370193441286e-02 
       1.424266597921e-04       9.013692517143e-02 
       1.537887696968e-04       9.706641252902e-02 
       1.660572937635e-04       1.045283355384e-01 
       1.793045413292e-04       1.125635350266e-01 
       1.936085902198e-04       1.212159616259e-01 
       2.090537469327e-04       1.305329134104e-01 
       2.257310435294e-04       1.405652847711e-01 
       2.437387741694e-04       1.513678304151e-01 
       2.631830744443e-04       1.629994506605e-01 
       2.841785469300e-04       1.755234923092e-01 
       3.068489366414e-04       1.890080672425e-01 
       3.313278603720e-04       2.035264004601e-01 
       3.577595942169e-04       2.191571806013e-01 
       3.862999239199e-04       2.359849440103e-01 
       4.171170630578e-04       2.541004744243e-01 
       4.503926444729e-04       2.736012083189e-01 
       4.863227907969e-04       2.945916794099e-01 
       5.251192703764e-04       3.171839528557e-01 
       5.670107454121e-04       3.414980767635e-01 
       6.122441196689e-04       3.676625417012e-01 
       6.610859936996e-04       3.958147256513e-01 
       7.138242361596e-04       4.261013289358e-01 
       7.707696804727e-04       4.586787797352e-01 
       8.322579568497e-04       4.937136006284e-01 
       8.986514704559e-04       5.313826807049e-01 
       9.703415373875e-04       5.718734978233e-01 
       1.047750691046e-03       6.153841636041e-01 
       1.131335172503e-03       6.621233246496e-01 
       1.221587619537e-03       7.123098227992e-01 
       1.319039970183e-03       7.661720592373e-01 
       1.424266597921e-03       8.239546306468e-01 
       1.537887696968e-03       8.859011182851e-01 
       1.660572937635e-03       9.522588016482e-01 
       1.793045413292e-03       1.023280100902e+00 
       1.936085902198e-03       1.099216305740e+00 
       2.090537469327e-03       1.180312991699e+00 
       2.257310435294e-03       1.266804117183e+00 
       2.437387741694e-03       1.358904854834e+00 
       2.631830744443e-03       1.456802684686e+00 
       2.841785469300e-03       1.560646892157e+00 
       3.068489366414e-03       1.670536064244e+00 
       3.313278603720e-03       1.786503854039e+00 
       3.577595942169e-03       1.908502932769e+00 
       3.862999239199e-03       2.036387732815e+00 
       4.171170630578e-03       2.169896193624e+00 
       4.503926444729e-03       2.308631881359e+00 
       4.863227907969e-03       2.452047293459e+00 
       5.251192703764e-03       2.599430630721e+00 
       5.670107454120e-03       2.749896934609e+00 
       6.122441196689e-03       2.902386516274e+00 
       6.610859936996e-03       3.055668707068e+00 
       7.138242361596e-03       3.208356464655e+00 
       7.707696804727e-03       3.358923895666e+00 
       8.322579568496e-03       3.505724955388e+00 
       8.986514704559e-03       3.647009709723e+00 
       9.703415373875e-03       3.780923307802e+00 
       1.047750691046e-02       3.905491322317e+00 
       1.131335172503e-02       4.018588025785e+00 
       1.221587619537e-02       4.117901589893e+00 
       1.319039970183e-02       4.200915345088e+00 
       1.424266597920e-02       4.264942464090e+00 
       1.537887696964e-02       4.307218252508e+00 
       1.660572937560e-02       4.325065534606e+00 
       1.793045412207e-02       4.316057088589e+00 
       1.936085889642e-02       4.278225626148e+00 
       2.090537351881e-02       4.210201564654e+00 
       2.257309534705e-02       4.111420909519e+00 
       2.437382002240e-02       3.982412326681e+00 
       2.631799943729e-02       3.825168056081e+00 
       2.841644544598e-02       3.643283836843e+00 
       3.067933354524e-02       3.442194794220e+00 
       3.311368469821e-02       3.229242126131e+00 
       3.571840442514e-02       3.013508843084e+00 
       3.847720347390e-02       2.805284771197e+00 
       4.135335537314e-02       2.614411385803e+00 
       4.429361666563e-02       2.448136389180e+00 
       4.724366437916e-02       2.309235622881e+00 
       5.016480834039e-02       2.196111666613e+00 
       5.303989618930e-02       2.104367775824e+00 
       5.586870668205e-02       2.028460378531e+00 
       5.866042679206e-02       1.963150629789e+00 
       6.142798931504e-02       1.903781076108e+00 
       6.418496438662e-02       1.846477536229e+00 
       6.694418832236e-02       1.788195545304e+00 
       6.971731104453e-02       1.726711774056e+00 
       7.251476154108e-02       1.660652900353e+00 
       7.534587669814e-02       1.589468243368e+00 
       7.821907664495e-02       1.513442095683e+00 
       8.114203771084e-02       1.433569567110e+00 
       8.412184533139e-02       1.351492348193e+00 
       8.716512277352e-02       1.269274918292e+00 
       9.027813693913e-02       1.189195238436e+00 
       9.346688429613e-02       1.113502983081e+00 
       9.673716026122e-02       1.044175356831e+00 
       1.000946150608e-01       9.827054535882e-01 
       1.035447986307e-01       9.299376245965e-01 
       1.070931966524e-01       8.859603298976e-01 
       1.107452594180e-01       8.500735751316e-01 
       1.145064248899e-01       8.208026921668e-01 
       1.183821370656e-01       7.960244773615e-01 
       1.223778605591e-01       7.731458979424e-01 
       1.264990921707e-01       7.494517408620e-01 
       1.307513701078e-01       7.225587666681e-01 
       1.351402814485e-01       6.909094489451e-01 
       1.396714683894e-01       6.541809908296e-01 
       1.443506337875e-01       6.134269705474e-01 
       1.491835464900e-01       5.708686213756e-01 
       1.541760469368e-01       5.293638127862e-01 
       1.593340535209e-01       4.917106973755e-01 
       1.646635701934e-01       4.599200583698e-01 
       1.701706958081e-01       4.347277381859e-01 
       1.758616357070e-01       4.154082315001e-01 
       1.817427160581e-01       3.999374296922e-01 
       1.878204014651e-01       3.856827174818e-01 
       1.941013163855e-01       3.698091770485e-01 
       2.005922709060e-01       3.505461281239e-01 
       2.073002914514e-01       3.280435985563e-01 
       2.142326570343e-01       3.042142825823e-01 
       2.213969417044e-01       2.816121025980e-01 
       2.288010639201e-01       2.622573702927e-01 
       2.364533436625e-01       2.469619034720e-01 
       2.443625682390e-01       2.350126326916e-01 
       2.525380678946e-01       2.244178962966e-01 
       2.609898025770e-01       2.130931567325e-01 
       2.697284614969e-01       2.001017625767e-01 
       2.787655775073e-01       1.860197677275e-01 
       2.881136588192e-01       1.725173925759e-01 
       2.977863412019e-01       1.610661922689e-01 
       3.077985646248e-01       1.517610204232e-01 
       3.181667793367e-01       1.435596128462e-01 
       3.289091877084e-01       1.351813561755e-01 
       3.400460298905e-01       1.261644938743e-01 
       3.515999235695e-01       1.172020568715e-01 
       3.635962710278e-01       1.091770821349e-01 
       3.760637505499e-01       1.023095425830e-01 
       3.890349143014e-01       9.593754338391e-02 
       4.025469215929e-01       8.950758553051e-02 
       4.166424455447e-01       8.311180331391e-02 
       4.313708034899e-01       7.721551140724e-02 
       4.467893781976e-01       7.190055956051e-02 
       4.629654198623e-01       6.686883378015e-02 
       4.799783500912e-01       6.191727827472e-02 
       4.979227318246e-01       5.722206415774e-02 
       5.169121269689e-01       5.290252401398e-02 
       5.370841403262e-01       4.876947197866e-02 
       5.586070463286e-01       4.479058402263e-02 
       5.816885093582e-01       4.105162828558e-02 
       6.065870143577e-01       3.748957076561e-02 
       6.336266466978e-01       3.407595350288e-02 
       6.632156057925e-01       3.083417788107e-02 
       6.958678637575e-01       2.772802019489e-02 
       7.322247983784e-01       2.476664075847e-02 
       7.730680193171e-01       2.193916746090e-02 
       8.193049551574e-01       1.925562612080e-02 
       8.718988013754e-01       1.672874287514e-02 
       9.317218028590e-01       1.438359798793e-02 
       9.993660906273e-01       1.224997778370e-02 
       1.075037109879e+00       1.035185865769e-02 
       1.158653485387e+00       8.698877301002e-03 
       1.250099156961e+00       7.283663551007e-03 
       1.349432400897e+00       6.084415940080e-03 
       1.456947456991e+00       5.074569093695e-03 
       1.573135110893e+00       4.227037795708e-03 
       1.698621895119e+00       3.517126111381e-03 
       1.834127512423e+00       2.923431428668e-03 
       1.980444933977e+00       2.427451741119e-03 
       2.138435191130e+00       2.013630304615e-03 
       2.309029198543e+00       1.668723722318e-03 
       2.493232376993e+00       1.381542535810e-03 
       2.692130394536e+00       1.142662806010e-03 
       2.906895533764e+00       9.441606079437e-04 
       3.138793596840e+00       7.793450806117e-04 
       3.389191365541e+00       6.426157218012e-04 
       3.659564656886e+00       5.292778755979e-04 
       3.951507021438e+00       4.353890590318e-04 
       4.266739135513e+00       3.576695857615e-04 
       4.607118942658e+00       2.933659964588e-04 
       4.974652604172e+00       2.401912913042e-04 
       5.371506323193e+00       1.962355781315e-04 
       5.800019112071e+00       1.599125525530e-04 
       6.262716578240e+00       1.299042104339e-04 
       6.762325809881e+00       1.051170362605e-04 
       7.301791449077e+00       8.464649147807e-05 
       7.884293047211e+00       6.774526238591e-05 
       8.513263804891e+00       5.379639828857e-05 
       9.192410806865e+00       4.229642748377e-05 
       9.925736871166e+00       3.283005329255e-05 
       1.071756414128e+01       2.506166539374e-05 
       1.157255956041e+01       1.871898863512e-05 
       1.249576237789e+01       1.358316563577e-05 
       1.349261385000e+01       9.479029442562e-06 
       1.456898931011e+01       6.265867693775e-06 
       1.573123279727e+01       3.829114629846e-06 
       1.698619444729e+01       2.072163532745e-06 
       1.834127086665e+01       9.076782834356e-07 
       1.980444872733e+01       2.498812166527e-07 
       2.138435183937e+01       7.466701917249e-09 
       2.309029197863e+01       7.863896800528e-08 
       2.493232376942e+01       3.502434179105e-07 
       2.692130394533e+01       7.021509290249e-07 
       2.906895533764e+01       1.018359043316e-06 
       3.138793596840e+01       1.203874527998e-06 
       3.389191365541e+01       1.204240309810e-06 
       3.659564656886e+01       1.020563010963e-06 
       3.951507021438e+01       7.119906869135e-07 
       4.266739135513e+01       3.782750931098e-07 
       4.607118942658e+01       1.225673595966e-07 
       4.974652604172e+01       6.836035287645e-09 
       5.371506323193e+01       2.244829666512e-08 
       5.800019112071e+01       9.789490924230e-08 
       6.262716578240e+01       1.464765949775e-07 
       6.762325809881e+01       1.254857929806e-07 
