# Matter power spectrum P(k) at redshift z=0
# for k=1.04775e-05 to 66.1767 h/Mpc,
# number of wavenumbers equal to 130
#    1:k (h/Mpc)              2:P (Mpc/h)^3        
       1.047750691046e-05       5.020964811314e+01 
       1.319039970183e-05       6.270562594774e+01 
       1.660572937635e-05       7.831147247912e+01 
       2.090537469327e-05       9.780108069296e+01 
       2.631830744443e-05       1.221408203809e+02 
       3.313278603720e-05       1.525374501932e+02 
       4.171170630578e-05       1.904975994010e+02 
       5.251192703764e-05       2.379022224249e+02 
       6.610859936996e-05       2.970989227881e+02 
       8.322579568497e-05       3.710167318945e+02 
       1.047750691046e-04       4.633080766742e+02 
       1.319039970183e-04       5.785234129340e+02 
       1.660572937635e-04       7.223242666092e+02 
       2.090537469327e-04       9.017396271824e+02 
       2.631830744443e-04       1.125468123750e+03 
       3.313278603720e-04       1.404223053681e+03 
       4.171170630578e-04       1.751108028790e+03 
       5.251192703764e-04       2.181998448133e+03 
       6.610859936996e-04       2.715889983592e+03 
       8.322579568497e-04       3.375152337134e+03 
       1.047750691046e-03       4.185552174294e+03 
       1.319039970183e-03       5.175742738830e+03 
       1.660572937635e-03       6.376123051784e+03 
       2.090537469327e-03       7.815671869361e+03 
       2.631830744443e-03       9.517783069096e+03 
       3.313278603720e-03       1.149357460340e+04 
       4.171170630578e-03       1.373266010566e+04 
       5.251192703764e-03       1.619063612826e+04 
       6.610859936996e-03       1.877460416807e+04 
       8.322579568497e-03       2.132607245459e+04 
       1.047750691046e-02       2.360548672178e+04 
       1.319039970183e-02       2.528218661848e+04 
       1.660572937633e-02       2.595027872432e+04 
       2.090537453514e-02       2.520940539243e+04 
       2.631818545635e-02       2.287036711697e+04 
       3.311571692125e-02       1.928623887840e+04 
       4.113809243311e-02       1.568425198046e+04 
       4.792590854610e-02       1.361061290017e+04 
       5.284436902701e-02       1.259126517470e+04 
       5.689644391095e-02       1.195560873485e+04 
       6.051252627066e-02       1.147555738146e+04 
       6.388413457411e-02       1.105594430021e+04 
       6.711249296401e-02       1.064904519954e+04 
       7.025823437965e-02       1.022934709702e+04 
       7.336115587705e-02       9.784581662530e+03 
       7.644928796912e-02       9.311698358313e+03 
       7.954353299775e-02       8.814584899292e+03 
       8.266024078725e-02       8.302196407635e+03 
       8.581273398637e-02       7.786979704993e+03 
       8.901225918437e-02       7.283239352155e+03 
       9.226860540985e-02       6.805207574419e+03 
       9.559052048996e-02       6.365670690238e+03 
       9.898599946599e-02       5.974409462267e+03 
       1.024624891378e-01       5.637368694778e+03 
       1.060270359164e-01       5.355800493271e+03 
       1.096863943056e-01       5.126259089558e+03 
       1.134471073830e-01       4.940515293252e+03 
       1.173155669539e-01       4.786178217498e+03 
       1.212980586983e-01       4.647953771195e+03 
       1.254007961065e-01       4.509158091197e+03 
       1.296299459934e-01       4.354533778510e+03 
       1.339916477160e-01       4.173180071268e+03 
       1.384920277736e-01       3.961147055980e+03 
       1.431372111762e-01       3.722700962716e+03 
       1.479333307714e-01       3.469562963052e+03 
       1.528865355934e-01       3.218321387546e+03 
       1.580029992204e-01       2.986269385915e+03 
       1.632889290723e-01       2.786949618367e+03 
       1.687505775527e-01       2.626805778485e+03 
       1.743942559171e-01       2.503760954413e+03 
       1.802263517371e-01       2.407310682433e+03 
       1.862533508214e-01       2.322262722790e+03 
       1.924818644494e-01       2.231562587261e+03 
       1.989186627765e-01       2.122155722862e+03 
       2.055707152847e-01       1.992045154784e+03 
       2.124452391818e-01       1.850315027247e+03 
       2.195497567139e-01       1.712164883531e+03 
       2.268921624510e-01       1.590973847393e+03 
       2.344808017550e-01       1.493656422565e+03 
       2.423245618548e-01       1.418303550671e+03 
       2.504329772620e-01       1.354450085899e+03 
       2.588163516754e-01       1.288930358555e+03 
       2.674858990930e-01       1.213907925307e+03 
       2.764539076010e-01       1.130684121422e+03 
       2.857339303080e-01       1.048081846899e+03 
       2.953410092148e-01       9.761731365674e+02 
       3.052919395542e-01       9.178028590326e+02 
       3.156055844677e-01       8.678850631056e+02 
       3.263032530092e-01       8.185243892417e+02 
       3.374091587054e-01       7.651401453446e+02 
       3.489509817175e-01       7.106596212447e+02 
       3.609605657343e-01       6.607763479556e+02 
       3.734747921333e-01       6.180801469331e+02 
       3.865366902904e-01       5.793009827782e+02 
       4.001968667448e-01       5.403829458301e+02 
       4.145153713076e-01       5.011432453754e+02 
       4.295641718077e-01       4.644944067481e+02 
       4.454304922144e-01       4.314001570488e+02 
       4.622214006969e-01       4.001089703415e+02 
       4.800702491654e-01       3.690828893453e+02 
       4.991459272112e-01       3.394703967499e+02 
       5.196665217302e-01       3.119789411050e+02 
       5.419201087032e-01       2.852428336520e+02 
       5.662975451962e-01       2.593272733687e+02 
       5.933463737275e-01       2.345438341374e+02 
       6.238638458458e-01       2.102279940938e+02 
       6.590669257916e-01       1.864315282110e+02 
       7.009246080454e-01       1.627237974108e+02 
       7.528593308799e-01       1.388172782943e+02 
       8.213469537518e-01       1.141876593845e+02 
       9.196980813302e-01       8.835823722475e+01 
       1.075112183810e+00       6.172554676244e+01 
       1.322697471132e+00       3.804256942184e+01 
       1.662328205042e+00       2.209769571446e+01 
       2.092692408506e+00       1.266885609219e+01 
       2.634543445090e+00       7.203030634067e+00 
       3.316693691389e+00       4.064923532330e+00 
       4.175469971226e+00       2.278388534019e+00 
       5.256605252960e+00       1.269141690525e+00 
       6.617673932723e+00       7.029504690809e-01 
       8.331157880872e+00       3.873044433488e-01 
       1.048830636590e+01       2.123490093212e-01 
       1.320399541071e+01       1.158874311159e-01 
       1.662284535976e+01       6.296143585529e-02 
       2.092692243973e+01       3.405330039412e-02 
       2.634543445002e+01       1.833046503902e-02 
       3.316693691389e+01       9.813689950165e-03 
       4.175469971226e+01       5.218578758924e-03 
       5.256605252960e+01       2.749636350009e-03 
       6.617673932723e+01       1.429057511577e-03 
