# Matter power spectrum P(k) at redshift z=99
# for k=1.04775e-05 to 66.1767 h/Mpc,
# number of wavenumbers equal to 130
#    1:k (h/Mpc)              2:P (Mpc/h)^3        
       1.047750691046e-05       7.261927680862e-03 
       1.319039970183e-05       9.069258201849e-03 
       1.660572937635e-05       1.132639106725e-02 
       2.090537469327e-05       1.414527123399e-02 
       2.631830744443e-05       1.766569584058e-02 
       3.313278603720e-05       2.206225515942e-02 
       4.171170630578e-05       2.755297766277e-02 
       5.251192703764e-05       3.441013522947e-02 
       6.610859936996e-05       4.297372172778e-02 
       8.322579568497e-05       5.366826852944e-02 
       1.047750691046e-04       6.702379872775e-02 
       1.319039970183e-04       8.370193441286e-02 
       1.660572937635e-04       1.045283355384e-01 
       2.090537469327e-04       1.305329134104e-01 
       2.631830744443e-04       1.629994506605e-01 
       3.313278603720e-04       2.035264004601e-01 
       4.171170630578e-04       2.541004744243e-01 
       5.251192703764e-04       3.171839528557e-01 
       6.610859936996e-04       3.958147256513e-01 
       8.322579568497e-04       4.937136006276e-01 
       1.047750691046e-03       6.153841636042e-01 
       1.319039970183e-03       7.661720592899e-01 
       1.660572937635e-03       9.522588016486e-01 
       2.090537469327e-03       1.180312991699e+00 
       2.631830744443e-03       1.456802684686e+00 
       3.313278603720e-03       1.786503854040e+00 
       4.171170630578e-03       2.169896161714e+00 
       5.251192703764e-03       2.599430630720e+00 
       6.610859936996e-03       3.055668716711e+00 
       8.322579568497e-03       3.505725598401e+00 
       1.047750691046e-02       3.905491346829e+00 
       1.319039970183e-02       4.200915357641e+00 
       1.660572937633e-02       4.325062799961e+00 
       2.090537453514e-02       4.210204128513e+00 
       2.631818545635e-02       3.825148177943e+00 
       3.311571692125e-02       3.229066977792e+00 
       4.113809243311e-02       2.627731117955e+00 
       4.792590854610e-02       2.280789243478e+00 
       5.284436902701e-02       2.110088958527e+00 
       5.689644391095e-02       2.003540600283e+00 
       6.051252627066e-02       1.923058216874e+00 
       6.388413457411e-02       1.852734999770e+00 
       6.711249296401e-02       1.784562728878e+00 
       7.025823437965e-02       1.714273579763e+00 
       7.336115587705e-02       1.639810670597e+00 
       7.644928796912e-02       1.560663804203e+00 
       7.954353299775e-02       1.477458100540e+00 
       8.266024078725e-02       1.391698525732e+00 
       8.581273398637e-02       1.305462364233e+00 
       8.901225918437e-02       1.221126338232e+00 
       9.226860540985e-02       1.141078755261e+00 
       9.559052048996e-02       1.067453517915e+00 
       9.898599946599e-02       1.001888391862e+00 
       1.024624891378e-01       9.453809483773e-01 
       1.060270359164e-01       8.981503448086e-01 
       1.096863943056e-01       8.596110789857e-01 
       1.134471073830e-01       8.284045147466e-01 
       1.173155669539e-01       8.024686075239e-01 
       1.212980586983e-01       7.792283258587e-01 
       1.254007961065e-01       7.559192639650e-01 
       1.296299459934e-01       7.299842890750e-01 
       1.339916477160e-01       6.995928002428e-01 
       1.384920277736e-01       6.640778618669e-01 
       1.431372111762e-01       6.241463418672e-01 
       1.479333307714e-01       5.817642346214e-01 
       1.528865355934e-01       5.396930913185e-01 
       1.580029992204e-01       5.008145385435e-01 
       1.632889290723e-01       4.673984278649e-01 
       1.687505775527e-01       4.405342204372e-01 
       1.743942559171e-01       4.198658590781e-01 
       1.802263517371e-01       4.036604547315e-01 
       1.862533508214e-01       3.893599138728e-01 
       1.924818644494e-01       3.741340358438e-01 
       1.989186627765e-01       3.558024290383e-01 
       2.055707152847e-01       3.339998078496e-01 
       2.124452391818e-01       3.102658197040e-01 
       2.195497567139e-01       2.871223319053e-01 
       2.268921624510e-01       2.668080974732e-01 
       2.344808017550e-01       2.504830141838e-01 
       2.423245618548e-01       2.378334638435e-01 
       2.504329772620e-01       2.271117995647e-01 
       2.588163516754e-01       2.161165391748e-01 
       2.674858990930e-01       2.035454951580e-01 
       2.764539076010e-01       1.895983624972e-01 
       2.857339303080e-01       1.757565365605e-01 
       2.953410092148e-01       1.636990000097e-01 
       3.052919395542e-01       1.539064640631e-01 
       3.156055844677e-01       1.455308735159e-01 
       3.263032530092e-01       1.372507993472e-01 
       3.374091587054e-01       1.283023061522e-01 
       3.489509817175e-01       1.191713320581e-01 
       3.609605657343e-01       1.108072911995e-01 
       3.734747921333e-01       1.036449918776e-01 
       3.865366902904e-01       9.714138905429e-02 
       4.001968667448e-01       9.061557754686e-02 
       4.145153713076e-01       8.403698192212e-02 
       4.295641718077e-01       7.789127371727e-02 
       4.454304922144e-01       7.234163046912e-02 
       4.622214006969e-01       6.709379566760e-02 
       4.800702491654e-01       6.189175312350e-02 
       4.991459272112e-01       5.692636611052e-02 
       5.196665217302e-01       5.231610217049e-02 
       5.419201087032e-01       4.783257406910e-02 
       5.662975451962e-01       4.348679016000e-02 
       5.933463737275e-01       3.933108145161e-02 
       6.238638458458e-01       3.525340441381e-02 
       6.590669257916e-01       3.126289440973e-02 
       7.009246080454e-01       2.728727027630e-02 
       7.528593308799e-01       2.327839140058e-02 
       8.213469537518e-01       1.914824413107e-02 
       9.196980813302e-01       1.481704779254e-02 
       1.075112183810e+00       1.035090335617e-02 
       1.322697471132e+00       6.379465571188e-03 
       1.662328205042e+00       3.705659381946e-03 
       2.092692408506e+00       2.124536646767e-03 
       2.634543445090e+00       1.207962169739e-03 
       3.316693691389e+00       6.817077521076e-04 
       4.175469971226e+00       3.821177034284e-04 
       5.256605252960e+00       2.128713181282e-04 
       6.617673932723e+00       1.179192372682e-04 
       8.331157880872e+00       6.498343242175e-05 
       1.048830636590e+01       3.564167247496e-05 
       1.320399541071e+01       1.946250607662e-05 
       1.662284535976e+01       1.058440403707e-05 
       2.092692243973e+01       5.734085066488e-06 
       2.634543445002e+01       3.094958084930e-06 
       3.316693691389e+01       1.664416230827e-06 
       4.175469971226e+01       8.916562896185e-07 
       5.256605252960e+01       4.755576098188e-07 
       6.617673932723e+01       2.521166049823e-07 
