# Matter power spectrum P(k) at redshift z=0
# for k=1.04775e-05 to 66.1767 h/Mpc,
# number of wavenumbers equal to 130
#    1:k (h/Mpc)              2:P (Mpc/h)^3        
       1.047750691046e-05       5.020964811307e+01 
       1.319039970183e-05       6.270562594775e+01 
       1.660572937635e-05       7.831147247912e+01 
       2.090537469327e-05       9.780108069295e+01 
       2.631830744443e-05       1.221408203809e+02 
       3.313278603720e-05       1.525374501932e+02 
       4.171170630578e-05       1.904975994010e+02 
       5.251192703764e-05       2.379022224249e+02 
       6.610859936996e-05       2.970989227880e+02 
       8.322579568497e-05       3.710167318946e+02 
       1.047750691046e-04       4.633080766742e+02 
       1.319039970183e-04       5.785234129335e+02 
       1.660572937635e-04       7.223242666092e+02 
       2.090537469327e-04       9.017396271824e+02 
       2.631830744443e-04       1.125468123750e+03 
       3.313278603720e-04       1.404223053681e+03 
       4.171170630578e-04       1.751108028790e+03 
       5.251192703764e-04       2.181998448133e+03 
       6.610859936996e-04       2.715889983592e+03 
       8.322579568497e-04       3.375152337135e+03 
       1.047750691046e-03       4.185552174306e+03 
       1.319039970183e-03       5.175742740799e+03 
       1.660572937635e-03       6.376123051778e+03 
       2.090537469327e-03       7.815671865615e+03 
       2.631830744443e-03       9.517783069112e+03 
       3.313278603720e-03       1.149357460342e+04 
       4.171170630578e-03       1.373266011456e+04 
       5.251192703764e-03       1.619063614552e+04 
       6.610859936996e-03       1.877460415926e+04 
       8.322579568497e-03       2.132607231859e+04 
       1.047750691046e-02       2.360547644769e+04 
       1.319039970183e-02       2.528218613330e+04 
       1.660572937633e-02       2.595027694213e+04 
       2.090537453514e-02       2.520937182522e+04 
       2.631818545635e-02       2.287037688800e+04 
       3.311571692125e-02       1.928624689886e+04 
       4.113809243311e-02       1.568426568824e+04 
       4.792590854610e-02       1.361064056993e+04 
       5.284436902701e-02       1.259129629160e+04 
       5.689644391095e-02       1.195554418741e+04 
       6.051252627066e-02       1.147547465826e+04 
       6.388413457411e-02       1.105589239059e+04 
       6.711249296401e-02       1.064900761377e+04 
       7.025823437965e-02       1.022927531557e+04 
       7.336115587705e-02       9.784535100811e+03 
       7.644928796912e-02       9.311666501924e+03 
       7.954353299775e-02       8.814540461078e+03 
       8.266024078725e-02       8.302122122085e+03 
       8.581273398637e-02       7.786954573814e+03 
       8.901225918437e-02       7.283180318617e+03 
       9.226860540985e-02       6.805191858550e+03 
       9.559052048996e-02       6.365641765153e+03 
       9.898599946599e-02       5.974408607811e+03 
       1.024624891378e-01       5.637342761691e+03 
       1.060270359164e-01       5.355778253422e+03 
       1.096863943056e-01       5.126233976224e+03 
       1.134471073830e-01       4.940482820888e+03 
       1.173155669539e-01       4.786160192651e+03 
       1.212980586983e-01       4.647954265234e+03 
       1.254007961065e-01       4.509151822697e+03 
       1.296299459934e-01       4.354554563436e+03 
       1.339916477160e-01       4.173231081200e+03 
       1.384920277736e-01       3.961163451106e+03 
       1.431372111762e-01       3.722672415005e+03 
       1.479333307714e-01       3.469554298254e+03 
       1.528865355934e-01       3.218345088694e+03 
       1.580029992204e-01       2.986298634013e+03 
       1.632889290723e-01       2.786969625096e+03 
       1.687505775527e-01       2.626828546115e+03 
       1.743942559171e-01       2.503748210891e+03 
       1.802263517371e-01       2.407350210974e+03 
       1.862533508214e-01       2.322250134044e+03 
       1.924818644494e-01       2.231554989023e+03 
       1.989186627765e-01       2.122191703141e+03 
       2.055707152847e-01       1.992025787946e+03 
       2.124452391818e-01       1.850321622905e+03 
       2.195497567139e-01       1.712185338539e+03 
       2.268921624510e-01       1.590988013374e+03 
       2.344808017550e-01       1.493669200082e+03 
       2.423245618548e-01       1.418308868698e+03 
       2.504329772620e-01       1.354466678382e+03 
       2.588163516754e-01       1.288935890220e+03 
       2.674858990930e-01       1.213932905306e+03 
       2.764539076010e-01       1.130694142652e+03 
       2.857339303080e-01       1.048101806234e+03 
       2.953410092148e-01       9.761844066389e+02 
       3.052919395542e-01       9.178086743025e+02 
       3.156055844677e-01       8.678971423809e+02 
       3.263032530092e-01       8.185248398239e+02 
       3.374091587054e-01       7.651457061662e+02 
       3.489509817175e-01       7.106715707476e+02 
       3.609605657343e-01       6.607868041753e+02 
       3.734747921333e-01       6.180850890495e+02 
       3.865366902904e-01       5.793087646738e+02 
       4.001968667448e-01       5.403926304450e+02 
       4.145153713076e-01       5.011509869981e+02 
       4.295641718077e-01       4.644991508443e+02 
       4.454304922144e-01       4.314075839151e+02 
       4.622214006969e-01       4.001131949316e+02 
       4.800702491654e-01       3.690888306449e+02 
       4.991459272112e-01       3.394768367368e+02 
       5.196665217302e-01       3.119850882334e+02 
       5.419201087032e-01       2.852460864049e+02 
       5.662975451962e-01       2.593313364111e+02 
       5.933463737275e-01       2.345477160549e+02 
       6.238638458458e-01       2.102302594931e+02 
       6.590669257916e-01       1.864328979875e+02 
       7.009246080454e-01       1.627246218007e+02 
       7.528593308799e-01       1.388181737314e+02 
       8.213469537518e-01       1.141877797755e+02 
       9.196980813302e-01       8.835903098881e+01 
       1.075112183810e+00       6.172574775587e+01 
       1.322697471132e+00       3.804256870640e+01 
       1.662328205042e+00       2.209792968684e+01 
       2.092692408506e+00       1.266921436863e+01 
       2.634543445090e+00       7.203340123146e+00 
       3.316693691389e+00       4.065142874859e+00 
       4.175469971226e+00       2.278610295184e+00 
       5.256605252960e+00       1.269345228042e+00 
       6.617673932723e+00       7.031294744073e-01 
       8.331157880872e+00       3.874761372195e-01 
       1.048830636590e+01       2.125102330967e-01 
       1.320399541071e+01       1.160347467449e-01 
       1.662284535976e+01       6.309843556749e-02 
       2.092692243973e+01       3.417889521904e-02 
       2.634543445002e+01       1.844549804623e-02 
       3.316693691389e+01       9.918621538554e-03 
       4.175469971226e+01       5.314152940982e-03 
       5.256605252960e+01       2.836235260398e-03 
       6.617673932723e+01       1.507292013811e-03 
