# Matter power spectrum P(k) at redshift z=99
# for k=1.04775e-05 to 66.1767 h/Mpc,
# number of wavenumbers equal to 130
#    1:k (h/Mpc)              2:P (Mpc/h)^3        
       1.047750691046e-05       7.261927680870e-03 
       1.319039970183e-05       9.069258201859e-03 
       1.660572937635e-05       1.132639106727e-02 
       2.090537469327e-05       1.414527123401e-02 
       2.631830744443e-05       1.766569584060e-02 
       3.313278603720e-05       2.206225515945e-02 
       4.171170630578e-05       2.755297766280e-02 
       5.251192703764e-05       3.441013522951e-02 
       6.610859936996e-05       4.297372172782e-02 
       8.322579568497e-05       5.366826852950e-02 
       1.047750691046e-04       6.702379872782e-02 
       1.319039970183e-04       8.370193441296e-02 
       1.660572937635e-04       1.045283355385e-01 
       2.090537469327e-04       1.305329134105e-01 
       2.631830744443e-04       1.629994506607e-01 
       3.313278603720e-04       2.035264004604e-01 
       4.171170630578e-04       2.541004744245e-01 
       5.251192703764e-04       3.171839528561e-01 
       6.610859936996e-04       3.958147256517e-01 
       8.322579568497e-04       4.937136006255e-01 
       1.047750691046e-03       6.153841636047e-01 
       1.319039970183e-03       7.661720592899e-01 
       1.660572937635e-03       9.522588016403e-01 
       2.090537469327e-03       1.180312991698e+00 
       2.631830744443e-03       1.456802684681e+00 
       3.313278603720e-03       1.786503854024e+00 
       4.171170630578e-03       2.169896192780e+00 
       5.251192703764e-03       2.599430630674e+00 
       6.610859936996e-03       3.055668696639e+00 
       8.322579568497e-03       3.505725598254e+00 
       1.047750691046e-02       3.905490964340e+00 
       1.319039970183e-02       4.200915358026e+00 
       1.660572937633e-02       4.325061440725e+00 
       2.090537453514e-02       4.210203544906e+00 
       2.631818545635e-02       3.825154860296e+00 
       3.311571692125e-02       3.229066391869e+00 
       4.113809243311e-02       2.627736231594e+00 
       4.792590854610e-02       2.280793781280e+00 
       5.284436902701e-02       2.110088291668e+00 
       5.689644391095e-02       2.003536663973e+00 
       6.051252627066e-02       1.923057633855e+00 
       6.388413457411e-02       1.852734380187e+00 
       6.711249296401e-02       1.784563103337e+00 
       7.025823437965e-02       1.714274313354e+00 
       7.336115587705e-02       1.639809730546e+00 
       7.644928796912e-02       1.560661827210e+00 
       7.954353299775e-02       1.477459083112e+00 
       8.266024078725e-02       1.391694915576e+00 
       8.581273398637e-02       1.305458795943e+00 
       8.901225918437e-02       1.221126643927e+00 
       9.226860540985e-02       1.141079281820e+00 
       9.559052048996e-02       1.067454027655e+00 
       9.898599946599e-02       1.001889499423e+00 
       1.024624891378e-01       9.453802125221e-01 
       1.060270359164e-01       8.981513981845e-01 
       1.096863943056e-01       8.596143241793e-01 
       1.134471073830e-01       8.284062950963e-01 
       1.173155669539e-01       8.024685286417e-01 
       1.212980586983e-01       7.792285969052e-01 
       1.254007961065e-01       7.559202724253e-01 
       1.296299459934e-01       7.299829182132e-01 
       1.339916477160e-01       6.995929108772e-01 
       1.384920277736e-01       6.640799027916e-01 
       1.431372111762e-01       6.241488147718e-01 
       1.479333307714e-01       5.817649999621e-01 
       1.528865355934e-01       5.396902024091e-01 
       1.580029992204e-01       5.008142477865e-01 
       1.632889290723e-01       4.673981989451e-01 
       1.687505775527e-01       4.405330645530e-01 
       1.743942559171e-01       4.198653616943e-01 
       1.802263517371e-01       4.036591843266e-01 
       1.862533508214e-01       3.893629688812e-01 
       1.924818644494e-01       3.741396433812e-01 
       1.989186627765e-01       3.558068257819e-01 
       2.055707152847e-01       3.340039655071e-01 
       2.124452391818e-01       3.102655791548e-01 
       2.195497567139e-01       2.871223669174e-01 
       2.268921624510e-01       2.668078120851e-01 
       2.344808017550e-01       2.504833271806e-01 
       2.423245618548e-01       2.378336159197e-01 
       2.504329772620e-01       2.271120682118e-01 
       2.588163516754e-01       2.161195541789e-01 
       2.674858990930e-01       2.035471240089e-01 
       2.764539076010e-01       1.895975668332e-01 
       2.857339303080e-01       1.757568148348e-01 
       2.953410092148e-01       1.636990228071e-01 
       3.052919395542e-01       1.539065496736e-01 
       3.156055844677e-01       1.455310555311e-01 
       3.263032530092e-01       1.372500118185e-01 
       3.374091587054e-01       1.283012929406e-01 
       3.489509817175e-01       1.191710251215e-01 
       3.609605657343e-01       1.108070989037e-01 
       3.734747921333e-01       1.036453456682e-01 
       3.865366902904e-01       9.714105652452e-02 
       4.001968667448e-01       9.061524186523e-02 
       4.145153713076e-01       8.403690677542e-02 
       4.295641718077e-01       7.789118154605e-02 
       4.454304922144e-01       7.234161991800e-02 
       4.622214006969e-01       6.709356646038e-02 
       4.800702491654e-01       6.189167160578e-02 
       4.991459272112e-01       5.692622403739e-02 
       5.196665217302e-01       5.231596792730e-02 
       5.419201087032e-01       4.783246912030e-02 
       5.662975451962e-01       4.348691841731e-02 
       5.933463737275e-01       3.933103161921e-02 
       6.238638458458e-01       3.525324252820e-02 
       6.590669257916e-01       3.126282811442e-02 
       7.009246080454e-01       2.728730519058e-02 
       7.528593308799e-01       2.327836753390e-02 
       8.213469537518e-01       1.914815856299e-02 
       9.196980813302e-01       1.481694801606e-02 
       1.075112183810e+00       1.035083419347e-02 
       1.322697471132e+00       6.379388289302e-03 
       1.662328205042e+00       3.705579075339e-03 
       2.092692408506e+00       2.124450766916e-03 
       2.634543445090e+00       1.207876198304e-03 
       3.316693691389e+00       6.816208542142e-04 
       4.175469971226e+00       3.820325211129e-04 
       5.256605252960e+00       2.127893097584e-04 
       6.617673932723e+00       1.178399961517e-04 
       8.331157880872e+00       6.490844720977e-05 
       1.048830636590e+01       3.557036637544e-05 
       1.320399541071e+01       1.939447665042e-05 
       1.662284535976e+01       1.051910887259e-05 
       2.092692243973e+01       5.670985846799e-06 
       2.634543445002e+01       3.033429813378e-06 
       3.316693691389e+01       1.603703233599e-06 
       4.175469971226e+01       8.310871731668e-07 
       5.256605252960e+01       4.148574635251e-07 
       6.617673932723e+01       1.920635008436e-07 
