# Matter power spectrum P(k) at redshift z=0
# for k=1.04775e-05 to 67.6233 h/Mpc,
# number of wavenumbers equal to 246
#    1:k (h/Mpc)              2:P (Mpc/h)^3        
       1.047750691046e-05       5.020964811308e+01 
       1.131335172503e-05       5.407050701927e+01 
       1.221587619537e-05       5.822819068698e+01 
       1.319039970183e-05       6.270562594775e+01 
       1.424266597921e-05       6.752732240880e+01 
       1.537887696968e-05       7.271977206173e+01 
       1.660572937635e-05       7.831147247912e+01 
       1.793045413292e-05       8.433311821988e+01 
       1.936085902198e-05       9.081778249833e+01 
       2.090537469327e-05       9.780108069297e+01 
       2.257310435294e-05       1.053213197893e+02 
       2.437387741694e-05       1.134197377890e+02 
       2.631830744443e-05       1.221408203809e+02 
       2.841785469300e-05       1.315324642466e+02 
       3.068489366414e-05       1.416462094882e+02 
       3.313278603720e-05       1.525374501932e+02 
       3.577595942169e-05       1.642660688414e+02 
       3.862999239199e-05       1.768963506307e+02 
       4.171170630578e-05       1.904975994010e+02 
       4.503926444729e-05       2.051444491973e+02 
       4.863227907969e-05       2.209171465549e+02 
       5.251192703764e-05       2.379022224249e+02 
       5.670107454120e-05       2.561927927554e+02 
       6.122441196689e-05       2.758890444041e+02 
       6.610859936996e-05       2.970989227883e+02 
       7.138242361596e-05       3.199385560802e+02 
       7.707696804727e-05       3.445329783680e+02 
       8.322579568497e-05       3.710167318945e+02 
       8.986514704559e-05       3.995346444203e+02 
       9.703415373875e-05       4.302425407383e+02 
       1.047750691046e-04       4.633080766742e+02 
       1.131335172503e-04       4.989116271564e+02 
       1.221587619537e-04       5.372471950929e+02 
       1.319039970183e-04       5.785234129334e+02 
       1.424266597921e-04       6.229645936045e+02 
       1.537887696968e-04       6.708118490405e+02 
       1.660572937635e-04       7.223242666092e+02 
       1.793045413292e-04       7.777801560446e+02 
       1.936085902198e-04       8.374783614141e+02 
       2.090537469327e-04       9.017396271824e+02 
       2.257310435294e-04       9.709080268041e+02 
       2.437387741694e-04       1.045352449493e+03 
       2.631830744443e-04       1.125468123750e+03 
       2.841785469300e-04       1.211678180495e+03 
       3.068489366414e-04       1.304435250150e+03 
       3.313278603720e-04       1.404223053681e+03 
       3.577595942169e-04       1.511558014616e+03 
       3.862999239199e-04       1.626990837773e+03 
       4.171170630578e-04       1.751108028790e+03 
       4.503926444729e-04       1.884533382872e+03 
       4.863227907969e-04       2.027929378112e+03 
       5.251192703764e-04       2.181998448133e+03 
       5.670107454121e-04       2.347484102755e+03 
       6.122441196689e-04       2.525171871366e+03 
       6.610859936996e-04       2.715889983593e+03 
       7.138242361596e-04       2.920509688377e+03 
       7.707696804727e-04       3.139945100279e+03 
       8.322579568497e-04       3.375152337582e+03 
       8.986514704559e-04       3.627127831141e+03 
       9.703415373875e-04       3.896905453136e+03 
       1.047750691046e-03       4.185552174298e+03 
       1.131335172503e-03       4.494162430373e+03 
       1.221587619537e-03       4.823850706493e+03 
       1.319039970183e-03       5.175742744263e+03 
       1.424266597921e-03       5.551019596906e+03 
       1.537887696968e-03       5.950788340560e+03 
       1.660572937635e-03       6.376123051788e+03 
       1.793045413292e-03       6.828073901446e+03 
       1.936085902198e-03       7.307625381067e+03 
       2.090537469327e-03       7.815671862669e+03 
       2.257310435294e-03       8.352990375820e+03 
       2.437387741694e-03       8.920211064330e+03 
       2.631830744443e-03       9.517783069112e+03 
       2.841785469300e-03       1.014593704435e+04 
       3.068489366414e-03       1.080464502801e+04 
       3.313278603720e-03       1.149357460345e+04 
       3.577595942169e-03       1.221203621722e+04 
       3.862999239199e-03       1.295892539446e+04 
       4.171170630578e-03       1.373266011318e+04 
       4.503926444729e-03       1.453111835625e+04 
       4.863227907969e-03       1.535154985296e+04 
       5.251192703764e-03       1.619063614531e+04 
       5.670107454120e-03       1.704431257764e+04 
       6.122441196689e-03       1.790755939665e+04 
       6.610859936996e-03       1.877460412493e+04 
       7.138242361596e-03       1.963872430408e+04 
       7.707696804727e-03       2.049215714809e+04 
       8.322579568496e-03       2.132607232002e+04 
       8.986514704559e-03       2.213055079459e+04 
       9.703415373875e-03       2.289445472336e+04 
       1.047750691046e-02       2.360548325068e+04 
       1.131335172503e-02       2.425023056315e+04 
       1.221587619537e-02       2.481423925297e+04 
       1.319039970183e-02       2.528218612827e+04 
       1.424266597920e-02       2.563811152127e+04 
       1.537887696964e-02       2.586607393690e+04 
       1.660572937560e-02       2.595026625205e+04 
       1.793045412207e-02       2.587635595024e+04 
       1.936085889642e-02       2.563219677447e+04 
       2.090537351881e-02       2.520937324169e+04 
       2.257309534705e-02       2.460447219276e+04 
       2.437382002240e-02       2.382085858354e+04 
       2.631799943729e-02       2.287046074050e+04 
       2.841644544598e-02       2.177451882664e+04 
       3.067933354524e-02       2.056554027281e+04 
       3.311368469821e-02       1.928728543995e+04 
       3.571840442514e-02       1.799402145321e+04 
       3.847720347390e-02       1.674681039793e+04 
       4.135335537314e-02       1.560458189728e+04 
       4.429361666563e-02       1.461038934963e+04 
       4.724366437916e-02       1.378050529973e+04 
       5.016480834039e-02       1.310510226274e+04 
       5.303989618930e-02       1.255714165943e+04 
       5.586870668205e-02       1.210427367924e+04 
       5.866042679206e-02       1.171460375781e+04 
       6.142798931504e-02       1.136049446263e+04 
       6.418496438662e-02       1.101855926112e+04 
       6.694418832236e-02       1.067066927499e+04 
       6.971731104453e-02       1.030354431190e+04 
       7.251476154108e-02       9.908985887924e+03 
       7.534587669814e-02       9.483765104045e+03 
       7.821907664495e-02       9.029507426535e+03 
       8.114203771084e-02       8.552347658019e+03 
       8.412184533139e-02       8.061916510082e+03 
       8.716512277352e-02       7.570766686847e+03 
       9.027813693913e-02       7.092482373165e+03 
       9.346688429613e-02       6.640511510464e+03 
       9.673716026122e-02       6.226716832546e+03 
       1.000946150608e-01       5.859950478454e+03 
       1.035447986307e-01       5.545255244983e+03 
       1.070931966524e-01       5.283139687537e+03 
       1.107452594180e-01       5.069410643983e+03 
       1.145064248899e-01       4.895255574833e+03 
       1.183821370656e-01       4.747836108631e+03 
       1.223778605591e-01       4.611737529624e+03 
       1.264990921707e-01       4.470630623550e+03 
       1.307513701078e-01       4.310264164089e+03 
       1.351402814485e-01       4.121385710419e+03 
       1.396714683894e-01       3.902072477797e+03 
       1.443506337875e-01       3.658650551609e+03 
       1.491835464900e-01       3.404476750210e+03 
       1.541760469368e-01       3.156671265357e+03 
       1.593340535209e-01       2.931975812968e+03 
       1.646635701934e-01       2.742373660354e+03 
       1.701706958081e-01       2.592251723710e+03 
       1.758616357070e-01       2.477238385142e+03 
       1.817427160581e-01       2.385180079895e+03 
       1.878204014651e-01       2.300359835370e+03 
       1.941013163855e-01       2.205753153289e+03 
       2.005922709060e-01       2.090813641422e+03 
       2.073002914514e-01       1.956461065011e+03 
       2.142326570343e-01       1.814195963627e+03 
       2.213969417044e-01       1.679297137946e+03 
       2.288010639201e-01       1.563848121718e+03 
       2.364533436625e-01       1.472683353762e+03 
       2.443625682390e-01       1.401515378125e+03 
       2.525380678946e-01       1.338411477016e+03 
       2.609898025770e-01       1.270900276285e+03 
       2.697284614969e-01       1.193383801475e+03 
       2.787655775073e-01       1.109341569566e+03 
       2.881136588192e-01       1.028775332619e+03 
       2.977863412019e-01       9.604821222711e+02 
       3.077985646248e-01       9.050209181684e+02 
       3.181667793367e-01       8.561424857924e+02 
       3.289091877084e-01       8.061869087505e+02 
       3.400460298905e-01       7.523908180824e+02 
       3.515999235695e-01       6.989220843464e+02 
       3.635962710278e-01       6.510603144191e+02 
       3.760637505499e-01       6.101216784935e+02 
       3.890349143014e-01       5.721325152088e+02 
       4.025469215929e-01       5.337830076419e+02 
       4.166424455447e-01       4.956318563605e+02 
       4.313708034899e-01       4.604687982432e+02 
       4.467893781976e-01       4.287771267017e+02 
       4.629654198623e-01       3.987736943110e+02 
       4.799783500912e-01       3.692408250628e+02 
       4.979227318246e-01       3.412393074339e+02 
       5.169121269689e-01       3.154831214360e+02 
       5.370841403262e-01       2.908339939603e+02 
       5.586070463286e-01       2.671061566625e+02 
       5.816885093582e-01       2.448088862248e+02 
       6.065870143577e-01       2.235671695153e+02 
       6.336266466978e-01       2.032102151352e+02 
       6.632156057925e-01       1.838787441403e+02 
       6.958678637575e-01       1.653542280595e+02 
       7.322247983784e-01       1.476954002965e+02 
       7.730680193171e-01       1.308335467471e+02 
       8.193049551574e-01       1.148306161095e+02 
       8.718988013754e-01       9.976224248317e+01 
       9.317218028590e-01       8.577756831406e+01 
       9.993660906273e-01       7.305486869338e+01 
       1.075037109879e+00       6.173582170788e+01 
       1.158653485387e+00       5.187918923033e+01 
       1.250099156961e+00       4.344026959322e+01 
       1.349432400897e+00       3.628942607364e+01 
       1.456947456991e+00       3.026786105457e+01 
       1.573135110893e+00       2.521442183434e+01 
       1.698621895119e+00       2.098203093264e+01 
       1.834127512423e+00       1.744221174694e+01 
       1.980444933977e+00       1.448558389522e+01 
       2.138435191130e+00       1.201888480345e+01 
       2.309029198543e+00       9.963121088258e+00 
       2.493232376993e+00       8.251795896855e+00 
       2.692130394536e+00       6.828541278241e+00 
       2.906895533764e+00       5.646234278178e+00 
       3.138793596840e+00       4.664839139921e+00 
       3.389191365541e+00       3.851080547918e+00 
       3.659564656886e+00       3.176932832696e+00 
       3.951507021438e+00       2.618861206891e+00 
       4.266739135513e+00       2.157339939791e+00 
       4.607118942658e+00       1.775925493537e+00 
       4.974652604172e+00       1.460984137097e+00 
       5.371506323193e+00       1.201119459691e+00 
       5.800019112071e+00       9.868773814863e-01 
       6.262716578240e+00       8.103478338795e-01 
       6.762325809881e+00       6.650057168529e-01 
       7.301791449077e+00       5.454231190602e-01 
       7.884293047211e+00       4.470941025563e-01 
       8.513263804891e+00       3.662972407074e-01 
       9.192410806865e+00       2.999380202587e-01 
       9.925736871166e+00       2.454789397959e-01 
       1.071756414128e+01       2.008052770163e-01 
       1.157255956041e+01       1.641823269760e-01 
       1.249576237789e+01       1.341759064386e-01 
       1.349261385000e+01       1.096003808507e-01 
       1.456898931011e+01       8.948715044839e-02 
       1.573123279727e+01       7.303133544051e-02 
       1.698619444729e+01       5.957619775769e-02 
       1.834127086665e+01       4.857882400889e-02 
       1.980444872733e+01       3.959500938618e-02 
       2.138435183937e+01       3.225917090960e-02 
       2.309029197863e+01       2.627174861117e-02 
       2.493232376942e+01       2.138683078959e-02 
       2.692130394533e+01       1.740300379342e-02 
       2.906895533764e+01       1.415577925477e-02 
       3.138793596840e+01       1.150974663956e-02 
       3.389191365541e+01       9.354532294378e-03 
       3.659564656886e+01       7.599713622909e-03 
       3.951507021438e+01       6.171552538811e-03 
       4.266739135513e+01       5.009777536238e-03 
       4.607118942658e+01       4.064820225394e-03 
       4.974652604172e+01       3.296687819741e-03 
       5.371506323193e+01       2.672439629526e-03 
       5.800019112071e+01       2.165358892546e-03 
       6.262716578240e+01       1.753548292218e-03 
       6.762325809881e+01       1.419310846196e-03 
