# Matter power spectrum P(k) at redshift z=0
# for k=1.04775e-05 to 67.6233 h/Mpc,
# number of wavenumbers equal to 246
#    1:k (h/Mpc)              2:P (Mpc/h)^3        
       1.047750691046e-05       5.020964811306e+01 
       1.131335172503e-05       5.407050701925e+01 
       1.221587619537e-05       5.822819069052e+01 
       1.319039970183e-05       6.270562594772e+01 
       1.424266597921e-05       6.752732240880e+01 
       1.537887696968e-05       7.271977206173e+01 
       1.660572937635e-05       7.831147247912e+01 
       1.793045413292e-05       8.433311821988e+01 
       1.936085902198e-05       9.081778249834e+01 
       2.090537469327e-05       9.780108069296e+01 
       2.257310435294e-05       1.053213197893e+02 
       2.437387741694e-05       1.134197377890e+02 
       2.631830744443e-05       1.221408203810e+02 
       2.841785469300e-05       1.315324642454e+02 
       3.068489366414e-05       1.416462094880e+02 
       3.313278603720e-05       1.525374501932e+02 
       3.577595942169e-05       1.642660688414e+02 
       3.862999239199e-05       1.768963506307e+02 
       4.171170630578e-05       1.904975994010e+02 
       4.503926444729e-05       2.051444491973e+02 
       4.863227907969e-05       2.209171465548e+02 
       5.251192703764e-05       2.379022224246e+02 
       5.670107454120e-05       2.561927928050e+02 
       6.122441196689e-05       2.758890444039e+02 
       6.610859936996e-05       2.970989227881e+02 
       7.138242361596e-05       3.199385560801e+02 
       7.707696804727e-05       3.445329783676e+02 
       8.322579568497e-05       3.710167318944e+02 
       8.986514704559e-05       3.995346444201e+02 
       9.703415373875e-05       4.302425407380e+02 
       1.047750691046e-04       4.633080766739e+02 
       1.131335172503e-04       4.989116271561e+02 
       1.221587619537e-04       5.372471950925e+02 
       1.319039970183e-04       5.785234129335e+02 
       1.424266597921e-04       6.229645936038e+02 
       1.537887696968e-04       6.708118490395e+02 
       1.660572937635e-04       7.223242666080e+02 
       1.793045413292e-04       7.777801559744e+02 
       1.936085902198e-04       8.374783614120e+02 
       2.090537469327e-04       9.017396271799e+02 
       2.257310435294e-04       9.709080268010e+02 
       2.437387741694e-04       1.045352449489e+03 
       2.631830744443e-04       1.125468123745e+03 
       2.841785469300e-04       1.211678180488e+03 
       3.068489366414e-04       1.304435250142e+03 
       3.313278603720e-04       1.404223053671e+03 
       3.577595942169e-04       1.511558014604e+03 
       3.862999239199e-04       1.626990837702e+03 
       4.171170630578e-04       1.751108028770e+03 
       4.503926444729e-04       1.884533382847e+03 
       4.863227907969e-04       2.027929378082e+03 
       5.251192703764e-04       2.181998448094e+03 
       5.670107454121e-04       2.347484102706e+03 
       6.122441196689e-04       2.525171871304e+03 
       6.610859936996e-04       2.715889983515e+03 
       7.138242361596e-04       2.920509688284e+03 
       7.707696804727e-04       3.139945100158e+03 
       8.322579568497e-04       3.375152337432e+03 
       8.986514704559e-04       3.627127830949e+03 
       9.703415373875e-04       3.896905452895e+03 
       1.047750691046e-03       4.185552174018e+03 
       1.131335172503e-03       4.494162429994e+03 
       1.221587619537e-03       4.823850706019e+03 
       1.319039970183e-03       5.175742742283e+03 
       1.424266597921e-03       5.551019596163e+03 
       1.537887696968e-03       5.950788339563e+03 
       1.660572937635e-03       6.376123050518e+03 
       1.793045413292e-03       6.828073899821e+03 
       1.936085902198e-03       7.307625378953e+03 
       2.090537469327e-03       7.815671911210e+03 
       2.257310435294e-03       8.352990372363e+03 
       2.437387741694e-03       8.920211059924e+03 
       2.631830744443e-03       9.517783063507e+03 
       2.841785469300e-03       1.014593703724e+04 
       3.068489366414e-03       1.080464501908e+04 
       3.313278603720e-03       1.149357459206e+04 
       3.577595942169e-03       1.221203620283e+04 
       3.862999239199e-03       1.295892537633e+04 
       4.171170630578e-03       1.373266011559e+04 
       4.503926444729e-03       1.453111832763e+04 
       4.863227907969e-03       1.535154881642e+04 
       5.251192703764e-03       1.619062962065e+04 
       5.670107454120e-03       1.704431179418e+04 
       6.122441196689e-03       1.790756240158e+04 
       6.610859936996e-03       1.877460559368e+04 
       7.138242361596e-03       1.963872847672e+04 
       7.707696804727e-03       2.049213568301e+04 
       8.322579568496e-03       2.132610538181e+04 
       8.986514704559e-03       2.213054334002e+04 
       9.703415373875e-03       2.289443308214e+04 
       1.047750691046e-02       2.360545818761e+04 
       1.131335172503e-02       2.425019870224e+04 
       1.221587619537e-02       2.481413770039e+04 
       1.319039970183e-02       2.528217124044e+04 
       1.424266597920e-02       2.563809822461e+04 
       1.537887696964e-02       2.586587206964e+04 
       1.660572937560e-02       2.594999958780e+04 
       1.793045412207e-02       2.587604713643e+04 
       1.936085889642e-02       2.563227219914e+04 
       2.090537351881e-02       2.520925662099e+04 
       2.257309534705e-02       2.460432329007e+04 
       2.437382002240e-02       2.382076659080e+04 
       2.631799943729e-02       2.287019151617e+04 
       2.841644544598e-02       2.177435864091e+04 
       3.067933354524e-02       2.056532659401e+04 
       3.311368469821e-02       1.928704412126e+04 
       3.571840442514e-02       1.799387454243e+04 
       3.847720347390e-02       1.674670165428e+04 
       4.135335537314e-02       1.560450204822e+04 
       4.429361666563e-02       1.461028841965e+04 
       4.724366437916e-02       1.378045807635e+04 
       5.016480834039e-02       1.310500986933e+04 
       5.303989618930e-02       1.255715222412e+04 
       5.586870668205e-02       1.210423752323e+04 
       5.866042679206e-02       1.171435476396e+04 
       6.142798931504e-02       1.136009428936e+04 
       6.418496438662e-02       1.101860312422e+04 
       6.694418832236e-02       1.067066023596e+04 
       6.971731104453e-02       1.030361764269e+04 
       7.251476154108e-02       9.909039178001e+03 
       7.534587669814e-02       9.483603658388e+03 
       7.821907664495e-02       9.029314487400e+03 
       8.114203771084e-02       8.552106211444e+03 
       8.412184533139e-02       8.061926756816e+03 
       8.716512277352e-02       7.570752893793e+03 
       9.027813693913e-02       7.092452088970e+03 
       9.346688429613e-02       6.640519265578e+03 
       9.673716026122e-02       6.226692166989e+03 
       1.000946150608e-01       5.859891688392e+03 
       1.035447986307e-01       5.545235068684e+03 
       1.070931966524e-01       5.283134213081e+03 
       1.107452594180e-01       5.069436828874e+03 
       1.145064248899e-01       4.895261676874e+03 
       1.183821370656e-01       4.747817532058e+03 
       1.223778605591e-01       4.611706496696e+03 
       1.264990921707e-01       4.470593575795e+03 
       1.307513701078e-01       4.310257190295e+03 
       1.351402814485e-01       4.121372360486e+03 
       1.396714683894e-01       3.902024233623e+03 
       1.443506337875e-01       3.658621912211e+03 
       1.491835464900e-01       3.404438761521e+03 
       1.541760469368e-01       3.156609729759e+03 
       1.593340535209e-01       2.931896359587e+03 
       1.646635701934e-01       2.742315300957e+03 
       1.701706958081e-01       2.592200766345e+03 
       1.758616357070e-01       2.477175157152e+03 
       1.817427160581e-01       2.385125776703e+03 
       1.878204014651e-01       2.300302743389e+03 
       1.941013163855e-01       2.205735924436e+03 
       2.005922709060e-01       2.090796112231e+03 
       2.073002914514e-01       1.956416735596e+03 
       2.142326570343e-01       1.814126411434e+03 
       2.213969417044e-01       1.679229533463e+03 
       2.288010639201e-01       1.563795982691e+03 
       2.364533436625e-01       1.472620902607e+03 
       2.443625682390e-01       1.401461534450e+03 
       2.525380678946e-01       1.338365644173e+03 
       2.609898025770e-01       1.270840730602e+03 
       2.697284614969e-01       1.193299815104e+03 
       2.787655775073e-01       1.109268102556e+03 
       2.881136588192e-01       1.028697744389e+03 
       2.977863412019e-01       9.604136587013e+02 
       3.077985646248e-01       9.049514697397e+02 
       3.181667793367e-01       8.560667499558e+02 
       3.289091877084e-01       8.061124740632e+02 
       3.400460298905e-01       7.523093510650e+02 
       3.515999235695e-01       6.988396991902e+02 
       3.635962710278e-01       6.509817494595e+02 
       3.760637505499e-01       6.100400609739e+02 
       3.890349143014e-01       5.720475972825e+02 
       4.025469215929e-01       5.336931739795e+02 
       4.166424455447e-01       4.955383217722e+02 
       4.313708034899e-01       4.603766733924e+02 
       4.467893781976e-01       4.286801278658e+02 
       4.629654198623e-01       3.986769823255e+02 
       4.799783500912e-01       3.691417310330e+02 
       4.979227318246e-01       3.411400764130e+02 
       5.169121269689e-01       3.153789050977e+02 
       5.370841403262e-01       2.907282490987e+02 
       5.586070463286e-01       2.669960866427e+02 
       5.816885093582e-01       2.446968395608e+02 
       6.065870143577e-01       2.234533611028e+02 
       6.336266466978e-01       2.030923442084e+02 
       6.632156057925e-01       1.837580324151e+02 
       6.958678637575e-01       1.652288712843e+02 
       7.322247983784e-01       1.475651511802e+02 
       7.730680193171e-01       1.306982281427e+02 
       8.193049551574e-01       1.146894924065e+02 
       8.718988013754e-01       9.961425746022e+01 
       9.317218028590e-01       8.562101797442e+01 
       9.993660906273e-01       7.288933897745e+01 
       1.075037109879e+00       6.156082770463e+01 
       1.158653485387e+00       5.169296751044e+01 
       1.250099156961e+00       4.324224403021e+01 
       1.349432400897e+00       3.607876522946e+01 
       1.456947456991e+00       3.004358102474e+01 
       1.573135110893e+00       2.497500090300e+01 
       1.698621895119e+00       2.072626083842e+01 
       1.834127512423e+00       1.716928460871e+01 
       1.980444933977e+00       1.419405421261e+01 
       2.138435191130e+00       1.170733830347e+01 
       2.309029198543e+00       9.630618713153e+00 
       2.493232376993e+00       7.897095397405e+00 
       2.692130394536e+00       6.450569006545e+00 
       2.906895533764e+00       5.244126348184e+00 
       3.138793596840e+00       4.238049912361e+00 
       3.389191365541e+00       3.399481895629e+00 
       3.659564656886e+00       2.700899900032e+00 
       3.951507021438e+00       2.119626280355e+00 
       4.266739135513e+00       1.637051620560e+00 
       4.607118942658e+00       1.237993262050e+00 
       4.974652604172e+00       9.102661410683e-01 
       5.371506323193e+00       6.441989059914e-01 
       5.800019112071e+00       4.321915711553e-01 
       6.262716578240e+00       2.682449581320e-01 
       6.762325809881e+00       1.474932060815e-01 
       7.301791449077e+00       6.564391828525e-02 
       7.884293047211e+00       1.834221676194e-02 
       8.513263804891e+00       5.489250008210e-04 
       9.192410806865e+00       5.988367740861e-03 
       9.925736871166e+00       2.687100702646e-02 
       1.071756414128e+01       5.412128878281e-02 
       1.157255956041e+01       7.831213393874e-02 
       1.249576237789e+01       9.136541972550e-02 
       1.349261385000e+01       8.869814617046e-02 
       1.456898931011e+01       7.102845454160e-02 
       1.573123279727e+01       4.465592260143e-02 
       1.698619444729e+01       1.927854327889e-02 
       1.834127086665e+01       3.515755157547e-03 
       1.980444872733e+01       2.134126886434e-04 
       2.138435183937e+01       4.887371569928e-03 
       2.309029197863e+01       9.383069444278e-03 
       2.493232376942e+01       8.569751689419e-03 
       2.692130394533e+01       3.997129600777e-03 
       2.906895533764e+01       5.363161231073e-04 
       3.138793596840e+01       1.057395736409e-04 
       3.389191365541e+01       6.140954432726e-04 
       3.659564656886e+01       3.858228621401e-04 
       3.951507021438e+01       3.217666009635e-05 
       4.266739135513e+01       1.219262869304e-05 
       4.607118942658e+01       7.137619300085e-06 
       4.974652604172e+01       3.442855752781e-06 
       5.371506323193e+01       3.776967756839e-06 
       5.800019112071e+01       2.562542349703e-06 
       6.262716578240e+01       5.065431108128e-06 
       6.762325809881e+01       1.152129203061e-07 
