# Matter power spectrum P(k) at redshift z=99
# for k=1.04775e-05 to 66.1767 h/Mpc,
# number of wavenumbers equal to 130
#    1:k (h/Mpc)              2:P (Mpc/h)^3        
       1.047750691046e-05       7.261927680862e-03 
       1.319039970183e-05       9.069258201849e-03 
       1.660572937635e-05       1.132639106725e-02 
       2.090537469327e-05       1.414527123399e-02 
       2.631830744443e-05       1.766569584058e-02 
       3.313278603720e-05       2.206225515942e-02 
       4.171170630578e-05       2.755297766277e-02 
       5.251192703764e-05       3.441013522947e-02 
       6.610859936996e-05       4.297372172778e-02 
       8.322579568497e-05       5.366826852944e-02 
       1.047750691046e-04       6.702379872775e-02 
       1.319039970183e-04       8.370193441286e-02 
       1.660572937635e-04       1.045283355384e-01 
       2.090537469327e-04       1.305329134104e-01 
       2.631830744443e-04       1.629994506605e-01 
       3.313278603720e-04       2.035264004601e-01 
       4.171170630578e-04       2.541004744243e-01 
       5.251192703764e-04       3.171839528557e-01 
       6.610859936996e-04       3.958147256513e-01 
       8.322579568497e-04       4.937136006258e-01 
       1.047750691046e-03       6.153841636041e-01 
       1.319039970183e-03       7.661720592718e-01 
       1.660572937635e-03       9.522588016483e-01 
       2.090537469327e-03       1.180312991699e+00 
       2.631830744443e-03       1.456802684686e+00 
       3.313278603720e-03       1.786503854039e+00 
       4.171170630578e-03       2.169896193559e+00 
       5.251192703764e-03       2.599430630721e+00 
       6.610859936996e-03       3.055668703628e+00 
       8.322579568497e-03       3.505725598502e+00 
       1.047750691046e-02       3.905491076517e+00 
       1.319039970183e-02       4.200915504428e+00 
       1.660572937633e-02       4.325061604828e+00 
       2.090537453514e-02       4.210200126839e+00 
       2.631818545635e-02       3.825146860868e+00 
       3.311571692125e-02       3.229067855023e+00 
       4.113809243311e-02       2.627741280801e+00 
       4.792590854610e-02       2.280797305907e+00 
       5.284436902701e-02       2.110087118607e+00 
       5.689644391095e-02       2.003538096559e+00 
       6.051252627066e-02       1.923059463261e+00 
       6.388413457411e-02       1.852734837666e+00 
       6.711249296401e-02       1.784567474475e+00 
       7.025823437965e-02       1.714275302201e+00 
       7.336115587705e-02       1.639814569646e+00 
       7.644928796912e-02       1.560664261905e+00 
       7.954353299775e-02       1.477456614176e+00 
       8.266024078725e-02       1.391702539231e+00 
       8.581273398637e-02       1.305460168412e+00 
       8.901225918437e-02       1.221126546422e+00 
       9.226860540985e-02       1.141079091785e+00 
       9.559052048996e-02       1.067454470801e+00 
       9.898599946599e-02       1.001890302045e+00 
       1.024624891378e-01       9.453811231298e-01 
       1.060270359164e-01       8.981493493428e-01 
       1.096863943056e-01       8.596135625954e-01 
       1.134471073830e-01       8.284051696642e-01 
       1.173155669539e-01       8.024670661412e-01 
       1.212980586983e-01       7.792289137226e-01 
       1.254007961065e-01       7.559175627951e-01 
       1.296299459934e-01       7.299820344543e-01 
       1.339916477160e-01       6.995927002882e-01 
       1.384920277736e-01       6.640792221183e-01 
       1.431372111762e-01       6.241466848919e-01 
       1.479333307714e-01       5.817641891362e-01 
       1.528865355934e-01       5.396922237682e-01 
       1.580029992204e-01       5.008141291084e-01 
       1.632889290723e-01       4.673981443583e-01 
       1.687505775527e-01       4.405339232804e-01 
       1.743942559171e-01       4.198659773354e-01 
       1.802263517371e-01       4.036598596486e-01 
       1.862533508214e-01       3.893594823054e-01 
       1.924818644494e-01       3.741357192491e-01 
       1.989186627765e-01       3.558017397308e-01 
       2.055707152847e-01       3.340001023603e-01 
       2.124452391818e-01       3.102651529050e-01 
       2.195497567139e-01       2.871224465737e-01 
       2.268921624510e-01       2.668078342702e-01 
       2.344808017550e-01       2.504835654947e-01 
       2.423245618548e-01       2.378337686817e-01 
       2.504329772620e-01       2.271111607167e-01 
       2.588163516754e-01       2.161175559620e-01 
       2.674858990930e-01       2.035454848430e-01 
       2.764539076010e-01       1.895980732711e-01 
       2.857339303080e-01       1.757566464818e-01 
       2.953410092148e-01       1.636994722297e-01 
       3.052919395542e-01       1.539063884656e-01 
       3.156055844677e-01       1.455306971074e-01 
       3.263032530092e-01       1.372504193025e-01 
       3.374091587054e-01       1.283023725219e-01 
       3.489509817175e-01       1.191711396692e-01 
       3.609605657343e-01       1.108073225707e-01 
       3.734747921333e-01       1.036450693272e-01 
       3.865366902904e-01       9.714151250493e-02 
       4.001968667448e-01       9.061552063385e-02 
       4.145153713076e-01       8.403721414576e-02 
       4.295641718077e-01       7.789120761440e-02 
       4.454304922144e-01       7.234200940228e-02 
       4.622214006969e-01       6.709395354317e-02 
       4.800702491654e-01       6.189185312486e-02 
       4.991459272112e-01       5.692621648618e-02 
       5.196665217302e-01       5.231622923929e-02 
       5.419201087032e-01       4.783256077824e-02 
       5.662975451962e-01       4.348686431679e-02 
       5.933463737275e-01       3.933111538592e-02 
       6.238638458458e-01       3.525332286481e-02 
       6.590669257916e-01       3.126299488374e-02 
       7.009246080454e-01       2.728734291664e-02 
       7.528593308799e-01       2.327843268043e-02 
       8.213469537518e-01       1.914823502743e-02 
       9.196980813302e-01       1.481702183360e-02 
       1.075112183810e+00       1.035093224208e-02 
       1.322697471132e+00       6.379476665147e-03 
       1.662328205042e+00       3.705672003768e-03 
       2.092692408506e+00       2.124537246079e-03 
       2.634543445090e+00       1.207968161436e-03 
       3.316693691389e+00       6.817101367140e-04 
       4.175469971226e+00       3.821177391297e-04 
       5.256605252960e+00       2.128718724990e-04 
       6.617673932723e+00       1.179195221738e-04 
       8.331157880872e+00       6.498480612922e-05 
       1.048830636590e+01       3.564276389298e-05 
       1.320399541071e+01       1.946379052857e-05 
       1.662284535976e+01       1.058552276740e-05 
       2.092692243973e+01       5.735127509685e-06 
       2.634543445002e+01       3.096105469288e-06 
       3.316693691389e+01       1.665666150354e-06 
       4.175469971226e+01       8.930510436648e-07 
       5.256605252960e+01       4.771366891006e-07 
       6.617673932723e+01       2.539604907889e-07 
