# Matter power spectrum P(k) at redshift z=0
# for k=1.04775e-05 to 66.1767 h/Mpc,
# number of wavenumbers equal to 130
#    1:k (h/Mpc)              2:P (Mpc/h)^3        
       1.047750691046e-05       5.020964811307e+01 
       1.319039970183e-05       6.270562594779e+01 
       1.660572937635e-05       7.831147247912e+01 
       2.090537469327e-05       9.780108069297e+01 
       2.631830744443e-05       1.221408203809e+02 
       3.313278603720e-05       1.525374501932e+02 
       4.171170630578e-05       1.904975994010e+02 
       5.251192703764e-05       2.379022224249e+02 
       6.610859936996e-05       2.970989227881e+02 
       8.322579568497e-05       3.710167318945e+02 
       1.047750691046e-04       4.633080766742e+02 
       1.319039970183e-04       5.785234129336e+02 
       1.660572937635e-04       7.223242666092e+02 
       2.090537469327e-04       9.017396271824e+02 
       2.631830744443e-04       1.125468123750e+03 
       3.313278603720e-04       1.404223053681e+03 
       4.171170630578e-04       1.751108028790e+03 
       5.251192703764e-04       2.181998448133e+03 
       6.610859936996e-04       2.715889983592e+03 
       8.322579568497e-04       3.375152337134e+03 
       1.047750691046e-03       4.185552174309e+03 
       1.319039970183e-03       5.175742741772e+03 
       1.660572937635e-03       6.376123051778e+03 
       2.090537469327e-03       7.815671866286e+03 
       2.631830744443e-03       9.517783069112e+03 
       3.313278603720e-03       1.149357460343e+04 
       4.171170630578e-03       1.373266009127e+04 
       5.251192703764e-03       1.619063614537e+04 
       6.610859936996e-03       1.877460426061e+04 
       8.322579568497e-03       2.132606830210e+04 
       1.047750691046e-02       2.360548556574e+04 
       1.319039970183e-02       2.528218773325e+04 
       1.660572937633e-02       2.595025219223e+04 
       2.090537453514e-02       2.520932910710e+04 
       2.631818545635e-02       2.287031595375e+04 
       3.311571692125e-02       1.928624976996e+04 
       4.113809243311e-02       1.568427916261e+04 
       4.792590854610e-02       1.361061690480e+04 
       5.284436902701e-02       1.259127648462e+04 
       5.689644391095e-02       1.195555222027e+04 
       6.051252627066e-02       1.147548517387e+04 
       6.388413457411e-02       1.105588439051e+04 
       6.711249296401e-02       1.064899505958e+04 
       7.025823437965e-02       1.022925766955e+04 
       7.336115587705e-02       9.784511385341e+03 
       7.644928796912e-02       9.311644185056e+03 
       7.954353299775e-02       8.814524853554e+03 
       8.266024078725e-02       8.302129097031e+03 
       8.581273398637e-02       7.786942140672e+03 
       8.901225918437e-02       7.283187584389e+03 
       9.226860540985e-02       6.805155883565e+03 
       9.559052048996e-02       6.365601760783e+03 
       9.898599946599e-02       5.974351443579e+03 
       1.024624891378e-01       5.637347303825e+03 
       1.060270359164e-01       5.355782254816e+03 
       1.096863943056e-01       5.126251749259e+03 
       1.134471073830e-01       4.940483717332e+03 
       1.173155669539e-01       4.786160542406e+03 
       1.212980586983e-01       4.647939064635e+03 
       1.254007961065e-01       4.509144401082e+03 
       1.296299459934e-01       4.354552737567e+03 
       1.339916477160e-01       4.173228234760e+03 
       1.384920277736e-01       3.961184526386e+03 
       1.431372111762e-01       3.722673108983e+03 
       1.479333307714e-01       3.469548748010e+03 
       1.528865355934e-01       3.218342374590e+03 
       1.580029992204e-01       2.986296128168e+03 
       1.632889290723e-01       2.786963930029e+03 
       1.687505775527e-01       2.626827084751e+03 
       1.743942559171e-01       2.503755874801e+03 
       1.802263517371e-01       2.407341965368e+03 
       1.862533508214e-01       2.322252618601e+03 
       1.924818644494e-01       2.231552270674e+03 
       1.989186627765e-01       2.122183572642e+03 
       2.055707152847e-01       1.992022671242e+03 
       2.124452391818e-01       1.850323488282e+03 
       2.195497567139e-01       1.712187109253e+03 
       2.268921624510e-01       1.590987514396e+03 
       2.344808017550e-01       1.493667141156e+03 
       2.423245618548e-01       1.418310379072e+03 
       2.504329772620e-01       1.354464032910e+03 
       2.588163516754e-01       1.288934829652e+03 
       2.674858990930e-01       1.213934241618e+03 
       2.764539076010e-01       1.130690977855e+03 
       2.857339303080e-01       1.048096962226e+03 
       2.953410092148e-01       9.761842877321e+02 
       3.052919395542e-01       9.178106307804e+02 
       3.156055844677e-01       8.678975115565e+02 
       3.263032530092e-01       8.185264148190e+02 
       3.374091587054e-01       7.651457709142e+02 
       3.489509817175e-01       7.106708266669e+02 
       3.609605657343e-01       6.607820834772e+02 
       3.734747921333e-01       6.180825328960e+02 
       3.865366902904e-01       5.793100078540e+02 
       4.001968667448e-01       5.403896604922e+02 
       4.145153713076e-01       5.011517510640e+02 
       4.295641718077e-01       4.644987794220e+02 
       4.454304922144e-01       4.314054254114e+02 
       4.622214006969e-01       4.001128130429e+02 
       4.800702491654e-01       3.690884616188e+02 
       4.991459272112e-01       3.394758849573e+02 
       5.196665217302e-01       3.119842928012e+02 
       5.419201087032e-01       2.852452814066e+02 
       5.662975451962e-01       2.593298928131e+02 
       5.933463737275e-01       2.345476250348e+02 
       6.238638458458e-01       2.102298364972e+02 
       6.590669257916e-01       1.864328377495e+02 
       7.009246080454e-01       1.627246861439e+02 
       7.528593308799e-01       1.388182697749e+02 
       8.213469537518e-01       1.141878222700e+02 
       9.196980813302e-01       8.835864691040e+01 
       1.075112183810e+00       6.172594571649e+01 
       1.322697471132e+00       3.804272025489e+01 
       1.662328205042e+00       2.209789781394e+01 
       2.092692408506e+00       1.266909341765e+01 
       2.634543445090e+00       7.203216697221e+00 
       3.316693691389e+00       4.065135198068e+00 
       4.175469971226e+00       2.278603499266e+00 
       5.256605252960e+00       1.269336026323e+00 
       6.617673932723e+00       7.031279198370e-01 
       8.331157880872e+00       3.874741751916e-01 
       1.048830636590e+01       2.125094472272e-01 
       1.320399541071e+01       1.160333881442e-01 
       1.662284535976e+01       6.309675553094e-02 
       2.092692243973e+01       3.417728573622e-02 
       2.634543445002e+01       1.844372964979e-02 
       3.316693691389e+01       9.916743320685e-03 
       4.175469971226e+01       5.312114303170e-03 
       5.256605252960e+01       2.833885943206e-03 
       6.617673932723e+01       1.504549423097e-03 
