# Matter power spectrum P(k) at redshift z=99
# for k=1.04775e-05 to 67.6233 h/Mpc,
# number of wavenumbers equal to 246
#    1:k (h/Mpc)              2:P (Mpc/h)^3        
       1.047750691046e-05       7.261927680970e-03 
       1.131335172503e-05       7.820331652549e-03 
       1.221587619537e-05       8.421675995580e-03 
       1.319039970183e-05       9.069258201984e-03 
       1.424266597921e-05       9.766638412279e-03 
       1.537887696968e-05       1.051764070817e-02 
       1.660572937635e-05       1.132639106742e-02 
       1.793045413292e-05       1.219733232733e-02 
       1.936085902198e-05       1.313524225798e-02 
       2.090537469327e-05       1.414527123420e-02 
       2.257310435294e-05       1.523296273846e-02 
       2.437387741694e-05       1.640429446313e-02 
       2.631830744443e-05       1.766569584084e-02 
       2.841785469300e-05       1.902408737033e-02 
       3.068489366414e-05       2.048692972803e-02 
       3.313278603720e-05       2.206225515975e-02 
       3.577595942169e-05       2.375870707473e-02 
       3.862999239199e-05       2.558560730241e-02 
       4.171170630578e-05       2.755297766318e-02 
       4.503926444729e-05       2.967161930518e-02 
       4.863227907969e-05       3.195316454281e-02 
       5.251192703764e-05       3.441013522999e-02 
       5.670107454120e-05       3.705601726528e-02 
       6.122441196689e-05       3.990533417856e-02 
       6.610859936996e-05       4.297372172842e-02 
       7.138242361596e-05       4.627802146684e-02 
       7.707696804727e-05       4.983636199538e-02 
       8.322579568497e-05       5.366826853024e-02 
       8.986514704559e-05       5.779476400807e-02 
       9.703415373875e-05       6.223848250603e-02 
       1.047750691046e-04       6.702379872874e-02 
       1.131335172503e-04       7.217695161171e-02 
       1.221587619537e-04       7.772619081962e-02 
       1.319039970183e-04       8.370193441410e-02 
       1.424266597921e-04       9.013692517276e-02 
       1.537887696968e-04       9.706641253046e-02 
       1.660572937635e-04       1.045283355400e-01 
       1.793045413292e-04       1.125635350283e-01 
       1.936085902198e-04       1.212159616276e-01 
       2.090537469327e-04       1.305329134123e-01 
       2.257310435294e-04       1.405652847732e-01 
       2.437387741694e-04       1.513678304173e-01 
       2.631830744443e-04       1.629994506629e-01 
       2.841785469300e-04       1.755234923118e-01 
       3.068489366414e-04       1.890080672452e-01 
       3.313278603720e-04       2.035264004630e-01 
       3.577595942169e-04       2.191571806044e-01 
       3.862999239199e-04       2.359849440138e-01 
       4.171170630578e-04       2.541004744278e-01 
       4.503926444729e-04       2.736012083226e-01 
       4.863227907969e-04       2.945916794139e-01 
       5.251192703764e-04       3.171839528600e-01 
       5.670107454121e-04       3.414980767679e-01 
       6.122441196689e-04       3.676625417058e-01 
       6.610859936996e-04       3.958147256561e-01 
       7.138242361596e-04       4.261013289408e-01 
       7.707696804727e-04       4.586787797404e-01 
       8.322579568497e-04       4.937136006344e-01 
       8.986514704559e-04       5.313826807101e-01 
       9.703415373875e-04       5.718734978285e-01 
       1.047750691046e-03       6.153841636086e-01 
       1.131335172503e-03       6.621233246541e-01 
       1.221587619537e-03       7.123098228018e-01 
       1.319039970183e-03       7.661720592290e-01 
       1.424266597921e-03       8.239546306474e-01 
       1.537887696968e-03       8.859011182844e-01 
       1.660572937635e-03       9.522588016427e-01 
       1.793045413292e-03       1.023280100894e+00 
       1.936085902198e-03       1.099216305727e+00 
       2.090537469327e-03       1.180312991678e+00 
       2.257310435294e-03       1.266804117153e+00 
       2.437387741694e-03       1.358904854794e+00 
       2.631830744443e-03       1.456802684627e+00 
       2.841785469300e-03       1.560646892077e+00 
       3.068489366414e-03       1.670536064138e+00 
       3.313278603720e-03       1.786503853902e+00 
       3.577595942169e-03       1.908502932588e+00 
       3.862999239199e-03       2.036387732580e+00 
       4.171170630578e-03       2.169896192818e+00 
       4.503926444729e-03       2.308631880971e+00 
       4.863227907969e-03       2.452047292965e+00 
       5.251192703764e-03       2.599430630094e+00 
       5.670107454120e-03       2.749896933762e+00 
       6.122441196689e-03       2.902386515273e+00 
       6.610859936996e-03       3.055668708319e+00 
       7.138242361596e-03       3.208356463089e+00 
       7.707696804727e-03       3.358923893493e+00 
       8.322579568496e-03       3.505725596204e+00 
       8.986514704559e-03       3.647009566827e+00 
       9.703415373875e-03       3.780923304050e+00 
       1.047750691046e-02       3.905491068444e+00 
       1.131335172503e-02       4.018587639038e+00 
       1.221587619537e-02       4.117901581082e+00 
       1.319039970183e-02       4.200915370957e+00 
       1.424266597920e-02       4.264941907677e+00 
       1.537887696964e-02       4.307217756030e+00 
       1.660572937560e-02       4.325059150776e+00 
       1.793045412207e-02       4.316055791136e+00 
       1.936085889642e-02       4.278223648793e+00 
       2.090537351881e-02       4.210203647876e+00 
       2.257309534705e-02       4.111421866754e+00 
       2.437382002240e-02       3.982420873685e+00 
       2.631799943729e-02       3.825170156008e+00 
       2.841644544598e-02       3.643285290148e+00 
       3.067933354524e-02       3.442196121516e+00 
       3.311368469821e-02       3.229240993788e+00 
       3.571840442514e-02       3.013515559506e+00 
       3.847720347390e-02       2.805285425623e+00 
       4.135335537314e-02       2.614413863236e+00 
       4.429361666563e-02       2.448132753949e+00 
       4.724366437916e-02       2.309237830287e+00 
       5.016480834039e-02       2.196113786557e+00 
       5.303989618930e-02       2.104365320971e+00 
       5.586870668205e-02       2.028460701078e+00 
       5.866042679206e-02       1.963151996522e+00 
       6.142798931504e-02       1.903780601827e+00 
       6.418496438662e-02       1.846481921808e+00 
       6.694418832236e-02       1.788198647156e+00 
       6.971731104453e-02       1.726715942636e+00 
       7.251476154108e-02       1.660653859035e+00 
       7.534587669814e-02       1.589469006420e+00 
       7.821907664495e-02       1.513436478520e+00 
       8.114203771084e-02       1.433568059490e+00 
       8.412184533139e-02       1.351489349762e+00 
       8.716512277352e-02       1.269271081955e+00 
       9.027813693913e-02       1.189194698184e+00 
       9.346688429613e-02       1.113503424482e+00 
       9.673716026122e-02       1.044175664489e+00 
       1.000946150608e-01       9.827053929024e-01 
       1.035447986307e-01       9.299354462096e-01 
       1.070931966524e-01       8.859572115604e-01 
       1.107452594180e-01       8.500698672270e-01 
       1.145064248899e-01       8.208030621150e-01 
       1.183821370656e-01       7.960240721794e-01 
       1.223778605591e-01       7.731459307523e-01 
       1.264990921707e-01       7.494510748004e-01 
       1.307513701078e-01       7.225584796655e-01 
       1.351402814485e-01       6.909106528749e-01 
       1.396714683894e-01       6.541824932336e-01 
       1.443506337875e-01       6.134286064211e-01 
       1.491835464900e-01       5.708689262477e-01 
       1.541760469368e-01       5.293630989870e-01 
       1.593340535209e-01       4.917103389126e-01 
       1.646635701934e-01       4.599193642786e-01 
       1.701706958081e-01       4.347275320250e-01 
       1.758616357070e-01       4.154068961583e-01 
       1.817427160581e-01       3.999351682647e-01 
       1.878204014651e-01       3.856853241690e-01 
       1.941013163855e-01       3.698137337827e-01 
       2.005922709060e-01       3.505502094548e-01 
       2.073002914514e-01       3.280463866253e-01 
       2.142326570343e-01       3.042134720082e-01 
       2.213969417044e-01       2.816104802060e-01 
       2.288010639201e-01       2.622560331023e-01 
       2.364533436625e-01       2.469603389105e-01 
       2.443625682390e-01       2.350119125270e-01 
       2.525380678946e-01       2.244196943230e-01 
       2.609898025770e-01       2.130952429384e-01 
       2.697284614969e-01       2.001016942277e-01 
       2.787655775073e-01       1.860186351858e-01 
       2.881136588192e-01       1.725160404530e-01 
       2.977863412019e-01       1.610650841435e-01 
       3.077985646248e-01       1.517596299180e-01 
       3.181667793367e-01       1.435585782526e-01 
       3.289091877084e-01       1.351806566368e-01 
       3.400460298905e-01       1.261634136987e-01 
       3.515999235695e-01       1.172010373478e-01 
       3.635962710278e-01       1.091758564228e-01 
       3.760637505499e-01       1.023083915243e-01 
       3.890349143014e-01       9.593662489887e-02 
       4.025469215929e-01       8.950673569559e-02 
       4.166424455447e-01       8.311070177238e-02 
       4.313708034899e-01       7.721451590968e-02 
       4.467893781976e-01       7.189926797349e-02 
       4.629654198623e-01       6.686795079659e-02 
       4.799783500912e-01       6.191640249040e-02 
       4.979227318246e-01       5.722115541901e-02 
       5.169121269689e-01       5.290182768986e-02 
       5.370841403262e-01       4.876864355322e-02 
       5.586070463286e-01       4.478969504009e-02 
       5.816885093582e-01       4.105075662460e-02 
       6.065870143577e-01       3.748882066752e-02 
       6.336266466978e-01       3.407507749506e-02 
       6.632156057925e-01       3.083335404934e-02 
       6.958678637575e-01       2.772718633204e-02 
       7.322247983784e-01       2.476592693693e-02 
       7.730680193171e-01       2.193837990763e-02 
       8.193049551574e-01       1.925494028040e-02 
       8.718988013754e-01       1.672810496999e-02 
       9.317218028590e-01       1.438302355282e-02 
       9.993660906273e-01       1.224941461754e-02 
       1.075037109879e+00       1.035134813115e-02 
       1.158653485387e+00       8.698487351559e-03 
       1.250099156961e+00       7.283335964013e-03 
       1.349432400897e+00       6.084191740457e-03 
       1.456947456991e+00       5.074458945113e-03 
       1.573135110893e+00       4.227038406699e-03 
       1.698621895119e+00       3.517293498543e-03 
       1.834127512423e+00       2.923731164930e-03 
       1.980444933977e+00       2.427909875303e-03 
       2.138435191130e+00       2.014263728424e-03 
       2.309029198543e+00       1.669527672230e-03 
       2.493232376993e+00       1.382551931033e-03 
       2.692130394536e+00       1.143898711239e-03 
       2.906895533764e+00       9.456411706002e-04 
       3.138793596840e+00       7.810833319851e-04 
       3.389191365541e+00       6.446295910073e-04 
       3.659564656886e+00       5.315848100820e-04 
       3.951507021438e+00       4.380181464947e-04 
       4.266739135513e+00       3.606371406748e-04 
       4.607118942658e+00       2.966913694612e-04 
       4.974652604172e+00       2.438926990424e-04 
       5.371506323193e+00       2.003331840414e-04 
       5.800019112071e+00       1.644205908069e-04 
       6.262716578240e+00       1.348349778886e-04 
       6.762325809881e+00       1.104805885289e-04 
       7.301791449077e+00       9.044513768399e-05 
       7.884293047211e+00       7.397415663957e-05 
       8.513263804891e+00       6.044330152751e-05 
       9.192410806865e+00       4.933504327335e-05 
       9.925736871166e+00       4.022147131025e-05 
       1.071756414128e+01       3.274996016629e-05 
       1.157255956041e+01       2.662798950312e-05 
       1.249576237789e+01       2.161542329301e-05 
       1.349261385000e+01       1.751410045963e-05 
       1.456898931011e+01       1.416116408215e-05 
       1.573123279727e+01       1.142166824338e-05 
       1.698619444729e+01       9.185583710936e-06 
       1.834127086665e+01       7.361844542516e-06 
       1.980444872733e+01       5.876195526212e-06 
       2.138435183937e+01       4.667381116979e-06 
       2.309029197863e+01       3.685360866108e-06 
       2.493232376942e+01       2.889095374872e-06 
       2.692130394533e+01       2.245056783811e-06 
       2.906895533764e+01       1.725852618378e-06 
       3.138793596840e+01       1.309138868847e-06 
       3.389191365541e+01       9.766989474124e-07 
       3.659564656886e+01       7.136803592188e-07 
       3.951507021438e+01       5.079762146583e-07 
       4.266739135513e+01       3.496361071196e-07 
       4.607118942658e+01       2.304190624956e-07 
       4.974652604172e+01       1.433962400867e-07 
       5.371506323193e+01       8.256153947801e-08 
       5.800019112071e+01       4.258745493137e-08 
       6.262716578240e+01       1.860087785180e-08 
       6.762325809881e+01       6.111934841580e-09 
