# Matter power spectrum P(k) at redshift z=0
# for k=1.04775e-05 to 66.1767 h/Mpc,
# number of wavenumbers equal to 130
#    1:k (h/Mpc)              2:P (Mpc/h)^3        
       1.047750691046e-05       5.020964811307e+01 
       1.319039970183e-05       6.270562594778e+01 
       1.660572937635e-05       7.831147247912e+01 
       2.090537469327e-05       9.780108069296e+01 
       2.631830744443e-05       1.221408203809e+02 
       3.313278603720e-05       1.525374501932e+02 
       4.171170630578e-05       1.904975994010e+02 
       5.251192703764e-05       2.379022224249e+02 
       6.610859936996e-05       2.970989227881e+02 
       8.322579568497e-05       3.710167318946e+02 
       1.047750691046e-04       4.633080766742e+02 
       1.319039970183e-04       5.785234129340e+02 
       1.660572937635e-04       7.223242666092e+02 
       2.090537469327e-04       9.017396271824e+02 
       2.631830744443e-04       1.125468123750e+03 
       3.313278603720e-04       1.404223053681e+03 
       4.171170630578e-04       1.751108028790e+03 
       5.251192703764e-04       2.181998448133e+03 
       6.610859936996e-04       2.715889983592e+03 
       8.322579568497e-04       3.375152337134e+03 
       1.047750691046e-03       4.185552174308e+03 
       1.319039970183e-03       5.175742735977e+03 
       1.660572937635e-03       6.376123051777e+03 
       2.090537469327e-03       7.815671868415e+03 
       2.631830744443e-03       9.517783069112e+03 
       3.313278603720e-03       1.149357460344e+04 
       4.171170630578e-03       1.373266013187e+04 
       5.251192703764e-03       1.619063614559e+04 
       6.610859936996e-03       1.877460423451e+04 
       8.322579568497e-03       2.132607231706e+04 
       1.047750691046e-02       2.360548349353e+04 
       1.319039970183e-02       2.528218848365e+04 
       1.660572937633e-02       2.595027872574e+04 
       2.090537453514e-02       2.520933809313e+04 
       2.631818545635e-02       2.287034697860e+04 
       3.311571692125e-02       1.928627228298e+04 
       4.113809243311e-02       1.568422992528e+04 
       4.792590854610e-02       1.361064617012e+04 
       5.284436902701e-02       1.259128130977e+04 
       5.689644391095e-02       1.195551214073e+04 
       6.051252627066e-02       1.147547479628e+04 
       6.388413457411e-02       1.105589790315e+04 
       6.711249296401e-02       1.064898572870e+04 
       7.025823437965e-02       1.022929890390e+04 
       7.336115587705e-02       9.784514179956e+03 
       7.644928796912e-02       9.311641446685e+03 
       7.954353299775e-02       8.814524615710e+03 
       8.266024078725e-02       8.302115334542e+03 
       8.581273398637e-02       7.786946686783e+03 
       8.901225918437e-02       7.283164966031e+03 
       9.226860540985e-02       6.805163838518e+03 
       9.559052048996e-02       6.365637607875e+03 
       9.898599946599e-02       5.974391650418e+03 
       1.024624891378e-01       5.637312763284e+03 
       1.060270359164e-01       5.355758084462e+03 
       1.096863943056e-01       5.126238674750e+03 
       1.134471073830e-01       4.940481350196e+03 
       1.173155669539e-01       4.786164270119e+03 
       1.212980586983e-01       4.647932038139e+03 
       1.254007961065e-01       4.509144278114e+03 
       1.296299459934e-01       4.354559898030e+03 
       1.339916477160e-01       4.173204595050e+03 
       1.384920277736e-01       3.961164284195e+03 
       1.431372111762e-01       3.722684695776e+03 
       1.479333307714e-01       3.469547208083e+03 
       1.528865355934e-01       3.218346102106e+03 
       1.580029992204e-01       2.986300645830e+03 
       1.632889290723e-01       2.786965435162e+03 
       1.687505775527e-01       2.626829934628e+03 
       1.743942559171e-01       2.503761462095e+03 
       1.802263517371e-01       2.407345053710e+03 
       1.862533508214e-01       2.322258110679e+03 
       1.924818644494e-01       2.231549454983e+03 
       1.989186627765e-01       2.122197899314e+03 
       2.055707152847e-01       1.992025967864e+03 
       2.124452391818e-01       1.850324893648e+03 
       2.195497567139e-01       1.712185786252e+03 
       2.268921624510e-01       1.590990957904e+03 
       2.344808017550e-01       1.493669931895e+03 
       2.423245618548e-01       1.418311295328e+03 
       2.504329772620e-01       1.354469078531e+03 
       2.588163516754e-01       1.288934414046e+03 
       2.674858990930e-01       1.213938757071e+03 
       2.764539076010e-01       1.130692248805e+03 
       2.857339303080e-01       1.048102551826e+03 
       2.953410092148e-01       9.761826910215e+02 
       3.052919395542e-01       9.178104936118e+02 
       3.156055844677e-01       8.678983149088e+02 
       3.263032530092e-01       8.185277206343e+02 
       3.374091587054e-01       7.651486079746e+02 
       3.489509817175e-01       7.106701140570e+02 
       3.609605657343e-01       6.607871813766e+02 
       3.734747921333e-01       6.180889419711e+02 
       3.865366902904e-01       5.793110311149e+02 
       4.001968667448e-01       5.403918108312e+02 
       4.145153713076e-01       5.011515387644e+02 
       4.295641718077e-01       4.644995045412e+02 
       4.454304922144e-01       4.314089202586e+02 
       4.622214006969e-01       4.001133164865e+02 
       4.800702491654e-01       3.690885955683e+02 
       4.991459272112e-01       3.394760593797e+02 
       5.196665217302e-01       3.119865922592e+02 
       5.419201087032e-01       2.852470263139e+02 
       5.662975451962e-01       2.593307830547e+02 
       5.933463737275e-01       2.345474476485e+02 
       6.238638458458e-01       2.102308606435e+02 
       6.590669257916e-01       1.864337250021e+02 
       7.009246080454e-01       1.627252768257e+02 
       7.528593308799e-01       1.388188890333e+02 
       8.213469537518e-01       1.141882940634e+02 
       9.196980813302e-01       8.835921680388e+01 
       1.075112183810e+00       6.172623719116e+01 
       1.322697471132e+00       3.804281008400e+01 
       1.662328205042e+00       2.209801849167e+01 
       2.092692408506e+00       1.266922570609e+01 
       2.634543445090e+00       7.203359101196e+00 
       3.316693691389e+00       4.065127512275e+00 
       4.175469971226e+00       2.278617990435e+00 
       5.256605252960e+00       1.269355051258e+00 
       6.617673932723e+00       7.031361701440e-01 
       8.331157880872e+00       3.874807784171e-01 
       1.048830636590e+01       2.125113644562e-01 
       1.320399541071e+01       1.160376459180e-01 
       1.662284535976e+01       6.309930624974e-02 
       2.092692243973e+01       3.417952056926e-02 
       2.634543445002e+01       1.844607134349e-02 
       3.316693691389e+01       9.919183445819e-03 
       4.175469971226e+01       5.314590995633e-03 
       5.256605252960e+01       2.836685844088e-03 
       6.617673932723e+01       1.507685877907e-03 
