# Matter power spectrum P(k) at redshift z=99
# for k=1.04775e-05 to 66.1767 h/Mpc,
# number of wavenumbers equal to 130
#    1:k (h/Mpc)              2:P (Mpc/h)^3        
       1.047750691046e-05       7.261927680862e-03 
       1.319039970183e-05       9.069258201849e-03 
       1.660572937635e-05       1.132639106725e-02 
       2.090537469327e-05       1.414527123399e-02 
       2.631830744443e-05       1.766569584058e-02 
       3.313278603720e-05       2.206225515942e-02 
       4.171170630578e-05       2.755297766277e-02 
       5.251192703764e-05       3.441013522947e-02 
       6.610859936996e-05       4.297372172778e-02 
       8.322579568497e-05       5.366826852944e-02 
       1.047750691046e-04       6.702379872775e-02 
       1.319039970183e-04       8.370193441286e-02 
       1.660572937635e-04       1.045283355384e-01 
       2.090537469327e-04       1.305329134104e-01 
       2.631830744443e-04       1.629994506606e-01 
       3.313278603720e-04       2.035264004601e-01 
       4.171170630578e-04       2.541004744243e-01 
       5.251192703764e-04       3.171839528557e-01 
       6.610859936996e-04       3.958147256514e-01 
       8.322579568497e-04       4.937136006278e-01 
       1.047750691046e-03       6.153841636042e-01 
       1.319039970183e-03       7.661720592739e-01 
       1.660572937635e-03       9.522588016472e-01 
       2.090537469327e-03       1.180312991699e+00 
       2.631830744443e-03       1.456802684686e+00 
       3.313278603720e-03       1.786503854041e+00 
       4.171170630578e-03       2.169896195794e+00 
       5.251192703764e-03       2.599430630719e+00 
       6.610859936996e-03       3.055668715614e+00 
       8.322579568497e-03       3.505725598747e+00 
       1.047750691046e-02       3.905491223789e+00 
       1.319039970183e-02       4.200915267857e+00 
       1.660572937633e-02       4.325062062388e+00 
       2.090537453514e-02       4.210200392339e+00 
       2.631818545635e-02       3.825152703196e+00 
       3.311571692125e-02       3.229065151569e+00 
       4.113809243311e-02       2.627723382501e+00 
       4.792590854610e-02       2.280793402636e+00 
       5.284436902701e-02       2.110088869939e+00 
       5.689644391095e-02       2.003537999580e+00 
       6.051252627066e-02       1.923058846922e+00 
       6.388413457411e-02       1.852730789099e+00 
       6.711249296401e-02       1.784564361182e+00 
       7.025823437965e-02       1.714274618030e+00 
       7.336115587705e-02       1.639816129315e+00 
       7.644928796912e-02       1.560662201768e+00 
       7.954353299775e-02       1.477457033344e+00 
       8.266024078725e-02       1.391697960121e+00 
       8.581273398637e-02       1.305462959431e+00 
       8.901225918437e-02       1.221127355823e+00 
       9.226860540985e-02       1.141081595070e+00 
       9.559052048996e-02       1.067450273443e+00 
       9.898599946599e-02       1.001889097635e+00 
       1.024624891378e-01       9.453829398360e-01 
       1.060270359164e-01       8.981501120805e-01 
       1.096863943056e-01       8.596141242869e-01 
       1.134471073830e-01       8.284044571859e-01 
       1.173155669539e-01       8.024685143017e-01 
       1.212980586983e-01       7.792283725470e-01 
       1.254007961065e-01       7.559164343277e-01 
       1.296299459934e-01       7.299811337635e-01 
       1.339916477160e-01       6.995915999417e-01 
       1.384920277736e-01       6.640784212109e-01 
       1.431372111762e-01       6.241466305011e-01 
       1.479333307714e-01       5.817629585741e-01 
       1.528865355934e-01       5.396935716644e-01 
       1.580029992204e-01       5.008144617369e-01 
       1.632889290723e-01       4.673988394347e-01 
       1.687505775527e-01       4.405343521702e-01 
       1.743942559171e-01       4.198656661714e-01 
       1.802263517371e-01       4.036601668914e-01 
       1.862533508214e-01       3.893599427619e-01 
       1.924818644494e-01       3.741341656238e-01 
       1.989186627765e-01       3.558019766041e-01 
       2.055707152847e-01       3.340004487549e-01 
       2.124452391818e-01       3.102655246663e-01 
       2.195497567139e-01       2.871232615791e-01 
       2.268921624510e-01       2.668079513740e-01 
       2.344808017550e-01       2.504836079488e-01 
       2.423245618548e-01       2.378333983166e-01 
       2.504329772620e-01       2.271118428293e-01 
       2.588163516754e-01       2.161186656023e-01 
       2.674858990930e-01       2.035456602808e-01 
       2.764539076010e-01       1.895984051800e-01 
       2.857339303080e-01       1.757571120069e-01 
       2.953410092148e-01       1.636998065983e-01 
       3.052919395542e-01       1.539060027827e-01 
       3.156055844677e-01       1.455313869611e-01 
       3.263032530092e-01       1.372508858346e-01 
       3.374091587054e-01       1.283022646548e-01 
       3.489509817175e-01       1.191712385803e-01 
       3.609605657343e-01       1.108073673182e-01 
       3.734747921333e-01       1.036450876220e-01 
       3.865366902904e-01       9.714151673247e-02 
       4.001968667448e-01       9.061558383466e-02 
       4.145153713076e-01       8.403686090404e-02 
       4.295641718077e-01       7.789151519526e-02 
       4.454304922144e-01       7.234179299917e-02 
       4.622214006969e-01       6.709383829361e-02 
       4.800702491654e-01       6.189185675946e-02 
       4.991459272112e-01       5.692637536101e-02 
       5.196665217302e-01       5.231627487423e-02 
       5.419201087032e-01       4.783252753423e-02 
       5.662975451962e-01       4.348698007739e-02 
       5.933463737275e-01       3.933097315042e-02 
       6.238638458458e-01       3.525335283899e-02 
       6.590669257916e-01       3.126292425859e-02 
       7.009246080454e-01       2.728733877704e-02 
       7.528593308799e-01       2.327848996649e-02 
       8.213469537518e-01       1.914823659451e-02 
       9.196980813302e-01       1.481703569973e-02 
       1.075112183810e+00       1.035094592260e-02 
       1.322697471132e+00       6.379439426748e-03 
       1.662328205042e+00       3.705662258071e-03 
       2.092692408506e+00       2.124532465733e-03 
       2.634543445090e+00       1.207955456777e-03 
       3.316693691389e+00       6.817062693756e-04 
       4.175469971226e+00       3.821166864059e-04 
       5.256605252960e+00       2.128702836050e-04 
       6.617673932723e+00       1.179177461843e-04 
       8.331157880872e+00       6.498259533546e-05 
       1.048830636590e+01       3.564068669090e-05 
       1.320399541071e+01       1.946164088871e-05 
       1.662284535976e+01       1.058320762882e-05 
       2.092692243973e+01       5.732863471633e-06 
       2.634543445002e+01       3.093629811498e-06 
       3.316693691389e+01       1.662989501792e-06 
       4.175469971226e+01       8.900629195021e-07 
       5.256605252960e+01       4.737118836878e-07 
       6.617673932723e+01       2.499747853171e-07 
