# Matter power spectrum P(k) at redshift z=99
# for k=1.04775e-05 to 66.1767 h/Mpc,
# number of wavenumbers equal to 130
#    1:k (h/Mpc)              2:P (Mpc/h)^3        
       1.047750691046e-05       7.261927680862e-03 
       1.319039970183e-05       9.069258201849e-03 
       1.660572937635e-05       1.132639106725e-02 
       2.090537469327e-05       1.414527123399e-02 
       2.631830744443e-05       1.766569584058e-02 
       3.313278603720e-05       2.206225515942e-02 
       4.171170630578e-05       2.755297766277e-02 
       5.251192703764e-05       3.441013522947e-02 
       6.610859936996e-05       4.297372172778e-02 
       8.322579568497e-05       5.366826852944e-02 
       1.047750691046e-04       6.702379872775e-02 
       1.319039970183e-04       8.370193441286e-02 
       1.660572937635e-04       1.045283355384e-01 
       2.090537469327e-04       1.305329134104e-01 
       2.631830744443e-04       1.629994506605e-01 
       3.313278603720e-04       2.035264004601e-01 
       4.171170630578e-04       2.541004744243e-01 
       5.251192703764e-04       3.171839528557e-01 
       6.610859936996e-04       3.958147256513e-01 
       8.322579568497e-04       4.937136006272e-01 
       1.047750691046e-03       6.153841636041e-01 
       1.319039970183e-03       7.661720592860e-01 
       1.660572937635e-03       9.522588016479e-01 
       2.090537469327e-03       1.180312991700e+00 
       2.631830744443e-03       1.456802684686e+00 
       3.313278603720e-03       1.786503854039e+00 
       4.171170630578e-03       2.169896195105e+00 
       5.251192703764e-03       2.599430630720e+00 
       6.610859936996e-03       3.055668704668e+00 
       8.322579568497e-03       3.505725598528e+00 
       1.047750691046e-02       3.905490470088e+00 
       1.319039970183e-02       4.200915455172e+00 
       1.660572937633e-02       4.325063068810e+00 
       2.090537453514e-02       4.210203807585e+00 
       2.631818545635e-02       3.825152425721e+00 
       3.311571692125e-02       3.229063676386e+00 
       4.113809243311e-02       2.627727869830e+00 
       4.792590854610e-02       2.280792530131e+00 
       5.284436902701e-02       2.110082313491e+00 
       5.689644391095e-02       2.003538173226e+00 
       6.051252627066e-02       1.923057639643e+00 
       6.388413457411e-02       1.852737170763e+00 
       6.711249296401e-02       1.784566165890e+00 
       7.025823437965e-02       1.714278796485e+00 
       7.336115587705e-02       1.639812668515e+00 
       7.644928796912e-02       1.560660214368e+00 
       7.954353299775e-02       1.477454467277e+00 
       8.266024078725e-02       1.391699611709e+00 
       8.581273398637e-02       1.305457622138e+00 
       8.901225918437e-02       1.221127682941e+00 
       9.226860540985e-02       1.141079020906e+00 
       9.559052048996e-02       1.067450494873e+00 
       9.898599946599e-02       1.001890258991e+00 
       1.024624891378e-01       9.453789394782e-01 
       1.060270359164e-01       8.981511881633e-01 
       1.096863943056e-01       8.596148200046e-01 
       1.134471073830e-01       8.284054438351e-01 
       1.173155669539e-01       8.024662540859e-01 
       1.212980586983e-01       7.792300637396e-01 
       1.254007961065e-01       7.559178663143e-01 
       1.296299459934e-01       7.299817836420e-01 
       1.339916477160e-01       6.995937978284e-01 
       1.384920277736e-01       6.640789017071e-01 
       1.431372111762e-01       6.241461305059e-01 
       1.479333307714e-01       5.817641272162e-01 
       1.528865355934e-01       5.396935419983e-01 
       1.580029992204e-01       5.008145653100e-01 
       1.632889290723e-01       4.673991917814e-01 
       1.687505775527e-01       4.405347269247e-01 
       1.743942559171e-01       4.198663098811e-01 
       1.802263517371e-01       4.036597149631e-01 
       1.862533508214e-01       3.893605086561e-01 
       1.924818644494e-01       3.741361965628e-01 
       1.989186627765e-01       3.558020102327e-01 
       2.055707152847e-01       3.339997086001e-01 
       2.124452391818e-01       3.102657378753e-01 
       2.195497567139e-01       2.871228894104e-01 
       2.268921624510e-01       2.668073289922e-01 
       2.344808017550e-01       2.504828831319e-01 
       2.423245618548e-01       2.378338193072e-01 
       2.504329772620e-01       2.271120837523e-01 
       2.588163516754e-01       2.161172495386e-01 
       2.674858990930e-01       2.035456672654e-01 
       2.764539076010e-01       1.895986739866e-01 
       2.857339303080e-01       1.757571871250e-01 
       2.953410092148e-01       1.636996201511e-01 
       3.052919395542e-01       1.539060146847e-01 
       3.156055844677e-01       1.455308211246e-01 
       3.263032530092e-01       1.372507135812e-01 
       3.374091587054e-01       1.283022658739e-01 
       3.489509817175e-01       1.191709634134e-01 
       3.609605657343e-01       1.108072196731e-01 
       3.734747921333e-01       1.036449092912e-01 
       3.865366902904e-01       9.714114603205e-02 
       4.001968667448e-01       9.061571977370e-02 
       4.145153713076e-01       8.403688686505e-02 
       4.295641718077e-01       7.789119469137e-02 
       4.454304922144e-01       7.234177962474e-02 
       4.622214006969e-01       6.709382753254e-02 
       4.800702491654e-01       6.189190463886e-02 
       4.991459272112e-01       5.692631345771e-02 
       5.196665217302e-01       5.231624195979e-02 
       5.419201087032e-01       4.783255084663e-02 
       5.662975451962e-01       4.348688581815e-02 
       5.933463737275e-01       3.933116114347e-02 
       6.238638458458e-01       3.525334130227e-02 
       6.590669257916e-01       3.126280658161e-02 
       7.009246080454e-01       2.728731795750e-02 
       7.528593308799e-01       2.327855374738e-02 
       8.213469537518e-01       1.914823167102e-02 
       9.196980813302e-01       1.481703675555e-02 
       1.075112183810e+00       1.035093083489e-02 
       1.322697471132e+00       6.379443219882e-03 
       1.662328205042e+00       3.705662960803e-03 
       2.092692408506e+00       2.124538803061e-03 
       2.634543445090e+00       1.207959109608e-03 
       3.316693691389e+00       6.817094729967e-04 
       4.175469971226e+00       3.821168578232e-04 
       5.256605252960e+00       2.128723607736e-04 
       6.617673932723e+00       1.179190945145e-04 
       8.331157880872e+00       6.498414210384e-05 
       1.048830636590e+01       3.564232636594e-05 
       1.320399541071e+01       1.946311342637e-05 
       1.662284535976e+01       1.058496617350e-05 
       2.092692243973e+01       5.734651340852e-06 
       2.634543445002e+01       3.095655912083e-06 
       3.316693691389e+01       1.665244251383e-06 
       4.175469971226e+01       8.926681108733e-07 
       5.256605252960e+01       4.768003603229e-07 
       6.617673932723e+01       2.536581862094e-07 
