# Matter power spectrum P(k) at redshift z=0
# for k=1.04775e-05 to 67.6233 h/Mpc,
# number of wavenumbers equal to 246
#    1:k (h/Mpc)              2:P (Mpc/h)^3        
       1.047750691046e-05       5.020964811309e+01 
       1.131335172503e-05       5.407050701928e+01 
       1.221587619537e-05       5.822819068989e+01 
       1.319039970183e-05       6.270562594775e+01 
       1.424266597921e-05       6.752732240880e+01 
       1.537887696968e-05       7.271977206173e+01 
       1.660572937635e-05       7.831147247912e+01 
       1.793045413292e-05       8.433311821988e+01 
       1.936085902198e-05       9.081778249833e+01 
       2.090537469327e-05       9.780108069296e+01 
       2.257310435294e-05       1.053213197893e+02 
       2.437387741694e-05       1.134197377890e+02 
       2.631830744443e-05       1.221408203810e+02 
       2.841785469300e-05       1.315324642467e+02 
       3.068489366414e-05       1.416462094881e+02 
       3.313278603720e-05       1.525374501932e+02 
       3.577595942169e-05       1.642660688414e+02 
       3.862999239199e-05       1.768963506307e+02 
       4.171170630578e-05       1.904975994010e+02 
       4.503926444729e-05       2.051444491974e+02 
       4.863227907969e-05       2.209171465548e+02 
       5.251192703764e-05       2.379022224247e+02 
       5.670107454120e-05       2.561927927551e+02 
       6.122441196689e-05       2.758890444040e+02 
       6.610859936996e-05       2.970989227882e+02 
       7.138242361596e-05       3.199385560801e+02 
       7.707696804727e-05       3.445329783677e+02 
       8.322579568497e-05       3.710167318944e+02 
       8.986514704559e-05       3.995346444201e+02 
       9.703415373875e-05       4.302425407381e+02 
       1.047750691046e-04       4.633080766739e+02 
       1.131335172503e-04       4.989116271561e+02 
       1.221587619537e-04       5.372471950925e+02 
       1.319039970183e-04       5.785234129333e+02 
       1.424266597921e-04       6.229645936039e+02 
       1.537887696968e-04       6.708118490397e+02 
       1.660572937635e-04       7.223242666081e+02 
       1.793045413292e-04       7.777801559092e+02 
       1.936085902198e-04       8.374783614124e+02 
       2.090537469327e-04       9.017396271802e+02 
       2.257310435294e-04       9.709080268014e+02 
       2.437387741694e-04       1.045352449490e+03 
       2.631830744443e-04       1.125468123746e+03 
       2.841785469300e-04       1.211678180489e+03 
       3.068489366414e-04       1.304435250143e+03 
       3.313278603720e-04       1.404223053673e+03 
       3.577595942169e-04       1.511558014606e+03 
       3.862999239199e-04       1.626990837694e+03 
       4.171170630578e-04       1.751108028774e+03 
       4.503926444729e-04       1.884533382851e+03 
       4.863227907969e-04       2.027929378085e+03 
       5.251192703764e-04       2.181998448099e+03 
       5.670107454121e-04       2.347484102713e+03 
       6.122441196689e-04       2.525171871311e+03 
       6.610859936996e-04       2.715889983526e+03 
       7.138242361596e-04       2.920509688293e+03 
       7.707696804727e-04       3.139945100175e+03 
       8.322579568497e-04       3.375152337453e+03 
       8.986514704559e-04       3.627127830977e+03 
       9.703415373875e-04       3.896905452930e+03 
       1.047750691046e-03       4.185552174011e+03 
       1.131335172503e-03       4.494162430049e+03 
       1.221587619537e-03       4.823850706088e+03 
       1.319039970183e-03       5.175742738159e+03 
       1.424266597921e-03       5.551019596274e+03 
       1.537887696968e-03       5.950788339704e+03 
       1.660572937635e-03       6.376123050639e+03 
       1.793045413292e-03       6.828073900045e+03 
       1.936085902198e-03       7.307625379257e+03 
       2.090537469327e-03       7.815671863989e+03 
       2.257310435294e-03       8.352990372857e+03 
       2.437387741694e-03       8.920211060586e+03 
       2.631830744443e-03       9.517783064312e+03 
       2.841785469300e-03       1.014593703826e+04 
       3.068489366414e-03       1.080464502021e+04 
       3.313278603720e-03       1.149357459365e+04 
       3.577595942169e-03       1.221203620489e+04 
       3.862999239199e-03       1.295892537893e+04 
       4.171170630578e-03       1.373266009594e+04 
       4.503926444729e-03       1.453111833174e+04 
       4.863227907969e-03       1.535154896689e+04 
       5.251192703764e-03       1.619063061754e+04 
       5.670107454120e-03       1.704431196193e+04 
       6.122441196689e-03       1.790756202791e+04 
       6.610859936996e-03       1.877460542921e+04 
       7.138242361596e-03       1.963872855426e+04 
       7.707696804727e-03       2.049213010049e+04 
       8.322579568496e-03       2.132610531066e+04 
       8.986514704559e-03       2.213054599586e+04 
       9.703415373875e-03       2.289443291436e+04 
       1.047750691046e-02       2.360545581025e+04 
       1.131335172503e-02       2.425019471509e+04 
       1.221587619537e-02       2.481414808763e+04 
       1.319039970183e-02       2.528217140875e+04 
       1.424266597920e-02       2.563798405590e+04 
       1.537887696964e-02       2.586590219146e+04 
       1.660572937560e-02       2.594996594033e+04 
       1.793045412207e-02       2.587607344641e+04 
       1.936085889642e-02       2.563225114741e+04 
       2.090537351881e-02       2.520926316025e+04 
       2.257309534705e-02       2.460432547270e+04 
       2.437382002240e-02       2.382076255831e+04 
       2.631799943729e-02       2.287022517506e+04 
       2.841644544598e-02       2.177437993128e+04 
       3.067933354524e-02       2.056535613038e+04 
       3.311368469821e-02       1.928716237583e+04 
       3.571840442514e-02       1.799390258932e+04 
       3.847720347390e-02       1.674673533994e+04 
       4.135335537314e-02       1.560450087266e+04 
       4.429361666563e-02       1.461028104163e+04 
       4.724366437916e-02       1.378046488162e+04 
       5.016480834039e-02       1.310498169647e+04 
       5.303989618930e-02       1.255713565391e+04 
       5.586870668205e-02       1.210425169453e+04 
       5.866042679206e-02       1.171435947689e+04 
       6.142798931504e-02       1.136015217411e+04 
       6.418496438662e-02       1.101859639441e+04 
       6.694418832236e-02       1.067066132692e+04 
       6.971731104453e-02       1.030362849562e+04 
       7.251476154108e-02       9.909051448462e+03 
       7.534587669814e-02       9.483590685975e+03 
       7.821907664495e-02       9.029300877848e+03 
       8.114203771084e-02       8.552103896453e+03 
       8.412184533139e-02       8.061927555712e+03 
       8.716512277352e-02       7.570748514826e+03 
       9.027813693913e-02       7.092452704766e+03 
       9.346688429613e-02       6.640506870945e+03 
       9.673716026122e-02       6.226714231485e+03 
       1.000946150608e-01       5.859918249439e+03 
       1.035447986307e-01       5.545240231561e+03 
       1.070931966524e-01       5.283128545634e+03 
       1.107452594180e-01       5.069440625032e+03 
       1.145064248899e-01       4.895250359586e+03 
       1.183821370656e-01       4.747821059600e+03 
       1.223778605591e-01       4.611707191618e+03 
       1.264990921707e-01       4.470594207322e+03 
       1.307513701078e-01       4.310254050086e+03 
       1.351402814485e-01       4.121370032139e+03 
       1.396714683894e-01       3.902033852151e+03 
       1.443506337875e-01       3.658628488125e+03 
       1.491835464900e-01       3.404443367814e+03 
       1.541760469368e-01       3.156613502831e+03 
       1.593340535209e-01       2.931898315711e+03 
       1.646635701934e-01       2.742331421638e+03 
       1.701706958081e-01       2.592208281606e+03 
       1.758616357070e-01       2.477182713739e+03 
       1.817427160581e-01       2.385128086224e+03 
       1.878204014651e-01       2.300312932999e+03 
       1.941013163855e-01       2.205743026510e+03 
       2.005922709060e-01       2.090804633672e+03 
       2.073002914514e-01       1.956427064380e+03 
       2.142326570343e-01       1.814138757224e+03 
       2.213969417044e-01       1.679232182840e+03 
       2.288010639201e-01       1.563806374560e+03 
       2.364533436625e-01       1.472629668148e+03 
       2.443625682390e-01       1.401467709286e+03 
       2.525380678946e-01       1.338375703576e+03 
       2.609898025770e-01       1.270853270963e+03 
       2.697284614969e-01       1.193313154804e+03 
       2.787655775073e-01       1.109282544930e+03 
       2.881136588192e-01       1.028713271645e+03 
       2.977863412019e-01       9.604271382225e+02 
       3.077985646248e-01       9.049671415752e+02 
       3.181667793367e-01       8.560839978656e+02 
       3.289091877084e-01       8.061250735912e+02 
       3.400460298905e-01       7.523264501271e+02 
       3.515999235695e-01       6.988547497152e+02 
       3.635962710278e-01       6.509972493905e+02 
       3.760637505499e-01       6.100579245922e+02 
       3.890349143014e-01       5.720640420595e+02 
       4.025469215929e-01       5.337119815163e+02 
       4.166424455447e-01       4.955574890037e+02 
       4.313708034899e-01       4.603982660494e+02 
       4.467893781976e-01       4.287030373123e+02 
       4.629654198623e-01       3.987000703370e+02 
       4.799783500912e-01       3.691653318648e+02 
       4.979227318246e-01       3.411643514088e+02 
       5.169121269689e-01       3.154027924090e+02 
       5.370841403262e-01       2.907550157694e+02 
       5.586070463286e-01       2.670239893462e+02 
       5.816885093582e-01       2.447242798184e+02 
       6.065870143577e-01       2.234833049698e+02 
       6.336266466978e-01       2.031240109913e+02 
       6.632156057925e-01       1.837899427650e+02 
       6.958678637575e-01       1.652628563860e+02 
       7.322247983784e-01       1.476013287291e+02 
       7.730680193171e-01       1.307365506569e+02 
       8.193049551574e-01       1.147304132938e+02 
       8.718988013754e-01       9.965789261836e+01 
       9.317218028590e-01       8.566796884497e+01 
       9.993660906273e-01       7.293978480482e+01 
       1.075037109879e+00       6.161528370293e+01 
       1.158653485387e+00       5.175213940716e+01 
       1.250099156961e+00       4.330632599443e+01 
       1.349432400897e+00       3.614826445529e+01 
       1.456947456991e+00       3.011890191025e+01 
       1.573135110893e+00       2.505685627703e+01 
       1.698621895119e+00       2.081519541801e+01 
       1.834127512423e+00       1.726552144386e+01 
       1.980444933977e+00       1.429820521761e+01 
       2.138435191130e+00       1.181998927594e+01 
       2.309029198543e+00       9.751952426315e+00 
       2.493232376993e+00       8.027559763008e+00 
       2.692130394536e+00       6.590561699687e+00 
       2.906895533764e+00       5.393619464368e+00 
       3.138793596840e+00       4.397094816109e+00 
       3.389191365541e+00       3.567528994143e+00 
       3.659564656886e+00       2.877308802575e+00 
       3.951507021438e+00       2.303168992402e+00 
       4.266739135513e+00       1.825931744733e+00 
       4.607118942658e+00       1.429712551632e+00 
       4.974652604172e+00       1.101534323496e+00 
       5.371506323193e+00       8.308160400376e-01 
       5.800019112071e+00       6.091081434749e-01 
       6.262716578240e+00       4.296442011499e-01 
       6.762325809881e+00       2.871279463652e-01 
       7.301791449077e+00       1.773666724761e-01 
       7.884293047211e+00       9.691899006348e-02 
       8.513263804891e+00       4.273167680989e-02 
       9.192410806865e+00       1.170909086129e-02 
       9.925736871166e+00       2.967950260262e-04 
       1.071756414128e+01       4.126702108581e-03 
       1.157255956041e+01       1.787018988961e-02 
       1.249576237789e+01       3.543343258163e-02 
       1.349261385000e+01       5.062564614153e-02 
       1.456898931011e+01       5.831509085779e-02 
       1.573123279727e+01       5.581483697810e-02 
       1.698619444729e+01       4.395090485146e-02 
       1.834127086665e+01       2.705804003324e-02 
       1.980444872733e+01       1.134570595327e-02 
       2.138435183937e+01       1.953128665224e-03 
       2.309029197863e+01       1.503590348587e-04 
       2.493232376942e+01       2.802764017908e-03 
       2.692130394533e+01       5.044131077788e-03 
       2.906895533764e+01       4.290413019780e-03 
       3.138793596840e+01       1.807011274251e-03 
       3.389191365541e+01       1.913542673325e-04 
       3.659564656886e+01       6.048664571459e-05 
       3.951507021438e+01       2.213943309926e-04 
       4.266739135513e+01       8.827394911526e-05 
       4.607118942658e+01       4.074267401624e-07 
       4.974652604172e+01       6.747148726708e-06 
       5.371506323193e+01       1.653216579993e-07 
       5.800019112071e+01       1.023031978795e-05 
       6.262716578240e+01       1.861073693249e-06 
       6.762325809881e+01       3.047280725941e-06 
