# Matter power spectrum P(k) at redshift z=99
# for k=1.04775e-05 to 66.1767 h/Mpc,
# number of wavenumbers equal to 130
#    1:k (h/Mpc)              2:P (Mpc/h)^3        
       1.047750691046e-05       7.261927681019e-03 
       1.319039970183e-05       9.069258202045e-03 
       1.660572937635e-05       1.132639106750e-02 
       2.090537469327e-05       1.414527123430e-02 
       2.631830744443e-05       1.766569584096e-02 
       3.313278603720e-05       2.206225515990e-02 
       4.171170630578e-05       2.755297766336e-02 
       5.251192703764e-05       3.441013523022e-02 
       6.610859936996e-05       4.297372172870e-02 
       8.322579568497e-05       5.366826853060e-02 
       1.047750691046e-04       6.702379872919e-02 
       1.319039970183e-04       8.370193441466e-02 
       1.660572937635e-04       1.045283355406e-01 
       2.090537469327e-04       1.305329134132e-01 
       2.631830744443e-04       1.629994506640e-01 
       3.313278603720e-04       2.035264004643e-01 
       4.171170630578e-04       2.541004744294e-01 
       5.251192703764e-04       3.171839528618e-01 
       6.610859936996e-04       3.958147256583e-01 
       8.322579568497e-04       4.937136006343e-01 
       1.047750691046e-03       6.153841636114e-01 
       1.319039970183e-03       7.661720592884e-01 
       1.660572937635e-03       9.522588016326e-01 
       2.090537469327e-03       1.180312991669e+00 
       2.631830744443e-03       1.456802684601e+00 
       3.313278603720e-03       1.786503853843e+00 
       4.171170630578e-03       2.169896197651e+00 
       5.251192703764e-03       2.599430629816e+00 
       6.610859936996e-03       3.055668705308e+00 
       8.322579568497e-03       3.505725595087e+00 
       1.047750691046e-02       3.905490288822e+00 
       1.319039970183e-02       4.200915352463e+00 
       1.660572937633e-02       4.325064424155e+00 
       2.090537453514e-02       4.210204433937e+00 
       2.631818545635e-02       3.825158225527e+00 
       3.311571692125e-02       3.229064910537e+00 
       4.113809243311e-02       2.627721066874e+00 
       4.792590854610e-02       2.280791002963e+00 
       5.284436902701e-02       2.110085361328e+00 
       5.689644391095e-02       2.003536904305e+00 
       6.051252627066e-02       1.923055442700e+00 
       6.388413457411e-02       1.852733676328e+00 
       6.711249296401e-02       1.784561479715e+00 
       7.025823437965e-02       1.714273602008e+00 
       7.336115587705e-02       1.639816480513e+00 
       7.644928796912e-02       1.560662006862e+00 
       7.954353299775e-02       1.477460275658e+00 
       8.266024078725e-02       1.391699614569e+00 
       8.581273398637e-02       1.305460630434e+00 
       8.901225918437e-02       1.221127235509e+00 
       9.226860540985e-02       1.141082381229e+00 
       9.559052048996e-02       1.067451358194e+00 
       9.898599946599e-02       1.001888989371e+00 
       1.024624891378e-01       9.453831506931e-01 
       1.060270359164e-01       8.981496959339e-01 
       1.096863943056e-01       8.596135600450e-01 
       1.134471073830e-01       8.284053114352e-01 
       1.173155669539e-01       8.024676090715e-01 
       1.212980586983e-01       7.792305082256e-01 
       1.254007961065e-01       7.559190557317e-01 
       1.296299459934e-01       7.299826804960e-01 
       1.339916477160e-01       6.995941396685e-01 
       1.384920277736e-01       6.640791163027e-01 
       1.431372111762e-01       6.241478609260e-01 
       1.479333307714e-01       5.817650209891e-01 
       1.528865355934e-01       5.396898668976e-01 
       1.580029992204e-01       5.008126296701e-01 
       1.632889290723e-01       4.673983640263e-01 
       1.687505775527e-01       4.405325785412e-01 
       1.743942559171e-01       4.198649616939e-01 
       1.802263517371e-01       4.036588179731e-01 
       1.862533508214e-01       3.893614837234e-01 
       1.924818644494e-01       3.741381879403e-01 
       1.989186627765e-01       3.558063126579e-01 
       2.055707152847e-01       3.340027534556e-01 
       2.124452391818e-01       3.102642816690e-01 
       2.195497567139e-01       2.871217001069e-01 
       2.268921624510e-01       2.668068503001e-01 
       2.344808017550e-01       2.504819358317e-01 
       2.423245618548e-01       2.378322576800e-01 
       2.504329772620e-01       2.271105772912e-01 
       2.588163516754e-01       2.161187036392e-01 
       2.674858990930e-01       2.035467180561e-01 
       2.764539076010e-01       1.895966021343e-01 
       2.857339303080e-01       1.757556331035e-01 
       2.953410092148e-01       1.636982175396e-01 
       3.052919395542e-01       1.539052459659e-01 
       3.156055844677e-01       1.455297624908e-01 
       3.263032530092e-01       1.372491381756e-01 
       3.374091587054e-01       1.283005901212e-01 
       3.489509817175e-01       1.191698690322e-01 
       3.609605657343e-01       1.108059325699e-01 
       3.734747921333e-01       1.036437813730e-01 
       3.865366902904e-01       9.713992640053e-02 
       4.001968667448e-01       9.061402098748e-02 
       4.145153713076e-01       8.403541226426e-02 
       4.295641718077e-01       7.788973646618e-02 
       4.454304922144e-01       7.234006419373e-02 
       4.622214006969e-01       6.709226002414e-02 
       4.800702491654e-01       6.189026844829e-02 
       4.991459272112e-01       5.692470753494e-02 
       5.196665217302e-01       5.231457361943e-02 
       5.419201087032e-01       4.783097932589e-02 
       5.662975451962e-01       4.348534681789e-02 
       5.933463737275e-01       3.932941436640e-02 
       6.238638458458e-01       3.525167169458e-02 
       6.590669257916e-01       3.126123655245e-02 
       7.009246080454e-01       2.728559061994e-02 
       7.528593308799e-01       2.327681476227e-02 
       8.213469537518e-01       1.914649917723e-02 
       9.196980813302e-01       1.481534371773e-02 
       1.075112183810e+00       1.034911919805e-02 
       1.322697471132e+00       6.377669760917e-03 
       1.662328205042e+00       3.703846086203e-03 
       2.092692408506e+00       2.122723213604e-03 
       2.634543445090e+00       1.206172487404e-03 
       3.316693691389e+00       6.799547922900e-04 
       4.175469971226e+00       3.804184986280e-04 
       5.256605252960e+00       2.112279643998e-04 
       6.617673932723e+00       1.163402950916e-04 
       8.331157880872e+00       6.347045182375e-05 
       1.048830636590e+01       3.419334183523e-05 
       1.320399541071e+01       1.807901806772e-05 
       1.662284535976e+01       9.268388709207e-06 
       2.092692243973e+01       4.496949392319e-06 
       2.634543445002e+01       1.965069559061e-06 
       3.316693691389e+01       6.943290057894e-07 
       4.175469971226e+01       1.507449708855e-07 
       5.256605252960e+01       5.724649961050e-09 
       6.617673932723e+01       4.639533454582e-09 
