# Matter power spectrum P(k) at redshift z=0
# for k=1.04775e-05 to 67.6233 h/Mpc,
# number of wavenumbers equal to 246
#    1:k (h/Mpc)              2:P (Mpc/h)^3        
       1.047750691046e-05       5.020964811306e+01 
       1.131335172503e-05       5.407050701929e+01 
       1.221587619537e-05       5.822819068554e+01 
       1.319039970183e-05       6.270562594777e+01 
       1.424266597921e-05       6.752732240880e+01 
       1.537887696968e-05       7.271977206173e+01 
       1.660572937635e-05       7.831147247912e+01 
       1.793045413292e-05       8.433311821988e+01 
       1.936085902198e-05       9.081778249833e+01 
       2.090537469327e-05       9.780108069296e+01 
       2.257310435294e-05       1.053213197893e+02 
       2.437387741694e-05       1.134197377890e+02 
       2.631830744443e-05       1.221408203809e+02 
       2.841785469300e-05       1.315324642469e+02 
       3.068489366414e-05       1.416462094882e+02 
       3.313278603720e-05       1.525374501932e+02 
       3.577595942169e-05       1.642660688414e+02 
       3.862999239199e-05       1.768963506307e+02 
       4.171170630578e-05       1.904975994009e+02 
       4.503926444729e-05       2.051444491974e+02 
       4.863227907969e-05       2.209171465549e+02 
       5.251192703764e-05       2.379022224249e+02 
       5.670107454120e-05       2.561927927692e+02 
       6.122441196689e-05       2.758890444040e+02 
       6.610859936996e-05       2.970989227882e+02 
       7.138242361596e-05       3.199385560802e+02 
       7.707696804727e-05       3.445329783680e+02 
       8.322579568497e-05       3.710167318946e+02 
       8.986514704559e-05       3.995346444203e+02 
       9.703415373875e-05       4.302425407383e+02 
       1.047750691046e-04       4.633080766742e+02 
       1.131335172503e-04       4.989116271565e+02 
       1.221587619537e-04       5.372471950930e+02 
       1.319039970183e-04       5.785234129334e+02 
       1.424266597921e-04       6.229645936045e+02 
       1.537887696968e-04       6.708118490405e+02 
       1.660572937635e-04       7.223242666092e+02 
       1.793045413292e-04       7.777801560527e+02 
       1.936085902198e-04       8.374783614141e+02 
       2.090537469327e-04       9.017396271824e+02 
       2.257310435294e-04       9.709080268041e+02 
       2.437387741694e-04       1.045352449493e+03 
       2.631830744443e-04       1.125468123750e+03 
       2.841785469300e-04       1.211678180495e+03 
       3.068489366414e-04       1.304435250150e+03 
       3.313278603720e-04       1.404223053681e+03 
       3.577595942169e-04       1.511558014616e+03 
       3.862999239199e-04       1.626990837755e+03 
       4.171170630578e-04       1.751108028790e+03 
       4.503926444729e-04       1.884533382872e+03 
       4.863227907969e-04       2.027929378111e+03 
       5.251192703764e-04       2.181998448133e+03 
       5.670107454121e-04       2.347484102755e+03 
       6.122441196689e-04       2.525171871367e+03 
       6.610859936996e-04       2.715889983592e+03 
       7.138242361596e-04       2.920509688379e+03 
       7.707696804727e-04       3.139945100279e+03 
       8.322579568497e-04       3.375152337587e+03 
       8.986514704559e-04       3.627127831140e+03 
       9.703415373875e-04       3.896905453136e+03 
       1.047750691046e-03       4.185552174301e+03 
       1.131335172503e-03       4.494162430373e+03 
       1.221587619537e-03       4.823850706497e+03 
       1.319039970183e-03       5.175742743816e+03 
       1.424266597921e-03       5.551019596900e+03 
       1.537887696968e-03       5.950788340556e+03 
       1.660572937635e-03       6.376123051790e+03 
       1.793045413292e-03       6.828073901461e+03 
       1.936085902198e-03       7.307625381066e+03 
       2.090537469327e-03       7.815671863302e+03 
       2.257310435294e-03       8.352990375818e+03 
       2.437387741694e-03       8.920211064349e+03 
       2.631830744443e-03       9.517783069112e+03 
       2.841785469300e-03       1.014593704435e+04 
       3.068489366414e-03       1.080464502796e+04 
       3.313278603720e-03       1.149357460346e+04 
       3.577595942169e-03       1.221203621722e+04 
       3.862999239199e-03       1.295892539446e+04 
       4.171170630578e-03       1.373266011314e+04 
       4.503926444729e-03       1.453111835625e+04 
       4.863227907969e-03       1.535154985298e+04 
       5.251192703764e-03       1.619063614546e+04 
       5.670107454120e-03       1.704431257747e+04 
       6.122441196689e-03       1.790755939659e+04 
       6.610859936996e-03       1.877460420446e+04 
       7.138242361596e-03       1.963872430380e+04 
       7.707696804727e-03       2.049215714773e+04 
       8.322579568496e-03       2.132607231984e+04 
       8.986514704559e-03       2.213054862735e+04 
       9.703415373875e-03       2.289445472216e+04 
       1.047750691046e-02       2.360548473041e+04 
       1.131335172503e-02       2.425023101466e+04 
       1.221587619537e-02       2.481423922592e+04 
       1.319039970183e-02       2.528218938086e+04 
       1.424266597920e-02       2.563814396375e+04 
       1.537887696964e-02       2.586607323479e+04 
       1.660572937560e-02       2.595026250333e+04 
       1.793045412207e-02       2.587632301849e+04 
       1.936085889642e-02       2.563221769903e+04 
       2.090537351881e-02       2.520933068810e+04 
       2.257309534705e-02       2.460445079509e+04 
       2.437382002240e-02       2.382090034822e+04 
       2.631799943729e-02       2.287045030490e+04 
       2.841644544598e-02       2.177447519128e+04 
       3.067933354524e-02       2.056552615701e+04 
       3.311368469821e-02       1.928731826535e+04 
       3.571840442514e-02       1.799398913604e+04 
       3.847720347390e-02       1.674688533326e+04 
       4.135335537314e-02       1.560456762397e+04 
       4.429361666563e-02       1.461035948329e+04 
       4.724366437916e-02       1.378051598053e+04 
       5.016480834039e-02       1.310506180447e+04 
       5.303989618930e-02       1.255715758027e+04 
       5.586870668205e-02       1.210425621562e+04 
       5.866042679206e-02       1.171465870367e+04 
       6.142798931504e-02       1.136048177259e+04 
       6.418496438662e-02       1.101855837086e+04 
       6.694418832236e-02       1.067070473491e+04 
       6.971731104453e-02       1.030355853898e+04 
       7.251476154108e-02       9.909002645088e+03 
       7.534587669814e-02       9.483787671176e+03 
       7.821907664495e-02       9.029506637360e+03 
       8.114203771084e-02       8.552322906344e+03 
       8.412184533139e-02       8.061898644318e+03 
       8.716512277352e-02       7.570799193124e+03 
       9.027813693913e-02       7.092450466371e+03 
       9.346688429613e-02       6.640515930731e+03 
       9.673716026122e-02       6.226690124328e+03 
       1.000946150608e-01       5.859903688085e+03 
       1.035447986307e-01       5.545261058110e+03 
       1.070931966524e-01       5.283133929755e+03 
       1.107452594180e-01       5.069416262800e+03 
       1.145064248899e-01       4.895267733941e+03 
       1.183821370656e-01       4.747849706510e+03 
       1.223778605591e-01       4.611744685434e+03 
       1.264990921707e-01       4.470612050035e+03 
       1.307513701078e-01       4.310257063729e+03 
       1.351402814485e-01       4.121386898816e+03 
       1.396714683894e-01       3.902058588686e+03 
       1.443506337875e-01       3.658666744725e+03 
       1.491835464900e-01       3.404486393765e+03 
       1.541760469368e-01       3.156675513116e+03 
       1.593340535209e-01       2.931982207912e+03 
       1.646635701934e-01       2.742370894366e+03 
       1.701706958081e-01       2.592258728471e+03 
       1.758616357070e-01       2.477236782698e+03 
       1.817427160581e-01       2.385179467961e+03 
       1.878204014651e-01       2.300357125236e+03 
       1.941013163855e-01       2.205762685307e+03 
       2.005922709060e-01       2.090823404503e+03 
       2.073002914514e-01       1.956467125215e+03 
       2.142326570343e-01       1.814193349319e+03 
       2.213969417044e-01       1.679295057230e+03 
       2.288010639201e-01       1.563845151132e+03 
       2.364533436625e-01       1.472687415753e+03 
       2.443625682390e-01       1.401512457507e+03 
       2.525380678946e-01       1.338416950535e+03 
       2.609898025770e-01       1.270903399061e+03 
       2.697284614969e-01       1.193384182019e+03 
       2.787655775073e-01       1.109337992467e+03 
       2.881136588192e-01       1.028772881074e+03 
       2.977863412019e-01       9.604799507693e+02 
       3.077985646248e-01       9.050234841871e+02 
       3.181667793367e-01       8.561448638578e+02 
       3.289091877084e-01       8.061892417722e+02 
       3.400460298905e-01       7.523941077856e+02 
       3.515999235695e-01       6.989233005401e+02 
       3.635962710278e-01       6.510650676532e+02 
       3.760637505499e-01       6.101242271455e+02 
       3.890349143014e-01       5.721314728843e+02 
       4.025469215929e-01       5.337802824849e+02 
       4.166424455447e-01       4.956313608026e+02 
       4.313708034899e-01       4.604690854897e+02 
       4.467893781976e-01       4.287762053883e+02 
       4.629654198623e-01       3.987727082829e+02 
       4.799783500912e-01       3.692411068778e+02 
       4.979227318246e-01       3.412393541094e+02 
       5.169121269689e-01       3.154835299585e+02 
       5.370841403262e-01       2.908351705979e+02 
       5.586070463286e-01       2.671061472837e+02 
       5.816885093582e-01       2.448092286801e+02 
       6.065870143577e-01       2.235676950147e+02 
       6.336266466978e-01       2.032103465070e+02 
       6.632156057925e-01       1.838789828891e+02 
       6.958678637575e-01       1.653545744757e+02 
       7.322247983784e-01       1.476960925110e+02 
       7.730680193171e-01       1.308341938219e+02 
       8.193049551574e-01       1.148311834519e+02 
       8.718988013754e-01       9.976269954960e+01 
       9.317218028590e-01       8.577780482983e+01 
       9.993660906273e-01       7.305436749774e+01 
       1.075037109879e+00       6.173564374800e+01 
       1.158653485387e+00       5.187902007398e+01 
       1.250099156961e+00       4.344017890504e+01 
       1.349432400897e+00       3.628941081756e+01 
       1.456947456991e+00       3.026797544088e+01 
       1.573135110893e+00       2.521443003489e+01 
       1.698621895119e+00       2.098206514890e+01 
       1.834127512423e+00       1.744242175501e+01 
       1.980444933977e+00       1.448568558638e+01 
       2.138435191130e+00       1.201890636909e+01 
       2.309029198543e+00       9.963111084150e+00 
       2.493232376993e+00       8.251796676711e+00 
       2.692130394536e+00       6.828587818961e+00 
       2.906895533764e+00       5.646227848164e+00 
       3.138793596840e+00       4.664877654158e+00 
       3.389191365541e+00       3.851085976438e+00 
       3.659564656886e+00       3.176910288009e+00 
       3.951507021438e+00       2.618864449657e+00 
       4.266739135513e+00       2.157332153793e+00 
       4.607118942658e+00       1.775899971742e+00 
       4.974652604172e+00       1.460958263018e+00 
       5.371506323193e+00       1.201090941107e+00 
       5.800019112071e+00       9.868321237124e-01 
       6.262716578240e+00       8.103013499220e-01 
       6.762325809881e+00       6.649518885083e-01 
       7.301791449077e+00       5.453632281830e-01 
       7.884293047211e+00       4.470300310362e-01 
       8.513263804891e+00       3.662214516622e-01 
       9.192410806865e+00       2.998553130556e-01 
       9.925736871166e+00       2.453893774651e-01 
       1.071756414128e+01       2.007059513757e-01 
       1.157255956041e+01       1.640754285439e-01 
       1.249576237789e+01       1.340574499023e-01 
       1.349261385000e+01       1.094726902410e-01 
       1.456898931011e+01       8.934745539190e-02 
       1.573123279727e+01       7.287998653899e-02 
       1.698619444729e+01       5.941031522949e-02 
       1.834127086665e+01       4.840016124545e-02 
       1.980444872733e+01       3.940122497919e-02 
       2.138435183937e+01       3.204983971579e-02 
       2.309029197863e+01       2.604570066501e-02 
       2.493232376942e+01       2.114307703069e-02 
       2.692130394533e+01       1.714112565780e-02 
       2.906895533764e+01       1.387457097443e-02 
       3.138793596840e+01       1.120857464504e-02 
       3.389191365541e+01       9.032805050368e-03 
       3.659564656886e+01       7.257040680566e-03 
       3.951507021438e+01       5.807908468675e-03 
       4.266739135513e+01       4.625131338979e-03 
       4.607118942658e+01       3.659940167271e-03 
       4.974652604172e+01       2.872758568656e-03 
       5.371506323193e+01       2.231286729664e-03 
       5.800019112071e+01       1.709582232425e-03 
       6.262716578240e+01       1.286678862848e-03 
       6.762325809881e+01       9.459239093140e-04 
