# Matter power spectrum P(k) at redshift z=99
# for k=1.04775e-05 to 66.1767 h/Mpc,
# number of wavenumbers equal to 130
#    1:k (h/Mpc)              2:P (Mpc/h)^3        
       1.047750691046e-05       7.261927680862e-03 
       1.319039970183e-05       9.069258201849e-03 
       1.660572937635e-05       1.132639106725e-02 
       2.090537469327e-05       1.414527123399e-02 
       2.631830744443e-05       1.766569584058e-02 
       3.313278603720e-05       2.206225515943e-02 
       4.171170630578e-05       2.755297766277e-02 
       5.251192703764e-05       3.441013522948e-02 
       6.610859936996e-05       4.297372172778e-02 
       8.322579568497e-05       5.366826852945e-02 
       1.047750691046e-04       6.702379872775e-02 
       1.319039970183e-04       8.370193441287e-02 
       1.660572937635e-04       1.045283355384e-01 
       2.090537469327e-04       1.305329134104e-01 
       2.631830744443e-04       1.629994506605e-01 
       3.313278603720e-04       2.035264004601e-01 
       4.171170630578e-04       2.541004744243e-01 
       5.251192703764e-04       3.171839528557e-01 
       6.610859936996e-04       3.958147256514e-01 
       8.322579568497e-04       4.937136006272e-01 
       1.047750691046e-03       6.153841636041e-01 
       1.319039970183e-03       7.661720592853e-01 
       1.660572937635e-03       9.522588016472e-01 
       2.090537469327e-03       1.180312991699e+00 
       2.631830744443e-03       1.456802684685e+00 
       3.313278603720e-03       1.786503854039e+00 
       4.171170630578e-03       2.169896192196e+00 
       5.251192703764e-03       2.599430630718e+00 
       6.610859936996e-03       3.055668704840e+00 
       8.322579568497e-03       3.505725126579e+00 
       1.047750691046e-02       3.905491157450e+00 
       1.319039970183e-02       4.200915423843e+00 
       1.660572937633e-02       4.325063050872e+00 
       2.090537453514e-02       4.210202691865e+00 
       2.631818545635e-02       3.825149019839e+00 
       3.311571692125e-02       3.229062513826e+00 
       4.113809243311e-02       2.627720300410e+00 
       4.792590854610e-02       2.280791408229e+00 
       5.284436902701e-02       2.110087937469e+00 
       5.689644391095e-02       2.003542274724e+00 
       6.051252627066e-02       1.923054602161e+00 
       6.388413457411e-02       1.852731014354e+00 
       6.711249296401e-02       1.784566862219e+00 
       7.025823437965e-02       1.714279062071e+00 
       7.336115587705e-02       1.639816064139e+00 
       7.644928796912e-02       1.560662950562e+00 
       7.954353299775e-02       1.477458087925e+00 
       8.266024078725e-02       1.391694941241e+00 
       8.581273398637e-02       1.305459416083e+00 
       8.901225918437e-02       1.221126633156e+00 
       9.226860540985e-02       1.141080438686e+00 
       9.559052048996e-02       1.067453918839e+00 
       9.898599946599e-02       1.001889322990e+00 
       1.024624891378e-01       9.453821134680e-01 
       1.060270359164e-01       8.981511286546e-01 
       1.096863943056e-01       8.596124638614e-01 
       1.134471073830e-01       8.284057045279e-01 
       1.173155669539e-01       8.024671371458e-01 
       1.212980586983e-01       7.792296401731e-01 
       1.254007961065e-01       7.559193488592e-01 
       1.296299459934e-01       7.299825518551e-01 
       1.339916477160e-01       6.995918306781e-01 
       1.384920277736e-01       6.640772548976e-01 
       1.431372111762e-01       6.241462333045e-01 
       1.479333307714e-01       5.817626700565e-01 
       1.528865355934e-01       5.396940867307e-01 
       1.580029992204e-01       5.008137180304e-01 
       1.632889290723e-01       4.673990659968e-01 
       1.687505775527e-01       4.405347539206e-01 
       1.743942559171e-01       4.198662991992e-01 
       1.802263517371e-01       4.036591421903e-01 
       1.862533508214e-01       3.893593784661e-01 
       1.924818644494e-01       3.741349630430e-01 
       1.989186627765e-01       3.558021570236e-01 
       2.055707152847e-01       3.340004412034e-01 
       2.124452391818e-01       3.102662263298e-01 
       2.195497567139e-01       2.871228265083e-01 
       2.268921624510e-01       2.668087576493e-01 
       2.344808017550e-01       2.504832142524e-01 
       2.423245618548e-01       2.378338505773e-01 
       2.504329772620e-01       2.271121494002e-01 
       2.588163516754e-01       2.161186844433e-01 
       2.674858990930e-01       2.035460406628e-01 
       2.764539076010e-01       1.895976179471e-01 
       2.857339303080e-01       1.757572200696e-01 
       2.953410092148e-01       1.636983267413e-01 
       3.052919395542e-01       1.539064839199e-01 
       3.156055844677e-01       1.455308608934e-01 
       3.263032530092e-01       1.372504003778e-01 
       3.374091587054e-01       1.283022725572e-01 
       3.489509817175e-01       1.191710729071e-01 
       3.609605657343e-01       1.108074204815e-01 
       3.734747921333e-01       1.036450411159e-01 
       3.865366902904e-01       9.714139956174e-02 
       4.001968667448e-01       9.061586994152e-02 
       4.145153713076e-01       8.403702639431e-02 
       4.295641718077e-01       7.789104850825e-02 
       4.454304922144e-01       7.234181916526e-02 
       4.622214006969e-01       6.709379250849e-02 
       4.800702491654e-01       6.189168675861e-02 
       4.991459272112e-01       5.692622561120e-02 
       5.196665217302e-01       5.231611109801e-02 
       5.419201087032e-01       4.783269884249e-02 
       5.662975451962e-01       4.348678727380e-02 
       5.933463737275e-01       3.933098695556e-02 
       6.238638458458e-01       3.525334230680e-02 
       6.590669257916e-01       3.126285701887e-02 
       7.009246080454e-01       2.728722459284e-02 
       7.528593308799e-01       2.327832012095e-02 
       8.213469537518e-01       1.914810343709e-02 
       9.196980813302e-01       1.481686319005e-02 
       1.075112183810e+00       1.035066248921e-02 
       1.322697471132e+00       6.379120472351e-03 
       1.662328205042e+00       3.705206579506e-03 
       2.092692408506e+00       2.123917444690e-03 
       2.634543445090e+00       1.207128581907e-03 
       3.316693691389e+00       6.806033481794e-04 
       4.175469971226e+00       3.806644648122e-04 
       5.256605252960e+00       2.109744276817e-04 
       6.617673932723e+00       1.154754856969e-04 
       8.331157880872e+00       6.189361099846e-05 
       1.048830636590e+01       3.184110376530e-05 
       1.320399541071e+01       1.500443991023e-05 
       1.662284535976e+01       5.770776151023e-06 
       2.092692243973e+01       1.265216300419e-06 
       2.634543445002e+01       7.287233814176e-10 
       3.316693691389e+01       5.847147022091e-07 
       4.175469971226e+01       9.856210763397e-07 
       5.256605252960e+01       2.574453145873e-07 
       6.617673932723e+01       6.496844306061e-08 
