# Matter power spectrum P(k) at redshift z=0
# for k=1.04775e-05 to 66.1767 h/Mpc,
# number of wavenumbers equal to 130
#    1:k (h/Mpc)              2:P (Mpc/h)^3        
       1.047750691046e-05       5.020964811312e+01 
       1.319039970183e-05       6.270562594776e+01 
       1.660572937635e-05       7.831147247912e+01 
       2.090537469327e-05       9.780108069296e+01 
       2.631830744443e-05       1.221408203809e+02 
       3.313278603720e-05       1.525374501932e+02 
       4.171170630578e-05       1.904975994010e+02 
       5.251192703764e-05       2.379022224249e+02 
       6.610859936996e-05       2.970989227884e+02 
       8.322579568497e-05       3.710167318946e+02 
       1.047750691046e-04       4.633080766742e+02 
       1.319039970183e-04       5.785234129334e+02 
       1.660572937635e-04       7.223242666092e+02 
       2.090537469327e-04       9.017396271824e+02 
       2.631830744443e-04       1.125468123750e+03 
       3.313278603720e-04       1.404223053681e+03 
       4.171170630578e-04       1.751108028790e+03 
       5.251192703764e-04       2.181998448133e+03 
       6.610859936996e-04       2.715889983593e+03 
       8.322579568497e-04       3.375152337134e+03 
       1.047750691046e-03       4.185552174308e+03 
       1.319039970183e-03       5.175742742976e+03 
       1.660572937635e-03       6.376123051788e+03 
       2.090537469327e-03       7.815671916832e+03 
       2.631830744443e-03       9.517783069111e+03 
       3.313278603720e-03       1.149357460345e+04 
       4.171170630578e-03       1.373265990996e+04 
       5.251192703764e-03       1.619063614414e+04 
       6.610859936996e-03       1.877460419931e+04 
       8.322579568497e-03       2.132607232963e+04 
       1.047750691046e-02       2.360548422840e+04 
       1.319039970183e-02       2.528218815394e+04 
       1.660572937633e-02       2.595027067355e+04 
       2.090537453514e-02       2.520935829280e+04 
       2.631818545635e-02       2.287033837884e+04 
       3.311571692125e-02       1.928623209477e+04 
       4.113809243311e-02       1.568429116651e+04 
       4.792590854610e-02       1.361062358645e+04 
       5.284436902701e-02       1.259130822907e+04 
       5.689644391095e-02       1.195555614084e+04 
       6.051252627066e-02       1.147546982869e+04 
       6.388413457411e-02       1.105587431026e+04 
       6.711249296401e-02       1.064900188629e+04 
       7.025823437965e-02       1.022928322462e+04 
       7.336115587705e-02       9.784517795528e+03 
       7.644928796912e-02       9.311646486319e+03 
       7.954353299775e-02       8.814550122084e+03 
       8.266024078725e-02       8.302170557482e+03 
       8.581273398637e-02       7.786939803575e+03 
       8.901225918437e-02       7.283239016600e+03 
       9.226860540985e-02       6.805207736094e+03 
       9.559052048996e-02       6.365599809768e+03 
       9.898599946599e-02       5.974406848675e+03 
       1.024624891378e-01       5.637360208616e+03 
       1.060270359164e-01       5.355801790940e+03 
       1.096863943056e-01       5.126257858722e+03 
       1.134471073830e-01       4.940522597332e+03 
       1.173155669539e-01       4.786170187920e+03 
       1.212980586983e-01       4.647938125280e+03 
       1.254007961065e-01       4.509148895914e+03 
       1.296299459934e-01       4.354536420112e+03 
       1.339916477160e-01       4.173215115971e+03 
       1.384920277736e-01       3.961166308153e+03 
       1.431372111762e-01       3.722671493067e+03 
       1.479333307714e-01       3.469563726113e+03 
       1.528865355934e-01       3.218361038437e+03 
       1.580029992204e-01       2.986271596267e+03 
       1.632889290723e-01       2.786958874532e+03 
       1.687505775527e-01       2.626820405730e+03 
       1.743942559171e-01       2.503759738767e+03 
       1.802263517371e-01       2.407332892501e+03 
       1.862533508214e-01       2.322229728475e+03 
       1.924818644494e-01       2.231534658469e+03 
       1.989186627765e-01       2.122172748253e+03 
       2.055707152847e-01       1.992018736485e+03 
       2.124452391818e-01       1.850320742925e+03 
       2.195497567139e-01       1.712168459827e+03 
       2.268921624510e-01       1.590981805269e+03 
       2.344808017550e-01       1.493661692597e+03 
       2.423245618548e-01       1.418315953296e+03 
       2.504329772620e-01       1.354462675529e+03 
       2.588163516754e-01       1.288929226463e+03 
       2.674858990930e-01       1.213932552415e+03 
       2.764539076010e-01       1.130688398817e+03 
       2.857339303080e-01       1.048092476836e+03 
       2.953410092148e-01       9.761803251477e+02 
       3.052919395542e-01       9.178053780831e+02 
       3.156055844677e-01       8.678929800200e+02 
       3.263032530092e-01       8.185215774194e+02 
       3.374091587054e-01       7.651457243082e+02 
       3.489509817175e-01       7.106684885375e+02 
       3.609605657343e-01       6.607839404595e+02 
       3.734747921333e-01       6.180824682117e+02 
       3.865366902904e-01       5.793067115343e+02 
       4.001968667448e-01       5.403899005784e+02 
       4.145153713076e-01       5.011479956874e+02 
       4.295641718077e-01       4.644950631073e+02 
       4.454304922144e-01       4.314053758521e+02 
       4.622214006969e-01       4.001086233139e+02 
       4.800702491654e-01       3.690833716263e+02 
       4.991459272112e-01       3.394721692985e+02 
       5.196665217302e-01       3.119808626383e+02 
       5.419201087032e-01       2.852442590788e+02 
       5.662975451962e-01       2.593294181460e+02 
       5.933463737275e-01       2.345459999544e+02 
       6.238638458458e-01       2.102277493702e+02 
       6.590669257916e-01       1.864320413686e+02 
       7.009246080454e-01       1.627240329419e+02 
       7.528593308799e-01       1.388176096948e+02 
       8.213469537518e-01       1.141879318913e+02 
       9.196980813302e-01       8.835856758755e+01 
       1.075112183810e+00       6.172574303672e+01 
       1.322697471132e+00       3.804277499967e+01 
       1.662328205042e+00       2.209776452818e+01 
       2.092692408506e+00       1.266907660135e+01 
       2.634543445090e+00       7.203232678633e+00 
       3.316693691389e+00       4.065119019192e+00 
       4.175469971226e+00       2.278594335888e+00 
       5.256605252960e+00       1.269327316884e+00 
       6.617673932723e+00       7.031175566281e-01 
       8.331157880872e+00       3.874599109562e-01 
       1.048830636590e+01       2.124963933197e-01 
       1.320399541071e+01       1.160240052197e-01 
       1.662284535976e+01       6.308728758174e-02 
       2.092692243973e+01       3.416893102309e-02 
       2.634543445002e+01       1.843628864276e-02 
       3.316693691389e+01       9.910451952063e-03 
       4.175469971226e+01       5.306782125363e-03 
       5.256605252960e+01       2.829677744686e-03 
       6.617673932723e+01       1.501438242547e-03 
