# Matter power spectrum P(k) at redshift z=99
# for k=1.04775e-05 to 66.1767 h/Mpc,
# number of wavenumbers equal to 130
#    1:k (h/Mpc)              2:P (Mpc/h)^3        
       1.047750691046e-05       7.261927680862e-03 
       1.319039970183e-05       9.069258201849e-03 
       1.660572937635e-05       1.132639106725e-02 
       2.090537469327e-05       1.414527123399e-02 
       2.631830744443e-05       1.766569584058e-02 
       3.313278603720e-05       2.206225515943e-02 
       4.171170630578e-05       2.755297766277e-02 
       5.251192703764e-05       3.441013522948e-02 
       6.610859936996e-05       4.297372172778e-02 
       8.322579568497e-05       5.366826852945e-02 
       1.047750691046e-04       6.702379872775e-02 
       1.319039970183e-04       8.370193441286e-02 
       1.660572937635e-04       1.045283355384e-01 
       2.090537469327e-04       1.305329134104e-01 
       2.631830744443e-04       1.629994506606e-01 
       3.313278603720e-04       2.035264004602e-01 
       4.171170630578e-04       2.541004744243e-01 
       5.251192703764e-04       3.171839528557e-01 
       6.610859936996e-04       3.958147256514e-01 
       8.322579568497e-04       4.937136006267e-01 
       1.047750691046e-03       6.153841636041e-01 
       1.319039970183e-03       7.661720592858e-01 
       1.660572937635e-03       9.522588016472e-01 
       2.090537469327e-03       1.180312991699e+00 
       2.631830744443e-03       1.456802684685e+00 
       3.313278603720e-03       1.786503854036e+00 
       4.171170630578e-03       2.169896191957e+00 
       5.251192703764e-03       2.599430630717e+00 
       6.610859936996e-03       3.055668711842e+00 
       8.322579568497e-03       3.505725598694e+00 
       1.047750691046e-02       3.905489962367e+00 
       1.319039970183e-02       4.200915351530e+00 
       1.660572937633e-02       4.325065393921e+00 
       2.090537453514e-02       4.210199618995e+00 
       2.631818545635e-02       3.825148941755e+00 
       3.311571692125e-02       3.229066532068e+00 
       4.113809243311e-02       2.627730504064e+00 
       4.792590854610e-02       2.280793911589e+00 
       5.284436902701e-02       2.110086944266e+00 
       5.689644391095e-02       2.003536374465e+00 
       6.051252627066e-02       1.923056686935e+00 
       6.388413457411e-02       1.852732485579e+00 
       6.711249296401e-02       1.784564590037e+00 
       7.025823437965e-02       1.714274807327e+00 
       7.336115587705e-02       1.639814220228e+00 
       7.644928796912e-02       1.560663848688e+00 
       7.954353299775e-02       1.477459723393e+00 
       8.266024078725e-02       1.391696677243e+00 
       8.581273398637e-02       1.305458687135e+00 
       8.901225918437e-02       1.221123619189e+00 
       9.226860540985e-02       1.141078943879e+00 
       9.559052048996e-02       1.067454762151e+00 
       9.898599946599e-02       1.001891703572e+00 
       1.024624891378e-01       9.453827510299e-01 
       1.060270359164e-01       8.981495407189e-01 
       1.096863943056e-01       8.596139274692e-01 
       1.134471073830e-01       8.284057621925e-01 
       1.173155669539e-01       8.024671266973e-01 
       1.212980586983e-01       7.792277856604e-01 
       1.254007961065e-01       7.559182589573e-01 
       1.296299459934e-01       7.299838619346e-01 
       1.339916477160e-01       6.995929506066e-01 
       1.384920277736e-01       6.640776055504e-01 
       1.431372111762e-01       6.241437506434e-01 
       1.479333307714e-01       5.817636523393e-01 
       1.528865355934e-01       5.396938983844e-01 
       1.580029992204e-01       5.008127918840e-01 
       1.632889290723e-01       4.673992134746e-01 
       1.687505775527e-01       4.405343103382e-01 
       1.743942559171e-01       4.198669360669e-01 
       1.802263517371e-01       4.036595120358e-01 
       1.862533508214e-01       3.893597549249e-01 
       1.924818644494e-01       3.741356067265e-01 
       1.989186627765e-01       3.558021239053e-01 
       2.055707152847e-01       3.340002913904e-01 
       2.124452391818e-01       3.102667291213e-01 
       2.195497567139e-01       2.871224317424e-01 
       2.268921624510e-01       2.668080266696e-01 
       2.344808017550e-01       2.504833875708e-01 
       2.423245618548e-01       2.378333513442e-01 
       2.504329772620e-01       2.271123175817e-01 
       2.588163516754e-01       2.161192685957e-01 
       2.674858990930e-01       2.035459429601e-01 
       2.764539076010e-01       1.895983112192e-01 
       2.857339303080e-01       1.757569712451e-01 
       2.953410092148e-01       1.636994586946e-01 
       3.052919395542e-01       1.539060589950e-01 
       3.156055844677e-01       1.455308386939e-01 
       3.263032530092e-01       1.372506690599e-01 
       3.374091587054e-01       1.283023742527e-01 
       3.489509817175e-01       1.191708694613e-01 
       3.609605657343e-01       1.108073766462e-01 
       3.734747921333e-01       1.036448850743e-01 
       3.865366902904e-01       9.714142635439e-02 
       4.001968667448e-01       9.061549832190e-02 
       4.145153713076e-01       8.403698796586e-02 
       4.295641718077e-01       7.789113863198e-02 
       4.454304922144e-01       7.234161300281e-02 
       4.622214006969e-01       6.709365670296e-02 
       4.800702491654e-01       6.189170482401e-02 
       4.991459272112e-01       5.692636385567e-02 
       5.196665217302e-01       5.231606554647e-02 
       5.419201087032e-01       4.783265548247e-02 
       5.662975451962e-01       4.348691169400e-02 
       5.933463737275e-01       3.933106808011e-02 
       6.238638458458e-01       3.525342694003e-02 
       6.590669257916e-01       3.126289092070e-02 
       7.009246080454e-01       2.728735408958e-02 
       7.528593308799e-01       2.327843388168e-02 
       8.213469537518e-01       1.914823566091e-02 
       9.196980813302e-01       1.481706502868e-02 
       1.075112183810e+00       1.035091215257e-02 
       1.322697471132e+00       6.379460446170e-03 
       1.662328205042e+00       3.705668884460e-03 
       2.092692408506e+00       2.124531577847e-03 
       2.634543445090e+00       1.207954568478e-03 
       3.316693691389e+00       6.817018915943e-04 
       4.175469971226e+00       3.821125966588e-04 
       5.256605252960e+00       2.128647504649e-04 
       6.617673932723e+00       1.179127717813e-04 
       8.331157880872e+00       6.497713374869e-05 
       1.048830636590e+01       3.563474801957e-05 
       1.320399541071e+01       1.945550797832e-05 
       1.662284535976e+01       1.057651641110e-05 
       2.092692243973e+01       5.725106928516e-06 
       2.634543445002e+01       3.084575878990e-06 
       3.316693691389e+01       1.652203524596e-06 
       4.175469971226e+01       8.771084615848e-07 
       5.256605252960e+01       4.581937854163e-07 
       6.617673932723e+01       2.316583841335e-07 
