# Matter power spectrum P(k) at redshift z=99
# for k=1.04775e-05 to 66.1767 h/Mpc,
# number of wavenumbers equal to 130
#    1:k (h/Mpc)              2:P (Mpc/h)^3        
       1.047750691046e-05       7.261927681087e-03 
       1.319039970183e-05       9.069258202130e-03 
       1.660572937635e-05       1.132639106760e-02 
       2.090537469327e-05       1.414527123443e-02 
       2.631830744443e-05       1.766569584113e-02 
       3.313278603720e-05       2.206225516011e-02 
       4.171170630578e-05       2.755297766362e-02 
       5.251192703764e-05       3.441013523054e-02 
       6.610859936996e-05       4.297372172910e-02 
       8.322579568497e-05       5.366826853110e-02 
       1.047750691046e-04       6.702379872981e-02 
       1.319039970183e-04       8.370193441543e-02 
       1.660572937635e-04       1.045283355416e-01 
       2.090537469327e-04       1.305329134144e-01 
       2.631830744443e-04       1.629994506654e-01 
       3.313278603720e-04       2.035264004661e-01 
       4.171170630578e-04       2.541004744316e-01 
       5.251192703764e-04       3.171839528644e-01 
       6.610859936996e-04       3.958147256613e-01 
       8.322579568497e-04       4.937136006375e-01 
       1.047750691046e-03       6.153841636143e-01 
       1.319039970183e-03       7.661720592995e-01 
       1.660572937635e-03       9.522588016399e-01 
       2.090537469327e-03       1.180312991656e+00 
       2.631830744443e-03       1.456802684564e+00 
       3.313278603720e-03       1.786503853755e+00 
       4.171170630578e-03       2.169896194119e+00 
       5.251192703764e-03       2.599430629424e+00 
       6.610859936996e-03       3.055668708444e+00 
       8.322579568497e-03       3.505725593614e+00 
       1.047750691046e-02       3.905491887482e+00 
       1.319039970183e-02       4.200915282616e+00 
       1.660572937633e-02       4.325059209788e+00 
       2.090537453514e-02       4.210202804668e+00 
       2.631818545635e-02       3.825154792733e+00 
       3.311571692125e-02       3.229063405729e+00 
       4.113809243311e-02       2.627729475046e+00 
       4.792590854610e-02       2.280791438705e+00 
       5.284436902701e-02       2.110084563249e+00 
       5.689644391095e-02       2.003540502540e+00 
       6.051252627066e-02       1.923055561793e+00 
       6.388413457411e-02       1.852731844685e+00 
       6.711249296401e-02       1.784564903526e+00 
       7.025823437965e-02       1.714275973283e+00 
       7.336115587705e-02       1.639815972352e+00 
       7.644928796912e-02       1.560660236254e+00 
       7.954353299775e-02       1.477458232855e+00 
       8.266024078725e-02       1.391699014161e+00 
       8.581273398637e-02       1.305460703576e+00 
       8.901225918437e-02       1.221124086212e+00 
       9.226860540985e-02       1.141074996267e+00 
       9.559052048996e-02       1.067451383078e+00 
       9.898599946599e-02       1.001889707376e+00 
       1.024624891378e-01       9.453808350933e-01 
       1.060270359164e-01       8.981478261623e-01 
       1.096863943056e-01       8.596157643036e-01 
       1.134471073830e-01       8.284052590313e-01 
       1.173155669539e-01       8.024671746539e-01 
       1.212980586983e-01       7.792291040274e-01 
       1.254007961065e-01       7.559164977424e-01 
       1.296299459934e-01       7.299823610757e-01 
       1.339916477160e-01       6.995930902084e-01 
       1.384920277736e-01       6.640799426535e-01 
       1.431372111762e-01       6.241470452537e-01 
       1.479333307714e-01       5.817638486674e-01 
       1.528865355934e-01       5.396892205386e-01 
       1.580029992204e-01       5.008133551902e-01 
       1.632889290723e-01       4.673986422935e-01 
       1.687505775527e-01       4.405335071180e-01 
       1.743942559171e-01       4.198644827127e-01 
       1.802263517371e-01       4.036584955942e-01 
       1.862533508214e-01       3.893612954201e-01 
       1.924818644494e-01       3.741384623677e-01 
       1.989186627765e-01       3.558053272594e-01 
       2.055707152847e-01       3.340015107148e-01 
       2.124452391818e-01       3.102634739258e-01 
       2.195497567139e-01       2.871206895629e-01 
       2.268921624510e-01       2.668068490813e-01 
       2.344808017550e-01       2.504819039871e-01 
       2.423245618548e-01       2.378316025481e-01 
       2.504329772620e-01       2.271095698474e-01 
       2.588163516754e-01       2.161176262527e-01 
       2.674858990930e-01       2.035458145184e-01 
       2.764539076010e-01       1.895954087805e-01 
       2.857339303080e-01       1.757553323953e-01 
       2.953410092148e-01       1.636972776021e-01 
       3.052919395542e-01       1.539045983713e-01 
       3.156055844677e-01       1.455292825180e-01 
       3.263032530092e-01       1.372484634354e-01 
       3.374091587054e-01       1.282999590755e-01 
       3.489509817175e-01       1.191691260210e-01 
       3.609605657343e-01       1.108054816787e-01 
       3.734747921333e-01       1.036427859678e-01 
       3.865366902904e-01       9.713923142443e-02 
       4.001968667448e-01       9.061357050108e-02 
       4.145153713076e-01       8.403510061974e-02 
       4.295641718077e-01       7.788928362660e-02 
       4.454304922144e-01       7.233962396876e-02 
       4.622214006969e-01       6.709164321183e-02 
       4.800702491654e-01       6.188960037787e-02 
       4.991459272112e-01       5.692412407564e-02 
       5.196665217302e-01       5.231400226824e-02 
       5.419201087032e-01       4.783052351018e-02 
       5.662975451962e-01       4.348478127409e-02 
       5.933463737275e-01       3.932869139911e-02 
       6.238638458458e-01       3.525108930019e-02 
       6.590669257916e-01       3.126050332589e-02 
       7.009246080454e-01       2.728495165397e-02 
       7.528593308799e-01       2.327604432863e-02 
       8.213469537518e-01       1.914582688431e-02 
       9.196980813302e-01       1.481451371535e-02 
       1.075112183810e+00       1.034832937544e-02 
       1.322697471132e+00       6.376854425947e-03 
       1.662328205042e+00       3.703015693604e-03 
       2.092692408506e+00       2.121875196313e-03 
       2.634543445090e+00       1.205319598826e-03 
       3.316693691389e+00       6.790900337931e-04 
       4.175469971226e+00       3.795399899864e-04 
       5.256605252960e+00       2.103340890015e-04 
       6.617673932723e+00       1.154205903246e-04 
       8.331157880872e+00       6.251583572697e-05 
       1.048830636590e+01       3.319669232416e-05 
       1.320399541071e+01       1.704139718788e-05 
       1.662284535976e+01       8.213167266094e-06 
       2.092692243973e+01       3.489353314952e-06 
       2.634543445002e+01       1.127241274005e-06 
       3.316693691389e+01       1.759842265571e-07 
       4.175469971226e+01       6.755648839872e-10 
       5.256605252960e+01       4.018612307143e-08 
       6.617673932723e+01       1.169768610547e-08 
