# Matter power spectrum P(k) at redshift z=0
# for k=1.04775e-05 to 66.1767 h/Mpc,
# number of wavenumbers equal to 130
#    1:k (h/Mpc)              2:P (Mpc/h)^3        
       1.047750691046e-05       5.020964811313e+01 
       1.319039970183e-05       6.270562594769e+01 
       1.660572937635e-05       7.831147247912e+01 
       2.090537469327e-05       9.780108069295e+01 
       2.631830744443e-05       1.221408203809e+02 
       3.313278603720e-05       1.525374501932e+02 
       4.171170630578e-05       1.904975994010e+02 
       5.251192703764e-05       2.379022224249e+02 
       6.610859936996e-05       2.970989227881e+02 
       8.322579568497e-05       3.710167318946e+02 
       1.047750691046e-04       4.633080766742e+02 
       1.319039970183e-04       5.785234129334e+02 
       1.660572937635e-04       7.223242666092e+02 
       2.090537469327e-04       9.017396271824e+02 
       2.631830744443e-04       1.125468123750e+03 
       3.313278603720e-04       1.404223053681e+03 
       4.171170630578e-04       1.751108028790e+03 
       5.251192703764e-04       2.181998448133e+03 
       6.610859936996e-04       2.715889983592e+03 
       8.322579568497e-04       3.375152337134e+03 
       1.047750691046e-03       4.185552174309e+03 
       1.319039970183e-03       5.175742740633e+03 
       1.660572937635e-03       6.376123051777e+03 
       2.090537469327e-03       7.815671865234e+03 
       2.631830744443e-03       9.517783069112e+03 
       3.313278603720e-03       1.149357460346e+04 
       4.171170630578e-03       1.373266009508e+04 
       5.251192703764e-03       1.619063614523e+04 
       6.610859936996e-03       1.877460418272e+04 
       8.322579568497e-03       2.132607232153e+04 
       1.047750691046e-02       2.360548245515e+04 
       1.319039970183e-02       2.528218629810e+04 
       1.660572937633e-02       2.595026622595e+04 
       2.090537453514e-02       2.520935385646e+04 
       2.631818545635e-02       2.287031610294e+04 
       3.311571692125e-02       1.928623258139e+04 
       4.113809243311e-02       1.568428932751e+04 
       4.792590854610e-02       1.361059837535e+04 
       5.284436902701e-02       1.259134817801e+04 
       5.689644391095e-02       1.195554535929e+04 
       6.051252627066e-02       1.147544494225e+04 
       6.388413457411e-02       1.105588648829e+04 
       6.711249296401e-02       1.064899824800e+04 
       7.025823437965e-02       1.022925935897e+04 
       7.336115587705e-02       9.784511585027e+03 
       7.644928796912e-02       9.311653849308e+03 
       7.954353299775e-02       8.814550001915e+03 
       8.266024078725e-02       8.302130596507e+03 
       8.581273398637e-02       7.786977329338e+03 
       8.901225918437e-02       7.283199731076e+03 
       9.226860540985e-02       6.805140022453e+03 
       9.559052048996e-02       6.365595357237e+03 
       9.898599946599e-02       5.974392724300e+03 
       1.024624891378e-01       5.637342806739e+03 
       1.060270359164e-01       5.355785947568e+03 
       1.096863943056e-01       5.126235447905e+03 
       1.134471073830e-01       4.940459366156e+03 
       1.173155669539e-01       4.786164583268e+03 
       1.212980586983e-01       4.647946357578e+03 
       1.254007961065e-01       4.509162821986e+03 
       1.296299459934e-01       4.354547123666e+03 
       1.339916477160e-01       4.173228183494e+03 
       1.384920277736e-01       3.961164475959e+03 
       1.431372111762e-01       3.722676197796e+03 
       1.479333307714e-01       3.469544789559e+03 
       1.528865355934e-01       3.218340734349e+03 
       1.580029992204e-01       2.986299447062e+03 
       1.632889290723e-01       2.786958825433e+03 
       1.687505775527e-01       2.626823225338e+03 
       1.743942559171e-01       2.503747612264e+03 
       1.802263517371e-01       2.407334985125e+03 
       1.862533508214e-01       2.322256755042e+03 
       1.924818644494e-01       2.231556494634e+03 
       1.989186627765e-01       2.122185856298e+03 
       2.055707152847e-01       1.992023571579e+03 
       2.124452391818e-01       1.850319938472e+03 
       2.195497567139e-01       1.712167549493e+03 
       2.268921624510e-01       1.590983924153e+03 
       2.344808017550e-01       1.493670122708e+03 
       2.423245618548e-01       1.418305310518e+03 
       2.504329772620e-01       1.354459846945e+03 
       2.588163516754e-01       1.288934546494e+03 
       2.674858990930e-01       1.213935089350e+03 
       2.764539076010e-01       1.130693880032e+03 
       2.857339303080e-01       1.048100249471e+03 
       2.953410092148e-01       9.761809787506e+02 
       3.052919395542e-01       9.178063401710e+02 
       3.156055844677e-01       8.678909499425e+02 
       3.263032530092e-01       8.185227211597e+02 
       3.374091587054e-01       7.651441183666e+02 
       3.489509817175e-01       7.106688470013e+02 
       3.609605657343e-01       6.607833512065e+02 
       3.734747921333e-01       6.180791350804e+02 
       3.865366902904e-01       5.793099350845e+02 
       4.001968667448e-01       5.403897822673e+02 
       4.145153713076e-01       5.011483692184e+02 
       4.295641718077e-01       4.644984694150e+02 
       4.454304922144e-01       4.314070535704e+02 
       4.622214006969e-01       4.001114664442e+02 
       4.800702491654e-01       3.690873745119e+02 
       4.991459272112e-01       3.394756737409e+02 
       5.196665217302e-01       3.119847312519e+02 
       5.419201087032e-01       2.852462921388e+02 
       5.662975451962e-01       2.593298262916e+02 
       5.933463737275e-01       2.345473406576e+02 
       6.238638458458e-01       2.102297017292e+02 
       6.590669257916e-01       1.864324061451e+02 
       7.009246080454e-01       1.627243561868e+02 
       7.528593308799e-01       1.388185322351e+02 
       8.213469537518e-01       1.141876880837e+02 
       9.196980813302e-01       8.835893692581e+01 
       1.075112183810e+00       6.172601896741e+01 
       1.322697471132e+00       3.804246097970e+01 
       1.662328205042e+00       2.209798406721e+01 
       2.092692408506e+00       1.266907476683e+01 
       2.634543445090e+00       7.203265260238e+00 
       3.316693691389e+00       4.065110203658e+00 
       4.175469971226e+00       2.278601108861e+00 
       5.256605252960e+00       1.269344542876e+00 
       6.617673932723e+00       7.031302230950e-01 
       8.331157880872e+00       3.874731571001e-01 
       1.048830636590e+01       2.125074868324e-01 
       1.320399541071e+01       1.160330322670e-01 
       1.662284535976e+01       6.309532061858e-02 
       2.092692243973e+01       3.417692972092e-02 
       2.634543445002e+01       1.844367645494e-02 
       3.316693691389e+01       9.916935665471e-03 
       4.175469971226e+01       5.312566266540e-03 
       5.256605252960e+01       2.834868477433e-03 
       6.617673932723e+01       1.506075874301e-03 
