# Matter power spectrum P(k) at redshift z=0
# for k=1.04775e-05 to 67.6233 h/Mpc,
# number of wavenumbers equal to 246
#    1:k (h/Mpc)              2:P (Mpc/h)^3        
       1.047750691046e-05       5.020964811307e+01 
       1.131335172503e-05       5.407050701926e+01 
       1.221587619537e-05       5.822819068673e+01 
       1.319039970183e-05       6.270562594788e+01 
       1.424266597921e-05       6.752732240880e+01 
       1.537887696968e-05       7.271977206173e+01 
       1.660572937635e-05       7.831147247912e+01 
       1.793045413292e-05       8.433311821988e+01 
       1.936085902198e-05       9.081778249833e+01 
       2.090537469327e-05       9.780108069297e+01 
       2.257310435294e-05       1.053213197893e+02 
       2.437387741694e-05       1.134197377890e+02 
       2.631830744443e-05       1.221408203809e+02 
       2.841785469300e-05       1.315324642464e+02 
       3.068489366414e-05       1.416462094881e+02 
       3.313278603720e-05       1.525374501932e+02 
       3.577595942169e-05       1.642660688414e+02 
       3.862999239199e-05       1.768963506307e+02 
       4.171170630578e-05       1.904975994010e+02 
       4.503926444729e-05       2.051444491974e+02 
       4.863227907969e-05       2.209171465549e+02 
       5.251192703764e-05       2.379022224249e+02 
       5.670107454120e-05       2.561927927582e+02 
       6.122441196689e-05       2.758890444040e+02 
       6.610859936996e-05       2.970989227882e+02 
       7.138242361596e-05       3.199385560802e+02 
       7.707696804727e-05       3.445329783680e+02 
       8.322579568497e-05       3.710167318945e+02 
       8.986514704559e-05       3.995346444203e+02 
       9.703415373875e-05       4.302425407383e+02 
       1.047750691046e-04       4.633080766742e+02 
       1.131335172503e-04       4.989116271565e+02 
       1.221587619537e-04       5.372471950930e+02 
       1.319039970183e-04       5.785234129334e+02 
       1.424266597921e-04       6.229645936045e+02 
       1.537887696968e-04       6.708118490405e+02 
       1.660572937635e-04       7.223242666092e+02 
       1.793045413292e-04       7.777801560595e+02 
       1.936085902198e-04       8.374783614141e+02 
       2.090537469327e-04       9.017396271824e+02 
       2.257310435294e-04       9.709080268041e+02 
       2.437387741694e-04       1.045352449493e+03 
       2.631830744443e-04       1.125468123750e+03 
       2.841785469300e-04       1.211678180495e+03 
       3.068489366414e-04       1.304435250150e+03 
       3.313278603720e-04       1.404223053681e+03 
       3.577595942169e-04       1.511558014616e+03 
       3.862999239199e-04       1.626990837742e+03 
       4.171170630578e-04       1.751108028790e+03 
       4.503926444729e-04       1.884533382872e+03 
       4.863227907969e-04       2.027929378112e+03 
       5.251192703764e-04       2.181998448133e+03 
       5.670107454121e-04       2.347484102755e+03 
       6.122441196689e-04       2.525171871365e+03 
       6.610859936996e-04       2.715889983592e+03 
       7.138242361596e-04       2.920509688382e+03 
       7.707696804727e-04       3.139945100279e+03 
       8.322579568497e-04       3.375152337579e+03 
       8.986514704559e-04       3.627127831141e+03 
       9.703415373875e-04       3.896905453136e+03 
       1.047750691046e-03       4.185552174302e+03 
       1.131335172503e-03       4.494162430373e+03 
       1.221587619537e-03       4.823850706491e+03 
       1.319039970183e-03       5.175742740121e+03 
       1.424266597921e-03       5.551019596906e+03 
       1.537887696968e-03       5.950788340555e+03 
       1.660572937635e-03       6.376123051786e+03 
       1.793045413292e-03       6.828073901452e+03 
       1.936085902198e-03       7.307625381067e+03 
       2.090537469327e-03       7.815671866149e+03 
       2.257310435294e-03       8.352990375812e+03 
       2.437387741694e-03       8.920211064346e+03 
       2.631830744443e-03       9.517783069113e+03 
       2.841785469300e-03       1.014593704435e+04 
       3.068489366414e-03       1.080464502795e+04 
       3.313278603720e-03       1.149357460345e+04 
       3.577595942169e-03       1.221203621722e+04 
       3.862999239199e-03       1.295892539446e+04 
       4.171170630578e-03       1.373266013047e+04 
       4.503926444729e-03       1.453111835625e+04 
       4.863227907969e-03       1.535154985300e+04 
       5.251192703764e-03       1.619063614559e+04 
       5.670107454120e-03       1.704431257733e+04 
       6.122441196689e-03       1.790755939650e+04 
       6.610859936996e-03       1.877460424646e+04 
       7.138242361596e-03       1.963872430353e+04 
       7.707696804727e-03       2.049215715045e+04 
       8.322579568496e-03       2.132607231829e+04 
       8.986514704559e-03       2.213055078212e+04 
       9.703415373875e-03       2.289445472114e+04 
       1.047750691046e-02       2.360548552007e+04 
       1.131335172503e-02       2.425022858099e+04 
       1.221587619537e-02       2.481423923794e+04 
       1.319039970183e-02       2.528218799424e+04 
       1.424266597920e-02       2.563814393959e+04 
       1.537887696964e-02       2.586607711900e+04 
       1.660572937560e-02       2.595026541075e+04 
       1.793045412207e-02       2.587635378503e+04 
       1.936085889642e-02       2.563220584454e+04 
       2.090537351881e-02       2.520934898111e+04 
       2.257309534705e-02       2.460447511192e+04 
       2.437382002240e-02       2.382086343215e+04 
       2.631799943729e-02       2.287043125206e+04 
       2.841644544598e-02       2.177450570653e+04 
       3.067933354524e-02       2.056557828900e+04 
       3.311368469821e-02       1.928728493956e+04 
       3.571840442514e-02       1.799400034666e+04 
       3.847720347390e-02       1.674680882508e+04 
       4.135335537314e-02       1.560455285504e+04 
       4.429361666563e-02       1.461036039134e+04 
       4.724366437916e-02       1.378053688067e+04 
       5.016480834039e-02       1.310510333774e+04 
       5.303989618930e-02       1.255716124466e+04 
       5.586870668205e-02       1.210423485796e+04 
       5.866042679206e-02       1.171466164231e+04 
       6.142798931504e-02       1.136049966112e+04 
       6.418496438662e-02       1.101856380760e+04 
       6.694418832236e-02       1.067067505854e+04 
       6.971731104453e-02       1.030357594429e+04 
       7.251476154108e-02       9.909010077275e+03 
       7.534587669814e-02       9.483768558158e+03 
       7.821907664495e-02       9.029510856442e+03 
       8.114203771084e-02       8.552330791341e+03 
       8.412184533139e-02       8.061962521416e+03 
       8.716512277352e-02       7.570777648436e+03 
       9.027813693913e-02       7.092499744961e+03 
       9.346688429613e-02       6.640514183212e+03 
       9.673716026122e-02       6.226708075489e+03 
       1.000946150608e-01       5.859932059658e+03 
       1.035447986307e-01       5.545254365153e+03 
       1.070931966524e-01       5.283133131094e+03 
       1.107452594180e-01       5.069411115021e+03 
       1.145064248899e-01       4.895237889581e+03 
       1.183821370656e-01       4.747838959098e+03 
       1.223778605591e-01       4.611741769431e+03 
       1.264990921707e-01       4.470623834044e+03 
       1.307513701078e-01       4.310275747358e+03 
       1.351402814485e-01       4.121392455601e+03 
       1.396714683894e-01       3.902070642966e+03 
       1.443506337875e-01       3.658640187584e+03 
       1.491835464900e-01       3.404488944981e+03 
       1.541760469368e-01       3.156669916747e+03 
       1.593340535209e-01       2.931978651838e+03 
       1.646635701934e-01       2.742367726319e+03 
       1.701706958081e-01       2.592257288201e+03 
       1.758616357070e-01       2.477241887239e+03 
       1.817427160581e-01       2.385180101827e+03 
       1.878204014651e-01       2.300357609316e+03 
       1.941013163855e-01       2.205760601624e+03 
       2.005922709060e-01       2.090818943061e+03 
       2.073002914514e-01       1.956463133277e+03 
       2.142326570343e-01       1.814195218442e+03 
       2.213969417044e-01       1.679298083135e+03 
       2.288010639201e-01       1.563847304674e+03 
       2.364533436625e-01       1.472687889250e+03 
       2.443625682390e-01       1.401511990290e+03 
       2.525380678946e-01       1.338414885326e+03 
       2.609898025770e-01       1.270904658981e+03 
       2.697284614969e-01       1.193382451924e+03 
       2.787655775073e-01       1.109338453750e+03 
       2.881136588192e-01       1.028769437095e+03 
       2.977863412019e-01       9.604839894156e+02 
       3.077985646248e-01       9.050258885998e+02 
       3.181667793367e-01       8.561462715102e+02 
       3.289091877084e-01       8.061881828162e+02 
       3.400460298905e-01       7.523920922254e+02 
       3.515999235695e-01       6.989248796463e+02 
       3.635962710278e-01       6.510625524053e+02 
       3.760637505499e-01       6.101237130344e+02 
       3.890349143014e-01       5.721326761792e+02 
       4.025469215929e-01       5.337837381998e+02 
       4.166424455447e-01       4.956328705966e+02 
       4.313708034899e-01       4.604683301242e+02 
       4.467893781976e-01       4.287785243449e+02 
       4.629654198623e-01       3.987730441674e+02 
       4.799783500912e-01       3.692423570952e+02 
       4.979227318246e-01       3.412413115431e+02 
       5.169121269689e-01       3.154844583562e+02 
       5.370841403262e-01       2.908362800597e+02 
       5.586070463286e-01       2.671064316264e+02 
       5.816885093582e-01       2.448099323391e+02 
       6.065870143577e-01       2.235679989991e+02 
       6.336266466978e-01       2.032108234302e+02 
       6.632156057925e-01       1.838790852911e+02 
       6.958678637575e-01       1.653550423871e+02 
       7.322247983784e-01       1.476958248717e+02 
       7.730680193171e-01       1.308338260542e+02 
       8.193049551574e-01       1.148312903866e+02 
       8.718988013754e-01       9.976267223330e+01 
       9.317218028590e-01       8.577803750788e+01 
       9.993660906273e-01       7.305508511269e+01 
       1.075037109879e+00       6.173613164399e+01 
       1.158653485387e+00       5.187950588362e+01 
       1.250099156961e+00       4.344057698259e+01 
       1.349432400897e+00       3.628947833221e+01 
       1.456947456991e+00       3.026805228962e+01 
       1.573135110893e+00       2.521466145016e+01 
       1.698621895119e+00       2.098203940776e+01 
       1.834127512423e+00       1.744248701863e+01 
       1.980444933977e+00       1.448576630922e+01 
       2.138435191130e+00       1.201902706006e+01 
       2.309029198543e+00       9.963213768216e+00 
       2.493232376993e+00       8.251879353942e+00 
       2.692130394536e+00       6.828627097208e+00 
       2.906895533764e+00       5.646272703983e+00 
       3.138793596840e+00       4.664930986087e+00 
       3.389191365541e+00       3.851149354808e+00 
       3.659564656886e+00       3.176938751829e+00 
       3.951507021438e+00       2.618893040177e+00 
       4.266739135513e+00       2.157344565925e+00 
       4.607118942658e+00       1.775938678959e+00 
       4.974652604172e+00       1.460996329159e+00 
       5.371506323193e+00       1.201142554509e+00 
       5.800019112071e+00       9.868849211223e-01 
       6.262716578240e+00       8.103529497308e-01 
       6.762325809881e+00       6.650136151689e-01 
       7.301791449077e+00       5.454311695273e-01 
       7.884293047211e+00       4.470977131718e-01 
       8.513263804891e+00       3.662980163682e-01 
       9.192410806865e+00       2.999427833526e-01 
       9.925736871166e+00       2.454795680509e-01 
       1.071756414128e+01       2.008080313818e-01 
       1.157255956041e+01       1.641845404623e-01 
       1.249576237789e+01       1.341767378425e-01 
       1.349261385000e+01       1.096031951369e-01 
       1.456898931011e+01       8.948885975292e-02 
       1.573123279727e+01       7.303363342708e-02 
       1.698619444729e+01       5.957856575978e-02 
       1.834127086665e+01       4.858101273472e-02 
       1.980444872733e+01       3.959694533061e-02 
       2.138435183937e+01       3.226107640311e-02 
       2.309029197863e+01       2.627348911451e-02 
       2.493232376942e+01       2.138861451358e-02 
       2.692130394533e+01       1.740477775767e-02 
       2.906895533764e+01       1.415752858925e-02 
       3.138793596840e+01       1.151134269479e-02 
       3.389191365541e+01       9.356108458303e-03 
       3.659564656886e+01       7.601250485066e-03 
       3.951507021438e+01       6.173058408563e-03 
       4.266739135513e+01       5.011139286273e-03 
       4.607118942658e+01       4.066186107851e-03 
       4.974652604172e+01       3.298006555822e-03 
       5.371506323193e+01       2.673742350542e-03 
       5.800019112071e+01       2.166565145936e-03 
       6.262716578240e+01       1.754755796901e-03 
       6.762325809881e+01       1.420468390805e-03 
