# Matter power spectrum P(k) at redshift z=0
# for k=1.04775e-05 to 66.1767 h/Mpc,
# number of wavenumbers equal to 130
#    1:k (h/Mpc)              2:P (Mpc/h)^3        
       1.047750691046e-05       5.020964811312e+01 
       1.319039970183e-05       6.270562594781e+01 
       1.660572937635e-05       7.831147247912e+01 
       2.090537469327e-05       9.780108069294e+01 
       2.631830744443e-05       1.221408203809e+02 
       3.313278603720e-05       1.525374501932e+02 
       4.171170630578e-05       1.904975994010e+02 
       5.251192703764e-05       2.379022224249e+02 
       6.610859936996e-05       2.970989227881e+02 
       8.322579568497e-05       3.710167318946e+02 
       1.047750691046e-04       4.633080766742e+02 
       1.319039970183e-04       5.785234129340e+02 
       1.660572937635e-04       7.223242666092e+02 
       2.090537469327e-04       9.017396271824e+02 
       2.631830744443e-04       1.125468123750e+03 
       3.313278603720e-04       1.404223053681e+03 
       4.171170630578e-04       1.751108028790e+03 
       5.251192703764e-04       2.181998448133e+03 
       6.610859936996e-04       2.715889983591e+03 
       8.322579568497e-04       3.375152337134e+03 
       1.047750691046e-03       4.185552174305e+03 
       1.319039970183e-03       5.175742740304e+03 
       1.660572937635e-03       6.376123051778e+03 
       2.090537469327e-03       7.815671904442e+03 
       2.631830744443e-03       9.517783069112e+03 
       3.313278603720e-03       1.149357460344e+04 
       4.171170630578e-03       1.373266007813e+04 
       5.251192703764e-03       1.619063614560e+04 
       6.610859936996e-03       1.877460418199e+04 
       8.322579568497e-03       2.132606993990e+04 
       1.047750691046e-02       2.360548263201e+04 
       1.319039970183e-02       2.528218779557e+04 
       1.660572937633e-02       2.595026540791e+04 
       2.090537453514e-02       2.520934387600e+04 
       2.631818545635e-02       2.287035626639e+04 
       3.311571692125e-02       1.928626036186e+04 
       4.113809243311e-02       1.568426473907e+04 
       4.792590854610e-02       1.361062234591e+04 
       5.284436902701e-02       1.259130204957e+04 
       5.689644391095e-02       1.195557260641e+04 
       6.051252627066e-02       1.147546400687e+04 
       6.388413457411e-02       1.105588320789e+04 
       6.711249296401e-02       1.064899354081e+04 
       7.025823437965e-02       1.022929887126e+04 
       7.336115587705e-02       9.784543172748e+03 
       7.644928796912e-02       9.311658625766e+03 
       7.954353299775e-02       8.814539054575e+03 
       8.266024078725e-02       8.302143270653e+03 
       8.581273398637e-02       7.786943513676e+03 
       8.901225918437e-02       7.283169598521e+03 
       9.226860540985e-02       6.805158345322e+03 
       9.559052048996e-02       6.365629923369e+03 
       9.898599946599e-02       5.974395127087e+03 
       1.024624891378e-01       5.637331159599e+03 
       1.060270359164e-01       5.355759034448e+03 
       1.096863943056e-01       5.126245222848e+03 
       1.134471073830e-01       4.940478290618e+03 
       1.173155669539e-01       4.786158083835e+03 
       1.212980586983e-01       4.647937254169e+03 
       1.254007961065e-01       4.509161908308e+03 
       1.296299459934e-01       4.354551200414e+03 
       1.339916477160e-01       4.173211693059e+03 
       1.384920277736e-01       3.961167469186e+03 
       1.431372111762e-01       3.722680281031e+03 
       1.479333307714e-01       3.469550438365e+03 
       1.528865355934e-01       3.218339573258e+03 
       1.580029992204e-01       2.986297391371e+03 
       1.632889290723e-01       2.786965535367e+03 
       1.687505775527e-01       2.626826012954e+03 
       1.743942559171e-01       2.503755577055e+03 
       1.802263517371e-01       2.407341466734e+03 
       1.862533508214e-01       2.322253182413e+03 
       1.924818644494e-01       2.231548735190e+03 
       1.989186627765e-01       2.122188112856e+03 
       2.055707152847e-01       1.992021135113e+03 
       2.124452391818e-01       1.850334209517e+03 
       2.195497567139e-01       1.712184952972e+03 
       2.268921624510e-01       1.590989311695e+03 
       2.344808017550e-01       1.493670187720e+03 
       2.423245618548e-01       1.418312441308e+03 
       2.504329772620e-01       1.354467324152e+03 
       2.588163516754e-01       1.288933788397e+03 
       2.674858990930e-01       1.213938247529e+03 
       2.764539076010e-01       1.130693096171e+03 
       2.857339303080e-01       1.048099435773e+03 
       2.953410092148e-01       9.761827025455e+02 
       3.052919395542e-01       9.178089175360e+02 
       3.156055844677e-01       8.678979609538e+02 
       3.263032530092e-01       8.185264823885e+02 
       3.374091587054e-01       7.651459626521e+02 
       3.489509817175e-01       7.106725161680e+02 
       3.609605657343e-01       6.607871215078e+02 
       3.734747921333e-01       6.180869347602e+02 
       3.865366902904e-01       5.793111216246e+02 
       4.001968667448e-01       5.403925607649e+02 
       4.145153713076e-01       5.011514999505e+02 
       4.295641718077e-01       4.644989214635e+02 
       4.454304922144e-01       4.314106567352e+02 
       4.622214006969e-01       4.001137644332e+02 
       4.800702491654e-01       3.690879490148e+02 
       4.991459272112e-01       3.394759810887e+02 
       5.196665217302e-01       3.119853774978e+02 
       5.419201087032e-01       2.852470981131e+02 
       5.662975451962e-01       2.593313797525e+02 
       5.933463737275e-01       2.345485113648e+02 
       6.238638458458e-01       2.102310051698e+02 
       6.590669257916e-01       1.864332795427e+02 
       7.009246080454e-01       1.627253573245e+02 
       7.528593308799e-01       1.388184724847e+02 
       8.213469537518e-01       1.141886599581e+02 
       9.196980813302e-01       8.835935334276e+01 
       1.075112183810e+00       6.172625833048e+01 
       1.322697471132e+00       3.804275163392e+01 
       1.662328205042e+00       2.209801969351e+01 
       2.092692408506e+00       1.266917103211e+01 
       2.634543445090e+00       7.203341126698e+00 
       3.316693691389e+00       4.065168608559e+00 
       4.175469971226e+00       2.278627605116e+00 
       5.256605252960e+00       1.269354194592e+00 
       6.617673932723e+00       7.031356188051e-01 
       8.331157880872e+00       3.874811234967e-01 
       1.048830636590e+01       2.125102178869e-01 
       1.320399541071e+01       1.160365303175e-01 
       1.662284535976e+01       6.309887547478e-02 
       2.092692243973e+01       3.417943777764e-02 
       2.634543445002e+01       1.844601984572e-02 
       3.316693691389e+01       9.919170783472e-03 
       4.175469971226e+01       5.314590795882e-03 
       5.256605252960e+01       2.836719612471e-03 
       6.617673932723e+01       1.507706938799e-03 
