# Matter power spectrum P(k) at redshift z=0
# for k=1.04775e-05 to 66.1767 h/Mpc,
# number of wavenumbers equal to 130
#    1:k (h/Mpc)              2:P (Mpc/h)^3        
       1.047750691046e-05       5.020964811308e+01 
       1.319039970183e-05       6.270562594777e+01 
       1.660572937635e-05       7.831147247912e+01 
       2.090537469327e-05       9.780108069296e+01 
       2.631830744443e-05       1.221408203809e+02 
       3.313278603720e-05       1.525374501932e+02 
       4.171170630578e-05       1.904975994010e+02 
       5.251192703764e-05       2.379022224249e+02 
       6.610859936996e-05       2.970989227881e+02 
       8.322579568497e-05       3.710167318945e+02 
       1.047750691046e-04       4.633080766742e+02 
       1.319039970183e-04       5.785234129339e+02 
       1.660572937635e-04       7.223242666092e+02 
       2.090537469327e-04       9.017396271824e+02 
       2.631830744443e-04       1.125468123750e+03 
       3.313278603720e-04       1.404223053681e+03 
       4.171170630578e-04       1.751108028790e+03 
       5.251192703764e-04       2.181998448133e+03 
       6.610859936996e-04       2.715889983592e+03 
       8.322579568497e-04       3.375152337132e+03 
       1.047750691046e-03       4.185552174317e+03 
       1.319039970183e-03       5.175742739593e+03 
       1.660572937635e-03       6.376123051792e+03 
       2.090537469327e-03       7.815671866107e+03 
       2.631830744443e-03       9.517783069074e+03 
       3.313278603720e-03       1.149357460338e+04 
       4.171170630578e-03       1.373266014506e+04 
       5.251192703764e-03       1.619063610453e+04 
       6.610859936996e-03       1.877460425383e+04 
       8.322579568497e-03       2.132607264236e+04 
       1.047750691046e-02       2.360548345068e+04 
       1.319039970183e-02       2.528218985746e+04 
       1.660572937633e-02       2.595026422347e+04 
       2.090537453514e-02       2.520936323687e+04 
       2.631818545635e-02       2.287029242350e+04 
       3.311571692125e-02       1.928626072074e+04 
       4.113809243311e-02       1.568425293359e+04 
       4.792590854610e-02       1.361060218337e+04 
       5.284436902701e-02       1.259130133616e+04 
       5.689644391095e-02       1.195560460325e+04 
       6.051252627066e-02       1.147554268465e+04 
       6.388413457411e-02       1.105593996014e+04 
       6.711249296401e-02       1.064902399976e+04 
       7.025823437965e-02       1.022936122939e+04 
       7.336115587705e-02       9.784581453160e+03 
       7.644928796912e-02       9.311697121845e+03 
       7.954353299775e-02       8.814574800162e+03 
       8.266024078725e-02       8.302141780539e+03 
       8.581273398637e-02       7.786954187405e+03 
       8.901225918437e-02       7.283232813625e+03 
       9.226860540985e-02       6.805198063367e+03 
       9.559052048996e-02       6.365641249222e+03 
       9.898599946599e-02       5.974427498434e+03 
       1.024624891378e-01       5.637386462459e+03 
       1.060270359164e-01       5.355780729535e+03 
       1.096863943056e-01       5.126242570539e+03 
       1.134471073830e-01       4.940515754251e+03 
       1.173155669539e-01       4.786168386197e+03 
       1.212980586983e-01       4.647943220748e+03 
       1.254007961065e-01       4.509070966506e+03 
       1.296299459934e-01       4.354549173778e+03 
       1.339916477160e-01       4.173232629265e+03 
       1.384920277736e-01       3.961155260519e+03 
       1.431372111762e-01       3.722633402144e+03 
       1.479333307714e-01       3.469547151919e+03 
       1.528865355934e-01       3.218316317121e+03 
       1.580029992204e-01       2.986239635843e+03 
       1.632889290723e-01       2.786945403457e+03 
       1.687505775527e-01       2.626806908030e+03 
       1.743942559171e-01       2.503759256756e+03 
       1.802263517371e-01       2.407312022094e+03 
       1.862533508214e-01       2.322250407395e+03 
       1.924818644494e-01       2.231568874082e+03 
       1.989186627765e-01       2.122200301336e+03 
       2.055707152847e-01       1.992042376166e+03 
       2.124452391818e-01       1.850305215620e+03 
       2.195497567139e-01       1.712158021999e+03 
       2.268921624510e-01       1.590968200709e+03 
       2.344808017550e-01       1.493656551035e+03 
       2.423245618548e-01       1.418303888574e+03 
       2.504329772620e-01       1.354447929154e+03 
       2.588163516754e-01       1.288931748914e+03 
       2.674858990930e-01       1.213905967661e+03 
       2.764539076010e-01       1.130678169610e+03 
       2.857339303080e-01       1.048083468064e+03 
       2.953410092148e-01       9.761716720158e+02 
       3.052919395542e-01       9.178048759613e+02 
       3.156055844677e-01       8.678831580577e+02 
       3.263032530092e-01       8.185246293005e+02 
       3.374091587054e-01       7.651469220144e+02 
       3.489509817175e-01       7.106599620993e+02 
       3.609605657343e-01       6.607762479965e+02 
       3.734747921333e-01       6.180788869896e+02 
       3.865366902904e-01       5.792995060838e+02 
       4.001968667448e-01       5.403804995281e+02 
       4.145153713076e-01       5.011440527176e+02 
       4.295641718077e-01       4.644947323365e+02 
       4.454304922144e-01       4.313997572097e+02 
       4.622214006969e-01       4.001094537203e+02 
       4.800702491654e-01       3.690836925535e+02 
       4.991459272112e-01       3.394702602904e+02 
       5.196665217302e-01       3.119801968269e+02 
       5.419201087032e-01       2.852420289305e+02 
       5.662975451962e-01       2.593263989836e+02 
       5.933463737275e-01       2.345438628138e+02 
       6.238638458458e-01       2.102287768046e+02 
       6.590669257916e-01       1.864315280988e+02 
       7.009246080454e-01       1.627234708266e+02 
       7.528593308799e-01       1.388170449082e+02 
       8.213469537518e-01       1.141873775238e+02 
       9.196980813302e-01       8.835826346358e+01 
       1.075112183810e+00       6.172547561073e+01 
       1.322697471132e+00       3.804235247366e+01 
       1.662328205042e+00       2.209734193435e+01 
       2.092692408506e+00       1.266858863218e+01 
       2.634543445090e+00       7.202780933186e+00 
       3.316693691389e+00       4.064617689694e+00 
       4.175469971226e+00       2.278120192895e+00 
       5.256605252960e+00       1.268885428066e+00 
       6.617673932723e+00       7.026893804184e-01 
       8.331157880872e+00       3.870596354648e-01 
       1.048830636590e+01       2.121111110117e-01 
       1.320399541071e+01       1.156602619597e-01 
       1.662284535976e+01       6.274201527683e-02 
       2.092692243973e+01       3.383976461069e-02 
       2.634543445002e+01       1.811989279167e-02 
       3.316693691389e+01       9.603373907280e-03 
       4.175469971226e+01       5.005610986852e-03 
       5.256605252960e+01       2.532495675525e-03 
       6.617673932723e+01       1.209577353363e-03 
