# Matter power spectrum P(k) at redshift z=99
# for k=1.04775e-05 to 66.1767 h/Mpc,
# number of wavenumbers equal to 130
#    1:k (h/Mpc)              2:P (Mpc/h)^3        
       1.047750691046e-05       7.261927680898e-03 
       1.319039970183e-05       9.069258201894e-03 
       1.660572937635e-05       1.132639106731e-02 
       2.090537469327e-05       1.414527123406e-02 
       2.631830744443e-05       1.766569584067e-02 
       3.313278603720e-05       2.206225515953e-02 
       4.171170630578e-05       2.755297766290e-02 
       5.251192703764e-05       3.441013522964e-02 
       6.610859936996e-05       4.297372172799e-02 
       8.322579568497e-05       5.366826852971e-02 
       1.047750691046e-04       6.702379872807e-02 
       1.319039970183e-04       8.370193441327e-02 
       1.660572937635e-04       1.045283355389e-01 
       2.090537469327e-04       1.305329134110e-01 
       2.631830744443e-04       1.629994506613e-01 
       3.313278603720e-04       2.035264004611e-01 
       4.171170630578e-04       2.541004744254e-01 
       5.251192703764e-04       3.171839528571e-01 
       6.610859936996e-04       3.958147256529e-01 
       8.322579568497e-04       4.937136006308e-01 
       1.047750691046e-03       6.153841636057e-01 
       1.319039970183e-03       7.661720592526e-01 
       1.660572937635e-03       9.522588016470e-01 
       2.090537469327e-03       1.180312991692e+00 
       2.631830744443e-03       1.456802684666e+00 
       3.313278603720e-03       1.786503853993e+00 
       4.171170630578e-03       2.169896161863e+00 
       5.251192703764e-03       2.599430630514e+00 
       6.610859936996e-03       3.055668710449e+00 
       8.322579568497e-03       3.505725597747e+00 
       1.047750691046e-02       3.905491073579e+00 
       1.319039970183e-02       4.200915329768e+00 
       1.660572937633e-02       4.325063872559e+00 
       2.090537453514e-02       4.210204702432e+00 
       2.631818545635e-02       3.825150468539e+00 
       3.311571692125e-02       3.229056353404e+00 
       4.113809243311e-02       2.627734462210e+00 
       4.792590854610e-02       2.280792709476e+00 
       5.284436902701e-02       2.110086577553e+00 
       5.689644391095e-02       2.003540300835e+00 
       6.051252627066e-02       1.923056187923e+00 
       6.388413457411e-02       1.852735637915e+00 
       6.711249296401e-02       1.784562933969e+00 
       7.025823437965e-02       1.714277731388e+00 
       7.336115587705e-02       1.639814293107e+00 
       7.644928796912e-02       1.560659300318e+00 
       7.954353299775e-02       1.477457195376e+00 
       8.266024078725e-02       1.391698262990e+00 
       8.581273398637e-02       1.305461198001e+00 
       8.901225918437e-02       1.221125658391e+00 
       9.226860540985e-02       1.141080149123e+00 
       9.559052048996e-02       1.067449060906e+00 
       9.898599946599e-02       1.001887981829e+00 
       1.024624891378e-01       9.453813868988e-01 
       1.060270359164e-01       8.981492337946e-01 
       1.096863943056e-01       8.596133526305e-01 
       1.134471073830e-01       8.284051869113e-01 
       1.173155669539e-01       8.024680054344e-01 
       1.212980586983e-01       7.792316394419e-01 
       1.254007961065e-01       7.559194515074e-01 
       1.296299459934e-01       7.299823360719e-01 
       1.339916477160e-01       6.995941970414e-01 
       1.384920277736e-01       6.640794170684e-01 
       1.431372111762e-01       6.241481901447e-01 
       1.479333307714e-01       5.817655096033e-01 
       1.528865355934e-01       5.396908426952e-01 
       1.580029992204e-01       5.008138674413e-01 
       1.632889290723e-01       4.673980505404e-01 
       1.687505775527e-01       4.405341992652e-01 
       1.743942559171e-01       4.198649979207e-01 
       1.802263517371e-01       4.036586721706e-01 
       1.862533508214e-01       3.893619814282e-01 
       1.924818644494e-01       3.741398599675e-01 
       1.989186627765e-01       3.558069041462e-01 
       2.055707152847e-01       3.340032301965e-01 
       2.124452391818e-01       3.102647225074e-01 
       2.195497567139e-01       2.871225260100e-01 
       2.268921624510e-01       2.668083885585e-01 
       2.344808017550e-01       2.504825874653e-01 
       2.423245618548e-01       2.378328346534e-01 
       2.504329772620e-01       2.271111896665e-01 
       2.588163516754e-01       2.161196822577e-01 
       2.674858990930e-01       2.035465269641e-01 
       2.764539076010e-01       1.895968893665e-01 
       2.857339303080e-01       1.757568495418e-01 
       2.953410092148e-01       1.636990419051e-01 
       3.052919395542e-01       1.539061585590e-01 
       3.156055844677e-01       1.455301804121e-01 
       3.263032530092e-01       1.372500558434e-01 
       3.374091587054e-01       1.283011816664e-01 
       3.489509817175e-01       1.191705608308e-01 
       3.609605657343e-01       1.108072932681e-01 
       3.734747921333e-01       1.036445479220e-01 
       3.865366902904e-01       9.714091313991e-02 
       4.001968667448e-01       9.061493902950e-02 
       4.145153713076e-01       8.403644366309e-02 
       4.295641718077e-01       7.789096294919e-02 
       4.454304922144e-01       7.234143956038e-02 
       4.622214006969e-01       6.709363725183e-02 
       4.800702491654e-01       6.189165410809e-02 
       4.991459272112e-01       5.692604474320e-02 
       5.196665217302e-01       5.231562346399e-02 
       5.419201087032e-01       4.783236330636e-02 
       5.662975451962e-01       4.348653255864e-02 
       5.933463737275e-01       3.933060980911e-02 
       6.238638458458e-01       3.525300479704e-02 
       6.590669257916e-01       3.126246284035e-02 
       7.009246080454e-01       2.728688800762e-02 
       7.528593308799e-01       2.327803392750e-02 
       8.213469537518e-01       1.914781582308e-02 
       9.196980813302e-01       1.481657104863e-02 
       1.075112183810e+00       1.035044719807e-02 
       1.322697471132e+00       6.378957918716e-03 
       1.662328205042e+00       3.705109508340e-03 
       2.092692408506e+00       2.123937964150e-03 
       2.634543445090e+00       1.207296864923e-03 
       3.316693691389e+00       6.809644291651e-04 
       4.175469971226e+00       3.812786843953e-04 
       5.256605252960e+00       2.119006448444e-04 
       6.617673932723e+00       1.167822236878e-04 
       8.331157880872e+00       6.363634504330e-05 
       1.048830636590e+01       3.403940044040e-05 
       1.320399541071e+01       1.757289248209e-05 
       1.662284535976e+01       8.418482781680e-06 
       2.092692243973e+01       3.402862525227e-06 
       2.634543445002e+01       8.819056650968e-07 
       3.316693691389e+01       2.537947280513e-08 
       4.175469971226e+01       1.820010503373e-07 
       5.256605252960e+01       4.256121446830e-07 
       6.617673932723e+01       1.579895557010e-07 
