# Matter power spectrum P(k) at redshift z=99
# for k=1.04775e-05 to 67.6233 h/Mpc,
# number of wavenumbers equal to 246
#    1:k (h/Mpc)              2:P (Mpc/h)^3        
       1.047750691046e-05       7.261927680875e-03 
       1.131335172503e-05       7.820331652445e-03 
       1.221587619537e-05       8.421675995468e-03 
       1.319039970183e-05       9.069258201865e-03 
       1.424266597921e-05       9.766638412150e-03 
       1.537887696968e-05       1.051764070803e-02 
       1.660572937635e-05       1.132639106727e-02 
       1.793045413292e-05       1.219733232717e-02 
       1.936085902198e-05       1.313524225781e-02 
       2.090537469327e-05       1.414527123402e-02 
       2.257310435294e-05       1.523296273826e-02 
       2.437387741694e-05       1.640429446291e-02 
       2.631830744443e-05       1.766569584061e-02 
       2.841785469300e-05       1.902408737008e-02 
       3.068489366414e-05       2.048692972776e-02 
       3.313278603720e-05       2.206225515946e-02 
       3.577595942169e-05       2.375870707442e-02 
       3.862999239199e-05       2.558560730207e-02 
       4.171170630578e-05       2.755297766282e-02 
       4.503926444729e-05       2.967161930478e-02 
       4.863227907969e-05       3.195316454239e-02 
       5.251192703764e-05       3.441013522953e-02 
       5.670107454120e-05       3.705601726475e-02 
       6.122441196689e-05       3.990533417803e-02 
       6.610859936996e-05       4.297372172785e-02 
       7.138242361596e-05       4.627802146623e-02 
       7.707696804727e-05       4.983636199473e-02 
       8.322579568497e-05       5.366826852954e-02 
       8.986514704559e-05       5.779476400731e-02 
       9.703415373875e-05       6.223848250521e-02 
       1.047750691046e-04       6.702379872786e-02 
       1.131335172503e-04       7.217695161076e-02 
       1.221587619537e-04       7.772619081860e-02 
       1.319039970183e-04       8.370193441300e-02 
       1.424266597921e-04       9.013692517157e-02 
       1.537887696968e-04       9.706641252920e-02 
       1.660572937635e-04       1.045283355386e-01 
       1.793045413292e-04       1.125635350268e-01 
       1.936085902198e-04       1.212159616261e-01 
       2.090537469327e-04       1.305329134106e-01 
       2.257310435294e-04       1.405652847713e-01 
       2.437387741694e-04       1.513678304154e-01 
       2.631830744443e-04       1.629994506608e-01 
       2.841785469300e-04       1.755234923096e-01 
       3.068489366414e-04       1.890080672428e-01 
       3.313278603720e-04       2.035264004605e-01 
       3.577595942169e-04       2.191571806017e-01 
       3.862999239199e-04       2.359849440109e-01 
       4.171170630578e-04       2.541004744247e-01 
       4.503926444729e-04       2.736012083193e-01 
       4.863227907969e-04       2.945916794104e-01 
       5.251192703764e-04       3.171839528562e-01 
       5.670107454121e-04       3.414980767640e-01 
       6.122441196689e-04       3.676625417017e-01 
       6.610859936996e-04       3.958147256519e-01 
       7.138242361596e-04       4.261013289369e-01 
       7.707696804727e-04       4.586787797358e-01 
       8.322579568497e-04       4.937136006297e-01 
       8.986514704559e-04       5.313826807055e-01 
       9.703415373875e-04       5.718734978240e-01 
       1.047750691046e-03       6.153841636049e-01 
       1.131335172503e-03       6.621233246501e-01 
       1.221587619537e-03       7.123098228009e-01 
       1.319039970183e-03       7.661720592306e-01 
       1.424266597921e-03       8.239546306468e-01 
       1.537887696968e-03       8.859011182850e-01 
       1.660572937635e-03       9.522588016490e-01 
       1.793045413292e-03       1.023280100901e+00 
       1.936085902198e-03       1.099216305739e+00 
       2.090537469327e-03       1.180312991696e+00 
       2.257310435294e-03       1.266804117184e+00 
       2.437387741694e-03       1.358904854831e+00 
       2.631830744443e-03       1.456802684679e+00 
       2.841785469300e-03       1.560646892147e+00 
       3.068489366414e-03       1.670536064231e+00 
       3.313278603720e-03       1.786503854028e+00 
       3.577595942169e-03       1.908502932750e+00 
       3.862999239199e-03       2.036387732787e+00 
       4.171170630578e-03       2.169896195619e+00 
       4.503926444729e-03       2.308631881313e+00 
       4.863227907969e-03       2.452047293400e+00 
       5.251192703764e-03       2.599430630646e+00 
       5.670107454120e-03       2.749896934457e+00 
       6.122441196689e-03       2.902386516154e+00 
       6.610859936996e-03       3.055668702917e+00 
       7.138242361596e-03       3.208356464472e+00 
       7.707696804727e-03       3.358923895619e+00 
       8.322579568496e-03       3.505725598232e+00 
       8.986514704559e-03       3.647009720944e+00 
       9.703415373875e-03       3.780923307339e+00 
       1.047750691046e-02       3.905490787934e+00 
       1.131335172503e-02       4.018588044225e+00 
       1.221587619537e-02       4.117901589991e+00 
       1.319039970183e-02       4.200915365441e+00 
       1.424266597920e-02       4.264942430383e+00 
       1.537887696964e-02       4.307218371060e+00 
       1.660572937560e-02       4.325062406924e+00 
       1.793045412207e-02       4.316057527191e+00 
       1.936085889642e-02       4.278226668394e+00 
       2.090537351881e-02       4.210199155220e+00 
       2.257309534705e-02       4.111415172253e+00 
       2.437382002240e-02       3.982414779071e+00 
       2.631799943729e-02       3.825166418708e+00 
       2.841644544598e-02       3.643275317609e+00 
       3.067933354524e-02       3.442195077799e+00 
       3.311368469821e-02       3.229229567367e+00 
       3.571840442514e-02       3.013503428698e+00 
       3.847720347390e-02       2.805281772559e+00 
       4.135335537314e-02       2.614404695873e+00 
       4.429361666563e-02       2.448131863714e+00 
       4.724366437916e-02       2.309227767952e+00 
       5.016480834039e-02       2.196112834815e+00 
       5.303989618930e-02       2.104363692077e+00 
       5.586870668205e-02       2.028467246444e+00 
       5.866042679206e-02       1.963151912916e+00 
       6.142798931504e-02       1.903782393083e+00 
       6.418496438662e-02       1.846477047103e+00 
       6.694418832236e-02       1.788197261288e+00 
       6.971731104453e-02       1.726716632403e+00 
       7.251476154108e-02       1.660652151231e+00 
       7.534587669814e-02       1.589469027750e+00 
       7.821907664495e-02       1.513432457538e+00 
       8.114203771084e-02       1.433568067461e+00 
       8.412184533139e-02       1.351494225808e+00 
       8.716512277352e-02       1.269276714727e+00 
       9.027813693913e-02       1.189193005581e+00 
       9.346688429613e-02       1.113500963884e+00 
       9.673716026122e-02       1.044177191040e+00 
       1.000946150608e-01       9.827060699019e-01 
       1.035447986307e-01       9.299379942616e-01 
       1.070931966524e-01       8.859597538733e-01 
       1.107452594180e-01       8.500700489119e-01 
       1.145064248899e-01       8.208030927436e-01 
       1.183821370656e-01       7.960255516203e-01 
       1.223778605591e-01       7.731450262897e-01 
       1.264990921707e-01       7.494533582834e-01 
       1.307513701078e-01       7.225583478550e-01 
       1.351402814485e-01       6.909097910638e-01 
       1.396714683894e-01       6.541830722174e-01 
       1.443506337875e-01       6.134275541979e-01 
       1.491835464900e-01       5.708684902482e-01 
       1.541760469368e-01       5.293644879313e-01 
       1.593340535209e-01       4.917111950919e-01 
       1.646635701934e-01       4.599197795498e-01 
       1.701706958081e-01       4.347279165383e-01 
       1.758616357070e-01       4.154073412028e-01 
       1.817427160581e-01       3.999371798535e-01 
       1.878204014651e-01       3.856860850143e-01 
       1.941013163855e-01       3.698143037045e-01 
       2.005922709060e-01       3.505512708547e-01 
       2.073002914514e-01       3.280457922261e-01 
       2.142326570343e-01       3.042144059157e-01 
       2.213969417044e-01       2.816108980835e-01 
       2.288010639201e-01       2.622563210561e-01 
       2.364533436625e-01       2.469616438699e-01 
       2.443625682390e-01       2.350123828290e-01 
       2.525380678946e-01       2.244203690729e-01 
       2.609898025770e-01       2.130961517604e-01 
       2.697284614969e-01       2.001025733833e-01 
       2.787655775073e-01       1.860196091667e-01 
       2.881136588192e-01       1.725165997097e-01 
       2.977863412019e-01       1.610656028481e-01 
       3.077985646248e-01       1.517607949586e-01 
       3.181667793367e-01       1.435589103956e-01 
       3.289091877084e-01       1.351815641161e-01 
       3.400460298905e-01       1.261643073508e-01 
       3.515999235695e-01       1.172018064541e-01 
       3.635962710278e-01       1.091767884314e-01 
       3.760637505499e-01       1.023091611245e-01 
       3.890349143014e-01       9.593713771258e-02 
       4.025469215929e-01       8.950755668091e-02 
       4.166424455447e-01       8.311140075980e-02 
       4.313708034899e-01       7.721542475960e-02 
       4.467893781976e-01       7.190027353851e-02 
       4.629654198623e-01       6.686897654128e-02 
       4.799783500912e-01       6.191730658022e-02 
       4.979227318246e-01       5.722215090606e-02 
       5.169121269689e-01       5.290282744235e-02 
       5.370841403262e-01       4.876959497805e-02 
       5.586070463286e-01       4.479056654054e-02 
       5.816885093582e-01       4.105165819969e-02 
       6.065870143577e-01       3.748967178709e-02 
       6.336266466978e-01       3.407612515676e-02 
       6.632156057925e-01       3.083455651021e-02 
       6.958678637575e-01       2.772812613931e-02 
       7.322247983784e-01       2.476692899049e-02 
       7.730680193171e-01       2.193946828320e-02 
       8.193049551574e-01       1.925596750768e-02 
       8.718988013754e-01       1.672906331161e-02 
       9.317218028590e-01       1.438403669399e-02 
       9.993660906273e-01       1.225050122796e-02 
       1.075037109879e+00       1.035246081005e-02 
       1.158653485387e+00       8.699572372814e-03 
       1.250099156961e+00       7.284448360871e-03 
       1.349432400897e+00       6.085306628514e-03 
       1.456947456991e+00       5.075556933277e-03 
       1.573135110893e+00       4.228127806817e-03 
       1.698621895119e+00       3.518379210295e-03 
       1.834127512423e+00       2.924819300855e-03 
       1.980444933977e+00       2.429010698901e-03 
       2.138435191130e+00       2.015359017951e-03 
       2.309029198543e+00       1.670629899660e-03 
       2.493232376993e+00       1.383642780326e-03 
       2.692130394536e+00       1.144976910314e-03 
       2.906895533764e+00       9.467091760583e-04 
       3.138793596840e+00       7.821428478156e-04 
       3.389191365541e+00       6.456816167397e-04 
       3.659564656886e+00       5.326272165553e-04 
       3.951507021438e+00       4.390428765714e-04 
       4.266739135513e+00       3.616520793453e-04 
       4.607118942658e+00       2.976919814667e-04 
       4.974652604172e+00       2.448803178718e-04 
       5.371506323193e+00       2.013050069561e-04 
       5.800019112071e+00       1.653770763676e-04 
       6.262716578240e+00       1.357776371940e-04 
       6.762325809881e+00       1.114058301589e-04 
       7.301791449077e+00       9.135432368890e-05 
       7.884293047211e+00       7.486746329942e-05 
       8.513263804891e+00       6.131984378460e-05 
       9.192410806865e+00       5.019436069073e-05 
       9.925736871166e+00       4.106406573397e-05 
       1.071756414128e+01       3.357479654461e-05 
       1.157255956041e+01       2.743539098360e-05 
       1.249576237789e+01       2.240562390095e-05 
       1.349261385000e+01       1.828693617963e-05 
       1.456898931011e+01       1.491618750613e-05 
       1.573123279727e+01       1.215903122258e-05 
       1.698619444729e+01       9.905033583344e-06 
       1.834127086665e+01       8.063128402936e-06 
       1.980444872733e+01       6.558943733355e-06 
       2.138435183937e+01       5.331040328399e-06 
       2.309029197863e+01       4.329282828448e-06 
       2.493232376942e+01       3.512412560284e-06 
       2.692130394533e+01       2.846687530136e-06 
       2.906895533764e+01       2.304439449636e-06 
       3.138793596840e+01       1.863005263904e-06 
       3.389191365541e+01       1.503883335141e-06 
       3.659564656886e+01       1.211912546533e-06 
       3.951507021438e+01       9.746842821893e-07 
       4.266739135513e+01       7.821229514754e-07 
       4.607118942658e+01       6.259432131168e-07 
       4.974652604172e+01       4.993964709397e-07 
       5.371506323193e+01       3.969962124671e-07 
       5.800019112071e+01       3.142396057362e-07 
       6.262716578240e+01       2.474850758487e-07 
       6.762325809881e+01       1.937475601468e-07 
