# Matter power spectrum P(k) at redshift z=0
# for k=1.04775e-05 to 67.6233 h/Mpc,
# number of wavenumbers equal to 246
#    1:k (h/Mpc)              2:P (Mpc/h)^3        
       1.047750691338e-05       5.020964806755e+01 
       1.131335172818e-05       5.407048206553e+01 
       1.221587619877e-05       5.822819063758e+01 
       1.319039970550e-05       6.270562589680e+01 
       1.424266598317e-05       6.752731788102e+01 
       1.537887697396e-05       7.271977200258e+01 
       1.660572938097e-05       7.831147241542e+01 
       1.793045413791e-05       8.433311815128e+01 
       1.936085902737e-05       9.081778242446e+01 
       2.090537469909e-05       9.780108061339e+01 
       2.257310435923e-05       1.053213197032e+02 
       2.437387742372e-05       1.134197377001e+02 
       2.631830745176e-05       1.221408202816e+02 
       2.841785470091e-05       1.315324720916e+02 
       3.068489367268e-05       1.416462093730e+02 
       3.313278604643e-05       1.525374500691e+02 
       3.577595943165e-05       1.642660687078e+02 
       3.862999240274e-05       1.768963504868e+02 
       4.171170631739e-05       1.904975992460e+02 
       4.503926445983e-05       2.051444490305e+02 
       4.863227909323e-05       2.209171463752e+02 
       5.251192705226e-05       2.379022222314e+02 
       5.670107455699e-05       2.561927925524e+02 
       6.122441198393e-05       2.758890441791e+02 
       6.610859938837e-05       2.970989225466e+02 
       7.138242363583e-05       3.199385558200e+02 
       7.707696806873e-05       3.445329780878e+02 
       8.322579570814e-05       3.710167315928e+02 
       8.986514707061e-05       3.995346440954e+02 
       9.703415376577e-05       4.302425403884e+02 
       1.047750691338e-04       4.633080762974e+02 
       1.131335172818e-04       4.989116267507e+02 
       1.221587619877e-04       5.372471946561e+02 
       1.319039970550e-04       5.785234124629e+02 
       1.424266598317e-04       6.229645930980e+02 
       1.537887697396e-04       6.708118484951e+02 
       1.660572938097e-04       7.223242660220e+02 
       1.793045413791e-04       7.777801553638e+02 
       1.936085902737e-04       8.374783607333e+02 
       2.090537469909e-04       9.017396264495e+02 
       2.257310435923e-04       9.709080260151e+02 
       2.437387742372e-04       1.045352448644e+03 
       2.631830745176e-04       1.125468122836e+03 
       2.841785470091e-04       1.211678179510e+03 
       3.068489367268e-04       1.304435249091e+03 
       3.313278604643e-04       1.404223052541e+03 
       3.577595943165e-04       1.511558013390e+03 
       3.862999240274e-04       1.626990836468e+03 
       4.171170631739e-04       1.751108027370e+03 
       4.503926445983e-04       1.884533381345e+03 
       4.863227909323e-04       2.027929376470e+03 
       5.251192705226e-04       2.181998446367e+03 
       5.670107455699e-04       2.347484100857e+03 
       6.122441198393e-04       2.525171869333e+03 
       6.610859938837e-04       2.715889981399e+03 
       7.138242363583e-04       2.920509686082e+03 
       7.707696806873e-04       3.139945097709e+03 
       8.322579570814e-04       3.375152334394e+03 
       8.986514707061e-04       3.627127828228e+03 
       9.703415376577e-04       3.896905450013e+03 
       1.047750691338e-03       4.185552170960e+03 
       1.131335172818e-03       4.494162426786e+03 
       1.221587619877e-03       4.823850702660e+03 
       1.319039970550e-03       5.175742740173e+03 
       1.424266598317e-03       5.551019592510e+03 
       1.537887697396e-03       5.950788335860e+03 
       1.660572938097e-03       6.376123046803e+03 
       1.793045413791e-03       6.828073896108e+03 
       1.936085902737e-03       7.307625375358e+03 
       2.090537469909e-03       7.815671859491e+03 
       2.257310435923e-03       8.352990369356e+03 
       2.437387742372e-03       8.920211057485e+03 
       2.631830745176e-03       9.517783061815e+03 
       2.841785470091e-03       1.014593703662e+04 
       3.068489367268e-03       1.080464505725e+04 
       3.313278604643e-03       1.149357459493e+04 
       3.577595943165e-03       1.221203620807e+04 
       3.862999240274e-03       1.295892538481e+04 
       4.171170631739e-03       1.373266002221e+04 
       4.503926445983e-03       1.453111834557e+04 
       4.863227909323e-03       1.535154982855e+04 
       5.251192705226e-03       1.619063605314e+04 
       5.670107455699e-03       1.704431256197e+04 
       6.122441198393e-03       1.790755943162e+04 
       6.610859938837e-03       1.877460423687e+04 
       7.138242363583e-03       1.963872444471e+04 
       7.707696806873e-03       2.049215711749e+04 
       8.322579570814e-03       2.132611394863e+04 
       8.986514707061e-03       2.213055182682e+04 
       9.703415376577e-03       2.289445529157e+04 
       1.047750691338e-02       2.360548624514e+04 
       1.131335172818e-02       2.425022971872e+04 
       1.221587619877e-02       2.481423939227e+04 
       1.319039970550e-02       2.528219065382e+04 
       1.424266598317e-02       2.563814564118e+04 
       1.537887697392e-02       2.586607402039e+04 
       1.660572938023e-02       2.595029507871e+04 
       1.793045412706e-02       2.587633541803e+04 
       1.936085890181e-02       2.563218721688e+04 
       2.090537352463e-02       2.520934242840e+04 
       2.257309535333e-02       2.460446242690e+04 
       2.437382002918e-02       2.382092231905e+04 
       2.631799944462e-02       2.287052618533e+04 
       2.841644545389e-02       2.177458945948e+04 
       3.067933355377e-02       2.056552778516e+04 
       3.311368470740e-02       1.928731419869e+04 
       3.571840443502e-02       1.799402201613e+04 
       3.847720348444e-02       1.674675507531e+04 
       4.135335538431e-02       1.560454711110e+04 
       4.429361667738e-02       1.461034005274e+04 
       4.724366439141e-02       1.378054199111e+04 
       5.016480835311e-02       1.310504803344e+04 
       5.303989620246e-02       1.255713404599e+04 
       5.586870669566e-02       1.210424529618e+04 
       5.866042680613e-02       1.171471220521e+04 
       6.142798932958e-02       1.136049095425e+04 
       6.418496440164e-02       1.101862949565e+04 
       6.694418833788e-02       1.067069863692e+04 
       6.971731106057e-02       1.030357124687e+04 
       7.251476155766e-02       9.909051795072e+03 
       7.534587671527e-02       9.483719510395e+03 
       7.821907666265e-02       9.029419390566e+03 
       8.114203772912e-02       8.552222264032e+03 
       8.412184535029e-02       8.061962380890e+03 
       8.716512279304e-02       7.570808617746e+03 
       9.027813695930e-02       7.092463961547e+03 
       9.346688431697e-02       6.640528097973e+03 
       9.673716028276e-02       6.226739094036e+03 
       1.000946150830e-01       5.859947945144e+03 
       1.035447986537e-01       5.545257447119e+03 
       1.070931966762e-01       5.283159403161e+03 
       1.107452594425e-01       5.069428976860e+03 
       1.145064249153e-01       4.895254281917e+03 
       1.183821370918e-01       4.747856518629e+03 
       1.223778605862e-01       4.611742359165e+03 
       1.264990921987e-01       4.470617997658e+03 
       1.307513701367e-01       4.310253590253e+03 
       1.351402814784e-01       4.121401609921e+03 
       1.396714684203e-01       3.902076844846e+03 
       1.443506338194e-01       3.658651393101e+03 
       1.491835465229e-01       3.404473973764e+03 
       1.541760469708e-01       3.156662033478e+03 
       1.593340535561e-01       2.931927425687e+03 
       1.646635702297e-01       2.742353394646e+03 
       1.701706958456e-01       2.592242752435e+03 
       1.758616357459e-01       2.477219964586e+03 
       1.817427160982e-01       2.385158993800e+03 
       1.878204015065e-01       2.300355609638e+03 
       1.941013164283e-01       2.205746594756e+03 
       2.005922709503e-01       2.090799343560e+03 
       2.073002914972e-01       1.956465312476e+03 
       2.142326570816e-01       1.814166110423e+03 
       2.213969417533e-01       1.679268925410e+03 
       2.288010639706e-01       1.563829749744e+03 
       2.364533437147e-01       1.472665969296e+03 
       2.443625682930e-01       1.401503777180e+03 
       2.525380679504e-01       1.338399260321e+03 
       2.609898026346e-01       1.270891144500e+03 
       2.697284615565e-01       1.193370583429e+03 
       2.787655775689e-01       1.109323037909e+03 
       2.881136588829e-01       1.028753077495e+03 
       2.977863412677e-01       9.604651663800e+02 
       3.077985646929e-01       9.050063707990e+02 
       3.181667794071e-01       8.561312458703e+02 
       3.289091877812e-01       8.061679930376e+02 
       3.400460299658e-01       7.523752969105e+02 
       3.515999236474e-01       6.989030586761e+02 
       3.635962711085e-01       6.510407193135e+02 
       3.760637506334e-01       6.101008836225e+02 
       3.890349143879e-01       5.721119629402e+02 
       4.025469216825e-01       5.337601369807e+02 
       4.166424456376e-01       4.956072957522e+02 
       4.313708035863e-01       4.604434863589e+02 
       4.467893782977e-01       4.287509746674e+02 
       4.629654199664e-01       3.987457770653e+02 
       4.799783501994e-01       3.692152734962e+02 
       4.979227319373e-01       3.412104620031e+02 
       5.169121270864e-01       3.154519674849e+02 
       5.370841404489e-01       2.908028857715e+02 
       5.586070464571e-01       2.670717233197e+02 
       5.816885094930e-01       2.447736648355e+02 
       6.065870144995e-01       2.235291527533e+02 
       6.336266468475e-01       2.031695754952e+02 
       6.632156059511e-01       1.838360449339e+02 
       6.958678639263e-01       1.653080301978e+02 
       7.322247985589e-01       1.476451768730e+02 
       7.730680195114e-01       1.307805414855e+02 
       8.193049553677e-01       1.147732373597e+02 
       8.718988016039e-01       9.969930377121e+01 
       9.317218031082e-01       8.570909543111e+01 
       9.993660908989e-01       7.297930944377e+01 
       1.075037110174e+00       6.165282369531e+01 
       1.158653485707e+00       5.178757407174e+01 
       1.250099157308e+00       4.333913413424e+01 
       1.349432401273e+00       3.617805443980e+01 
       1.456947457397e+00       3.014540113069e+01 
       1.573135111331e+00       2.507995375694e+01 
       1.698621895592e+00       2.083441881782e+01 
       1.834127512934e+00       1.728077037314e+01 
       1.980444934528e+00       1.430905472479e+01 
       2.138435191726e+00       1.182627395439e+01 
       2.309029199186e+00       9.753482778817e+00 
       2.493232377687e+00       8.024061859033e+00 
       2.692130395285e+00       6.582003413680e+00 
       2.906895534573e+00       5.379969379649e+00 
       3.138793597714e+00       4.378400346847e+00 
       3.389191366484e+00       3.544050252461e+00 
       3.659564657905e+00       2.849346846895e+00 
       3.951507022538e+00       2.271273939542e+00 
       4.266739136701e+00       1.790753765109e+00 
       4.607118943941e+00       1.392133858761e+00 
       4.974652605557e+00       1.062617569349e+00 
       5.371506324689e+00       7.918404070969e-01 
       5.800019113685e+00       5.714377015632e-01 
       6.262716579983e+00       3.947452728623e-01 
       6.762325811764e+00       2.564098957163e-01 
       7.301791451110e+00       1.520713609433e-01 
       7.884293049406e+00       7.794721764058e-02 
       8.513263807261e+00       3.048264211899e-02 
       9.192410809424e+00       5.953744395397e-03 
       9.925736873929e+00       1.359469562690e-04 
       1.071756414427e+01       8.092977248819e-03 
       1.157255956364e+01       2.417830832343e-02 
       1.249576238137e+01       4.235461235131e-02 
       1.349261385375e+01       5.689209408482e-02 
       1.456898931416e+01       6.336223810652e-02 
       1.573123280165e+01       5.973328189859e-02 
       1.698619445202e+01       4.710319539588e-02 
       1.834127087176e+01       2.959509444531e-02 
       1.980444873285e+01       1.302122878251e-02 
       2.138435184532e+01       2.526048506238e-03 
       2.309029198506e+01       1.164960943103e-04 
       2.493232377636e+01       3.575686862722e-03 
       2.692130395282e+01       7.889745834762e-03 
       2.906895534573e+01       8.735545111627e-03 
       3.138793597714e+01       5.586870391259e-03 
       3.389191366484e+01       1.591102707013e-03 
       3.659564657905e+01       1.070486622684e-06 
       3.951507022538e+01       8.060328808061e-04 
       4.266739136701e+01       1.510867469367e-03 
       4.607118943941e+01       8.625467696330e-04 
       4.974652605557e+01       7.035362711907e-05 
       5.371506324689e+01       1.074853884041e-04 
       5.800019113685e+01       2.655762981785e-04 
       6.262716579983e+01       8.009432152373e-05 
       6.762325811764e+01       5.286356540804e-06 
