# Matter power spectrum P(k) at redshift z=99
# for k=1.04775e-05 to 67.6233 h/Mpc,
# number of wavenumbers equal to 246
#    1:k (h/Mpc)              2:P (Mpc/h)^3        
       1.047750691338e-05       7.261927719168e-03 
       1.131335172818e-05       7.820331795319e-03 
       1.221587619877e-05       8.421676040065e-03 
       1.319039970550e-05       9.069258249976e-03 
       1.424266598317e-05       9.766638466222e-03 
       1.537887697396e-05       1.051764076351e-02 
       1.660572938097e-05       1.132639112693e-02 
       1.793045413791e-05       1.219733239135e-02 
       1.936085902737e-05       1.313524232690e-02 
       2.090537469909e-05       1.414527130838e-02 
       2.257310435923e-05       1.523296281865e-02 
       2.437387742372e-05       1.640429454937e-02 
       2.631830745176e-05       1.766569593385e-02 
       2.841785470091e-05       1.902408613798e-02 
       3.068489367268e-05       2.048692983593e-02 
       3.313278604643e-05       2.206225527539e-02 
       3.577595943165e-05       2.375870719910e-02 
       3.862999240274e-05       2.558560743715e-02 
       4.171170631739e-05       2.755297780680e-02 
       4.503926445983e-05       2.967161946188e-02 
       4.863227909323e-05       3.195316470923e-02 
       5.251192705226e-05       3.441013541273e-02 
       5.670107455699e-05       3.705601745984e-02 
       6.122441198393e-05       3.990533439376e-02 
       6.610859938837e-05       4.297372195396e-02 
       7.138242363583e-05       4.627802171020e-02 
       7.707696806873e-05       4.983636225683e-02 
       8.322579570814e-05       5.366826881041e-02 
       8.986514707061e-05       5.779476427279e-02 
       9.703415376577e-05       6.223848283414e-02 
       1.047750691338e-04       6.702379907978e-02 
       1.131335172818e-04       7.217695199103e-02 
       1.221587619877e-04       7.772619122430e-02 
       1.319039970550e-04       8.370193485228e-02 
       1.424266598317e-04       9.013692564276e-02 
       1.537887697396e-04       9.706641303689e-02 
       1.660572938097e-04       1.045283360850e-01 
       1.793045413791e-04       1.125635356127e-01 
       1.936085902737e-04       1.212159622580e-01 
       2.090537469909e-04       1.305329140890e-01 
       2.257310435923e-04       1.405652855001e-01 
       2.437387742372e-04       1.513678311989e-01 
       2.631830745176e-04       1.629994514943e-01 
       2.841785470091e-04       1.755234932120e-01 
       3.068489367268e-04       1.890080682108e-01 
       3.313278604643e-04       2.035264014978e-01 
       3.577595943165e-04       2.191571817122e-01 
       3.862999240274e-04       2.359849451862e-01 
       4.171170631739e-04       2.541004756948e-01 
       4.503926445983e-04       2.736012103291e-01 
       4.863227909323e-04       2.945916808522e-01 
       5.251192705226e-04       3.171839543929e-01 
       5.670107455699e-04       3.414980783853e-01 
       6.122441198393e-04       3.676625434199e-01 
       6.610859938837e-04       3.958147274604e-01 
       7.138242363583e-04       4.261013308275e-01 
       7.707696806873e-04       4.586787816875e-01 
       8.322579570814e-04       4.937136027120e-01 
       8.986514707061e-04       5.313826828058e-01 
       9.703415376577e-04       5.718734999631e-01 
       1.047750691338e-03       6.153841657447e-01 
       1.131335172818e-03       6.621233267468e-01 
       1.221587619877e-03       7.123098247903e-01 
       1.319039970550e-03       7.661720610379e-01 
       1.424266598317e-03       8.239546322246e-01 
       1.537887697396e-03       8.859011194532e-01 
       1.660572938097e-03       9.522588021498e-01 
       1.793045413791e-03       1.023280100419e+00 
       1.936085902737e-03       1.099216303824e+00 
       2.090537469909e-03       1.180312987769e+00 
       2.257310435923e-03       1.266804110456e+00 
       2.437387742372e-03       1.358904844299e+00 
       2.631830745176e-03       1.456802668961e+00 
       2.841785470091e-03       1.560646869415e+00 
       3.068489367268e-03       1.670536032035e+00 
       3.313278604643e-03       1.786503809021e+00 
       3.577595943165e-03       1.908502870572e+00 
       3.862999240274e-03       2.036387647419e+00 
       4.171170631739e-03       2.169896091480e+00 
       4.503926445983e-03       2.308631722489e+00 
       4.863227909323e-03       2.452047077525e+00 
       5.251192705226e-03       2.599430337817e+00 
       5.670107455699e-03       2.749896537456e+00 
       6.122441198393e-03       2.902385979448e+00 
       6.610859938837e-03       3.055667991689e+00 
       7.138242363583e-03       3.208355486334e+00 
       7.707696806873e-03       3.358922581328e+00 
       8.322579570814e-03       3.505722299444e+00 
       8.986514707061e-03       3.647007232548e+00 
       9.703415376577e-03       3.780920144495e+00 
       1.047750691338e-02       3.905486157186e+00 
       1.131335172818e-02       4.018582069170e+00 
       1.221587619877e-02       4.117894232421e+00 
       1.319039970550e-02       4.200905701365e+00 
       1.424266598317e-02       4.264929803578e+00 
       1.537887697392e-02       4.307201255795e+00 
       1.660572938023e-02       4.325040559937e+00 
       1.793045412706e-02       4.316031489105e+00 
       1.936085890181e-02       4.278193504185e+00 
       2.090537352463e-02       4.210156049757e+00 
       2.257309535333e-02       4.111365960128e+00 
       2.437382002918e-02       3.982350154984e+00 
       2.631799944462e-02       3.825081225700e+00 
       2.841644545389e-02       3.643171997213e+00 
       3.067933355377e-02       3.442056332212e+00 
       3.311368470740e-02       3.229085407348e+00 
       3.571840443502e-02       3.013311646613e+00 
       3.847720348444e-02       2.805056949896e+00 
       4.135335538431e-02       2.614145723187e+00 
       4.429361667738e-02       2.447828010423e+00 
       4.724366439141e-02       2.308893339898e+00 
       5.016480835311e-02       2.195727609625e+00 
       5.303989620246e-02       2.103941428600e+00 
       5.586870669566e-02       2.028004983750e+00 
       5.866042680613e-02       1.962652991714e+00 
       6.142798932958e-02       1.903247978346e+00 
       6.418496440164e-02       1.845913370678e+00 
       6.694418833788e-02       1.787605206516e+00 
       6.971731106057e-02       1.726095457335e+00 
       7.251476155766e-02       1.660010836135e+00 
       7.534587671527e-02       1.588804629530e+00 
       7.821907666265e-02       1.512753249582e+00 
       8.114203772912e-02       1.432865944623e+00 
       8.412184535029e-02       1.350775676304e+00 
       8.716512279304e-02       1.268546009506e+00 
       9.027813695930e-02       1.188448565131e+00 
       9.346688431697e-02       1.112741862581e+00 
       9.673716028276e-02       1.043396080815e+00 
       1.000946150830e-01       9.819113627751e-01 
       1.035447986537e-01       9.291242328573e-01 
       1.070931966762e-01       8.851159027674e-01 
       1.107452594425e-01       8.492035415411e-01 
       1.145064249153e-01       8.199078250216e-01 
       1.183821370918e-01       7.951016256588e-01 
       1.223778605862e-01       7.721926599583e-01 
       1.264990921987e-01       7.484712835507e-01 
       1.307513701367e-01       7.215552651221e-01 
       1.351402814784e-01       6.898898326651e-01 
       1.396714684203e-01       6.531527540902e-01 
       1.443506338194e-01       6.123908424489e-01 
       1.491835465229e-01       5.698310839690e-01 
       1.541760469708e-01       5.283236509030e-01 
       1.593340535561e-01       4.906661141658e-01 
       1.646635702297e-01       4.588660953059e-01 
       1.701706958456e-01       4.336594853614e-01 
       1.758616357459e-01       4.143188330930e-01 
       1.817427160982e-01       3.988245434720e-01 
       1.878204015065e-01       3.845494737437e-01 
       1.941013164283e-01       3.686581387552e-01 
       2.005922709503e-01       3.493849174636e-01 
       2.073002914972e-01       3.268816043387e-01 
       2.142326570816e-01       3.030552254340e-01 
       2.213969417533e-01       2.804557580624e-01 
       2.288010639706e-01       2.611001810806e-01 
       2.364533437147e-01       2.457967609434e-01 
       2.443625682930e-01       2.338343632716e-01 
       2.525380679504e-01       2.232258876481e-01 
       2.609898026346e-01       2.118922157060e-01 
       2.697284615565e-01       1.988987854674e-01 
       2.787655775689e-01       1.848218516628e-01 
       2.881136588829e-01       1.713243936655e-01 
       2.977863412677e-01       1.598738972044e-01 
       3.077985646929e-01       1.505644653319e-01 
       3.181667794071e-01       1.423565152890e-01 
       3.289091877812e-01       1.339767096818e-01 
       3.400460299658e-01       1.249627586956e-01 
       3.515999236474e-01       1.160064662790e-01 
       3.635962711085e-01       1.079853801000e-01 
       3.760637506334e-01       1.011187853887e-01 
       3.890349143879e-01       9.474765067946e-02 
       4.025469216825e-01       8.832157270128e-02 
       4.166424456376e-01       8.193240774420e-02 
       4.313708035863e-01       7.604223598038e-02 
       4.467893782977e-01       7.073195166649e-02 
       4.629654199664e-01       6.570579851611e-02 
       4.799783501994e-01       6.076180310431e-02 
       4.979227319373e-01       5.607495601473e-02 
       5.169121270864e-01       5.176329750493e-02 
       5.370841404489e-01       4.763909494799e-02 
       5.586070464571e-01       4.367028020912e-02 
       5.816885094930e-01       3.994210313651e-02 
       6.065870144995e-01       3.639165601810e-02 
       6.336266468475e-01       3.299090535327e-02 
       6.632156059511e-01       2.976318698934e-02 
       6.958678639263e-01       2.667237792328e-02 
       7.322247985589e-01       2.372811339570e-02 
       7.730680195114e-01       2.091933768116e-02 
       8.193049553677e-01       1.825689525225e-02 
       8.718988016039e-01       1.575332028030e-02 
       9.317218031082e-01       1.343395127293e-02 
       9.993660908989e-01       1.132856877830e-02 
       1.075037110174e+00       9.460745123558e-03 
       1.158653485707e+00       7.839728119196e-03 
       1.250099157308e+00       6.457772225544e-03 
       1.349432401273e+00       5.292798688588e-03 
       1.456947457397e+00       4.317918515546e-03 
       1.573135111331e+00       3.505970887802e-03 
       1.698621895592e+00       2.832165017001e-03 
       1.834127512934e+00       2.274912483520e-03 
       1.980444934528e+00       1.815702238166e-03 
       2.138435191726e+00       1.438792045269e-03 
       2.309029199186e+00       1.130840477275e-03 
       2.493232377687e+00       8.805872014453e-04 
       2.692130395285e+00       6.784135136580e-04 
       2.906895534573e+00       5.162691702255e-04 
       3.138793597714e+00       3.873038329129e-04 
       3.389191366484e+00       2.857393137943e-04 
       3.659564657905e+00       2.066982051176e-04 
       3.951507022538e+00       1.460529778983e-04 
       4.266739136701e+00       1.003152716194e-04 
       4.607118943941e+00       6.653894934112e-05 
       4.974652605557e+00       4.223852458628e-05 
       5.371506324689e+00       2.532615360998e-05 
       5.800019113685e+00       1.405208546104e-05 
       6.262716579983e+00       6.964767498697e-06 
       6.762325811764e+00       2.875723810318e-06 
       7.301791451110e+00       8.289876260725e-07 
       7.884293049406e+00       7.517896383738e-08 
       8.513263807261e+00       4.955519768806e-08 
       9.192410809424e+00       3.487617716720e-07 
       9.925736873929e+00       7.077546661974e-07 
       1.071756414427e+01       9.757942625057e-07 
       1.157255956364e+01       1.090573003568e-06 
       1.249576238137e+01       1.052616836077e-06 
       1.349261385375e+01       9.002009712534e-07 
       1.456898931416e+01       6.874319368153e-07 
       1.573123280165e+01       4.665579691326e-07 
       1.698619445202e+01       2.764786448574e-07 
       1.834127087176e+01       1.376549948049e-07 
       1.980444873285e+01       5.290326890799e-08 
       2.138435184532e+01       1.237252645824e-08 
       2.309029198506e+01       3.937917835189e-10 
       2.493232377636e+01       1.796336329064e-09 
       2.692130395282e+01       5.913803816178e-09 
       2.906895534573e+01       7.714796055326e-09 
       3.138793597714e+01       6.586351020512e-09 
       3.389191366484e+01       4.052575213685e-09 
       3.659564657905e+01       1.754318260660e-09 
       3.951507022538e+01       4.492184880649e-10 
       4.266739136701e+01       2.641134885431e-11 
       4.607118943941e+01       2.262781516876e-11 
       4.974652605557e+01       7.718135464252e-11 
       5.371506324689e+01       7.180362854678e-11 
       5.800019113685e+01       3.431378428573e-11 
       6.262716579983e+01       7.787090994395e-12 
       6.762325811764e+01       2.178497629586e-13 
