# Matter power spectrum P(k) at redshift z=99
# for k=1.04775e-05 to 67.6233 h/Mpc,
# number of wavenumbers equal to 246
#    1:k (h/Mpc)              2:P (Mpc/h)^3        
       1.047750691338e-05       7.261927684307e-03 
       1.131335172818e-05       7.820331757784e-03 
       1.221587619877e-05       8.421675999509e-03 
       1.319039970550e-05       9.069258206222e-03 
       1.424266598317e-05       9.766638419445e-03 
       1.537887697396e-05       1.051764071302e-02 
       1.660572938097e-05       1.132639107262e-02 
       1.793045413791e-05       1.219733233293e-02 
       1.936085902737e-05       1.313524226401e-02 
       2.090537469909e-05       1.414527124068e-02 
       2.257310435923e-05       1.523296274542e-02 
       2.437387742372e-05       1.640429447059e-02 
       2.631830745176e-05       1.766569584907e-02 
       2.841785470091e-05       1.902408604701e-02 
       3.068489367268e-05       2.048692973752e-02 
       3.313278604643e-05       2.206225516982e-02 
       3.577595943165e-05       2.375870708550e-02 
       3.862999240274e-05       2.558560731418e-02 
       4.171170631739e-05       2.755297767559e-02 
       4.503926445983e-05       2.967161931910e-02 
       4.863227909323e-05       3.195316455727e-02 
       5.251192705226e-05       3.441013524612e-02 
       5.670107455699e-05       3.705601728217e-02 
       6.122441198393e-05       3.990533419884e-02 
       6.610859938837e-05       4.297372174810e-02 
       7.138242363583e-05       4.627802148821e-02 
       7.707696806873e-05       4.983636201821e-02 
       8.322579570814e-05       5.366826855454e-02 
       8.986514707061e-05       5.779476404054e-02 
       9.703415376577e-05       6.223848253508e-02 
       1.047750691338e-04       6.702379875932e-02 
       1.131335172818e-04       7.217695164507e-02 
       1.221587619877e-04       7.772619085481e-02 
       1.319039970550e-04       8.370193445226e-02 
       1.424266598317e-04       9.013692521321e-02 
       1.537887697396e-04       9.706641257423e-02 
       1.660572938097e-04       1.045283355870e-01 
       1.793045413791e-04       1.125635350784e-01 
       1.936085902737e-04       1.212159616818e-01 
       2.090537469909e-04       1.305329134701e-01 
       2.257310435923e-04       1.405652848350e-01 
       2.437387742372e-04       1.513678304836e-01 
       2.631830745176e-04       1.629994507319e-01 
       2.841785470091e-04       1.755234923871e-01 
       3.068489367268e-04       1.890080673254e-01 
       3.313278604643e-04       2.035264005481e-01 
       3.577595943165e-04       2.191571806945e-01 
       3.862999240274e-04       2.359849441067e-01 
       4.171170631739e-04       2.541004745279e-01 
       4.503926445983e-04       2.736012084266e-01 
       4.863227909323e-04       2.945916795225e-01 
       5.251192705226e-04       3.171839529728e-01 
       5.670107455699e-04       3.414980768816e-01 
       6.122441198393e-04       3.676625418214e-01 
       6.610859938837e-04       3.958147257705e-01 
       7.138242363583e-04       4.261013290569e-01 
       7.707696806873e-04       4.586787798286e-01 
       8.322579570814e-04       4.937136007597e-01 
       8.986514707061e-04       5.313826807811e-01 
       9.703415376577e-04       5.718734978776e-01 
       1.047750691338e-03       6.153841636224e-01 
       1.131335172818e-03       6.621233246179e-01 
       1.221587619877e-03       7.123098226988e-01 
       1.319039970550e-03       7.661720590659e-01 
       1.424266598317e-03       8.239546303513e-01 
       1.537887697396e-03       8.859011178355e-01 
       1.660572938097e-03       9.522588009689e-01 
       1.793045413791e-03       1.023280099910e+00 
       1.936085902737e-03       1.099216304308e+00 
       2.090537469909e-03       1.180312989663e+00 
       2.257310435923e-03       1.266804114325e+00 
       2.437387742372e-03       1.358904850871e+00 
       2.631830745176e-03       1.456802679228e+00 
       2.841785470091e-03       1.560646884690e+00 
       3.068489367268e-03       1.670536054076e+00 
       3.313278604643e-03       1.786503840204e+00 
       3.577595943165e-03       1.908502914057e+00 
       3.862999240274e-03       2.036387707485e+00 
       4.171170631739e-03       2.169896178483e+00 
       4.503926445983e-03       2.308631834998e+00 
       4.863227909323e-03       2.452047230701e+00 
       5.251192705226e-03       2.599430545757e+00 
       5.670107455699e-03       2.749896819469e+00 
       6.122441198393e-03       2.902386360502e+00 
       6.610859938837e-03       3.055668494099e+00 
       7.138242363583e-03       3.208356179540e+00 
       7.707696806873e-03       3.358923511536e+00 
       8.322579570814e-03       3.505725079678e+00 
       8.986514707061e-03       3.647009028351e+00 
       9.703415376577e-03       3.780922371704e+00 
       1.047750691338e-02       3.905489648783e+00 
       1.131335172818e-02       4.018586010880e+00 
       1.221587619877e-02       4.117899376851e+00 
       1.319039970550e-02       4.200912347264e+00 
       1.424266598317e-02       4.264938586184e+00 
       1.537887697392e-02       4.307215073631e+00 
       1.660572938023e-02       4.325054140327e+00 
       1.793045412706e-02       4.316047904567e+00 
       1.936085890181e-02       4.278219737719e+00 
       2.090537352463e-02       4.210185214946e+00 
       2.257309535333e-02       4.111404743166e+00 
       2.437382002918e-02       3.982400617375e+00 
       2.631799944462e-02       3.825134437850e+00 
       2.841644545389e-02       3.643248804109e+00 
       3.067933355377e-02       3.442151870071e+00 
       3.311368470740e-02       3.229184682870e+00 
       3.571840443502e-02       3.013450472634e+00 
       3.847720348444e-02       2.805205753617e+00 
       4.135335538431e-02       2.614322994090e+00 
       4.429361667738e-02       2.448028991144e+00 
       4.724366439141e-02       2.309125235696e+00 
       5.016480835311e-02       2.195977793923e+00 
       5.303989620246e-02       2.104216188173e+00 
       5.586870669566e-02       2.028299610693e+00 
       5.866042680613e-02       1.962977640027e+00 
       6.142798932958e-02       1.903591528454e+00 
       6.418496440164e-02       1.846278848994e+00 
       6.694418833788e-02       1.787986557532e+00 
       6.971731106057e-02       1.726486578185e+00 
       7.251476155766e-02       1.660415674309e+00 
       7.534587671527e-02       1.589221358554e+00 
       7.821907666265e-02       1.513178028142e+00 
       8.114203772912e-02       1.433298327747e+00 
       8.412184535029e-02       1.351215622493e+00 
       8.716512279304e-02       1.268985247900e+00 
       9.027813695930e-02       1.188888938426e+00 
       9.346688431697e-02       1.113193918480e+00 
       9.673716028276e-02       1.043857708936e+00 
       1.000946150830e-01       9.823771631912e-01 
       1.035447986537e-01       9.296037793553e-01 
       1.070931966762e-01       8.856091040157e-01 
       1.107452594425e-01       8.497040006850e-01 
       1.145064249153e-01       8.204220890954e-01 
       1.183821370918e-01       7.956290513906e-01 
       1.223778605862e-01       7.727343547043e-01 
       1.264990921987e-01       7.490243866055e-01 
       1.307513701367e-01       7.221181420643e-01 
       1.351402814784e-01       6.904586406033e-01 
       1.396714684203e-01       6.537209817626e-01 
       1.443506338194e-01       6.129603988794e-01 
       1.491835465229e-01       5.703953998278e-01 
       1.541760469708e-01       5.288854948778e-01 
       1.593340535561e-01       4.912242539141e-01 
       1.646635702297e-01       4.594242668598e-01 
       1.701706958456e-01       4.342228285504e-01 
       1.758616357459e-01       4.148887991409e-01 
       1.817427160982e-01       3.994022490675e-01 
       1.878204015065e-01       3.851338998609e-01 
       1.941013164283e-01       3.692475495714e-01 
       2.005922709503e-01       3.499747660358e-01 
       2.073002914972e-01       3.274659038408e-01 
       2.142326570816e-01       3.036327669740e-01 
       2.213969417533e-01       2.810275265748e-01 
       2.288010639706e-01       2.616673613080e-01 
       2.364533437147e-01       2.463631660829e-01 
       2.443625682930e-01       2.344031758818e-01 
       2.525380679504e-01       2.237961613361e-01 
       2.609898026346e-01       2.124613725378e-01 
       2.697284615565e-01       1.994639808388e-01 
       2.787655775689e-01       1.853798436792e-01 
       2.881136588829e-01       1.718752933937e-01 
       2.977863412677e-01       1.604190717571e-01 
       3.077985646929e-01       1.511067675285e-01 
       3.181667794071e-01       1.428969143615e-01 
       3.289091877812e-01       1.345131198596e-01 
       3.400460299658e-01       1.254928312142e-01 
       3.515999236474e-01       1.165292524209e-01 
       3.635962711085e-01       1.085010231852e-01 
       3.760637506334e-01       1.016293136140e-01 
       3.890349143879e-01       9.525326424882e-02 
       4.025469216825e-01       8.882044553117e-02 
       4.166424456376e-01       8.242334900026e-02 
       4.313708035863e-01       7.652588862793e-02 
       4.467893782977e-01       7.120858123723e-02 
       4.629654199664e-01       6.617562005549e-02 
       4.799783501994e-01       6.122357078647e-02 
       4.979227319373e-01       5.652858679429e-02 
       5.169121270864e-01       5.220898912519e-02 
       5.370841404489e-01       4.807612736508e-02 
       5.586070464571e-01       4.409855527776e-02 
       5.816885094930e-01       4.036096785344e-02 
       6.065870144995e-01       3.680101276768e-02 
       6.336266468475e-01       3.339028175944e-02 
       6.632156059511e-01       3.015177339056e-02 
       6.958678639263e-01       2.704982484127e-02 
       7.322247985589e-01       2.409366559034e-02 
       7.730680195114e-01       2.127231348740e-02 
       8.193049553677e-01       1.859636234150e-02 
       8.718988016039e-01       1.607839045536e-02 
       9.317218031082e-01       1.374375221798e-02 
       9.993660908989e-01       1.162235355720e-02 
       1.075037110174e+00       9.738028446276e-03 
       1.158653485707e+00       8.100367324364e-03 
       1.250099157308e+00       6.701750095815e-03 
       1.349432401273e+00       5.520279540542e-03 
       1.456947457397e+00       4.529224478091e-03 
       1.573135111331e+00       3.701427225024e-03 
       1.698621895592e+00       3.012120343896e-03 
       1.834127512934e+00       2.439764168808e-03 
       1.980444934528e+00       1.965845450580e-03 
       2.138435191726e+00       1.574694901513e-03 
       2.309029199186e+00       1.253022174448e-03 
       2.493232377687e+00       9.895375112731e-04 
       2.692130395285e+00       7.747302465100e-04 
       2.906895534573e+00       6.005479274501e-04 
       3.138793597714e+00       4.602083978361e-04 
       3.389191366484e+00       3.479874377473e-04 
       3.659564657905e+00       2.590537645271e-04 
       3.951507022538e+00       1.893247428944e-04 
       4.266739136701e+00       1.353579702642e-04 
       4.607118943941e+00       9.424169763114e-05 
       4.974652605557e+00       6.351630231432e-05 
       5.371506324689e+00       4.110043289806e-05 
       5.800019113685e+00       2.523498142191e-05 
       6.262716579983e+00       1.443934271046e-05 
       6.762325811764e+00       7.472887107298e-06 
       7.301791451110e+00       3.306182320623e-06 
       7.884293049406e+00       1.096842581396e-06 
       8.513263807261e+00       1.713863354236e-07 
       9.192410809424e+00       7.934236251718e-09 
       9.925736873929e+00       2.210419862667e-07 
       1.071756414427e+01       5.456349689861e-07 
       1.157255956364e+01       8.197430717612e-07 
       1.249576238137e+01       9.651356050813e-07 
       1.349261385375e+01       9.667525975567e-07 
       1.456898931416e+01       8.510511381724e-07 
       1.573123280165e+01       6.654343595413e-07 
       1.698619445202e+01       4.605518714948e-07 
       1.834127087176e+01       2.773683163565e-07 
       1.980444873285e+01       1.398958988748e-07 
       2.138435184532e+01       5.431524826200e-08 
       2.309029198506e+01       1.283070652058e-08 
       2.493232377636e+01       4.358482550708e-10 
       2.692130395282e+01       1.732953058274e-09 
       2.906895534573e+01       5.679371180398e-09 
       3.138793597714e+01       7.156458011346e-09 
       3.389191366484e+01       5.752970887433e-09 
       3.659564657905e+01       3.209605396720e-09 
       3.951507022538e+01       1.172326363409e-09 
       4.266739136701e+01       2.055950153690e-10 
       4.607118943941e+01       1.478270216644e-13 
       4.974652605557e+01       4.472836227541e-11 
       5.371506324689e+01       6.428072660649e-11 
       5.800019113685e+01       3.497728402607e-11 
       6.262716579983e+01       7.895468540421e-12 
       6.762325811764e+01       1.680599093375e-13 
