# Matter power spectrum P(k) at redshift z=99
# for k=1.04775e-05 to 67.6233 h/Mpc,
# number of wavenumbers equal to 246
#    1:k (h/Mpc)              2:P (Mpc/h)^3        
       1.047750691338e-05       7.261927686546e-03 
       1.131335172818e-05       7.820331760194e-03 
       1.221587619877e-05       8.421676002110e-03 
       1.319039970550e-05       9.069258209043e-03 
       1.424266598317e-05       9.766638422440e-03 
       1.537887697396e-05       1.051764071626e-02 
       1.660572938097e-05       1.132639107611e-02 
       1.793045413791e-05       1.219733233667e-02 
       1.936085902737e-05       1.313524226803e-02 
       2.090537469909e-05       1.414527124501e-02 
       2.257310435923e-05       1.523296275012e-02 
       2.437387742372e-05       1.640429447564e-02 
       2.631830745176e-05       1.766569585444e-02 
       2.841785470091e-05       1.902408605295e-02 
       3.068489367268e-05       2.048692974382e-02 
       3.313278604643e-05       2.206225517660e-02 
       3.577595943165e-05       2.375870709284e-02 
       3.862999240274e-05       2.558560732207e-02 
       4.171170631739e-05       2.755297768398e-02 
       4.503926445983e-05       2.967161932824e-02 
       4.863227909323e-05       3.195316456689e-02 
       5.251192705226e-05       3.441013525692e-02 
       5.670107455699e-05       3.705601729370e-02 
       6.122441198393e-05       3.990533421109e-02 
       6.610859938837e-05       4.297372176132e-02 
       7.138242363583e-05       4.627802150249e-02 
       7.707696806873e-05       4.983636203351e-02 
       8.322579570814e-05       5.366826857087e-02 
       8.986514707061e-05       5.779476405814e-02 
       9.703415376577e-05       6.223848255408e-02 
       1.047750691338e-04       6.702379877984e-02 
       1.131335172818e-04       7.217695166711e-02 
       1.221587619877e-04       7.772619087812e-02 
       1.319039970550e-04       8.370193447779e-02 
       1.424266598317e-04       9.013692524092e-02 
       1.537887697396e-04       9.706641260391e-02 
       1.660572938097e-04       1.045283356190e-01 
       1.793045413791e-04       1.125635351126e-01 
       1.936085902737e-04       1.212159617188e-01 
       2.090537469909e-04       1.305329135098e-01 
       2.257310435923e-04       1.405652848777e-01 
       2.437387742372e-04       1.513678305295e-01 
       2.631830745176e-04       1.629994507808e-01 
       2.841785470091e-04       1.755234924401e-01 
       3.068489367268e-04       1.890080673823e-01 
       3.313278604643e-04       2.035264006093e-01 
       3.577595943165e-04       2.191571807600e-01 
       3.862999240274e-04       2.359849441761e-01 
       4.171170631739e-04       2.541004746032e-01 
       4.503926445983e-04       2.736012085070e-01 
       4.863227909323e-04       2.945916796085e-01 
       5.251192705226e-04       3.171839530650e-01 
       5.670107455699e-04       3.414980769791e-01 
       6.122441198393e-04       3.676625419253e-01 
       6.610859938837e-04       3.958147258807e-01 
       7.138242363583e-04       4.261013291712e-01 
       7.707696806873e-04       4.586787799504e-01 
       8.322579570814e-04       4.937136008861e-01 
       8.986514707061e-04       5.313826809148e-01 
       9.703415376577e-04       5.718734980172e-01 
       1.047750691338e-03       6.153841637658e-01 
       1.131335172818e-03       6.621233247638e-01 
       1.221587619877e-03       7.123098228449e-01 
       1.319039970550e-03       7.661720592258e-01 
       1.424266598317e-03       8.239546304888e-01 
       1.537887697396e-03       8.859011179625e-01 
       1.660572938097e-03       9.522588010860e-01 
       1.793045413791e-03       1.023280099999e+00 
       1.936085902737e-03       1.099216304368e+00 
       2.090537469909e-03       1.180312989687e+00 
       2.257310435923e-03       1.266804114309e+00 
       2.437387742372e-03       1.358904850792e+00 
       2.631830745176e-03       1.456802679084e+00 
       2.841785470091e-03       1.560646884469e+00 
       3.068489367268e-03       1.670536053769e+00 
       3.313278604643e-03       1.786503839810e+00 
       3.577595943165e-03       1.908502913563e+00 
       3.862999240274e-03       2.036387706904e+00 
       4.171170631739e-03       2.169896160146e+00 
       4.503926445983e-03       2.308631834359e+00 
       4.863227909323e-03       2.452047230157e+00 
       5.251192705226e-03       2.599430545490e+00 
       5.670107455699e-03       2.749896819709e+00 
       6.122441198393e-03       2.902386361812e+00 
       6.610859938837e-03       3.055668504450e+00 
       7.138242363583e-03       3.208356185389e+00 
       7.707696806873e-03       3.358923521965e+00 
       8.322579570814e-03       3.505724609886e+00 
       8.986514707061e-03       3.647008471140e+00 
       9.703415376577e-03       3.780922414031e+00 
       1.047750691338e-02       3.905489983672e+00 
       1.131335172818e-02       4.018586462995e+00 
       1.221587619877e-02       4.117899526088e+00 
       1.319039970550e-02       4.200912710497e+00 
       1.424266598317e-02       4.264938962296e+00 
       1.537887697392e-02       4.307215304297e+00 
       1.660572938023e-02       4.325056438340e+00 
       1.793045412706e-02       4.316048631887e+00 
       1.936085890181e-02       4.278220592816e+00 
       2.090537352463e-02       4.210189915816e+00 
       2.257309535333e-02       4.111406068067e+00 
       2.437382002918e-02       3.982403259926e+00 
       2.631799944462e-02       3.825144827645e+00 
       2.841644545389e-02       3.643246852980e+00 
       3.067933355377e-02       3.442154112096e+00 
       3.311368470740e-02       3.229188857755e+00 
       3.571840443502e-02       3.013458421592e+00 
       3.847720348444e-02       2.805218903918e+00 
       4.135335538431e-02       2.614336065954e+00 
       4.429361667738e-02       2.448047727929e+00 
       4.724366439141e-02       2.309140759071e+00 
       5.016480835311e-02       2.196010828344e+00 
       5.303989620246e-02       2.104247207716e+00 
       5.586870669566e-02       2.028337467586e+00 
       5.866042680613e-02       1.963022077924e+00 
       6.142798932958e-02       1.903639109757e+00 
       6.418496440164e-02       1.846325168855e+00 
       6.694418833788e-02       1.788039185726e+00 
       6.971731106057e-02       1.726548606394e+00 
       7.251476155766e-02       1.660484348519e+00 
       7.534587671527e-02       1.589293577903e+00 
       7.821907666265e-02       1.513259150822e+00 
       8.114203772912e-02       1.433387110050e+00 
       8.412184535029e-02       1.351306325318e+00 
       8.716512279304e-02       1.269084595771e+00 
       9.027813695930e-02       1.189000935283e+00 
       9.346688431697e-02       1.113308238998e+00 
       9.673716028276e-02       1.043972752102e+00 
       1.000946150830e-01       9.825025629330e-01 
       1.035447986537e-01       9.297310158235e-01 
       1.070931966762e-01       8.857461218742e-01 
       1.107452594425e-01       8.498530343660e-01 
       1.145064249153e-01       8.205783661169e-01 
       1.183821370918e-01       7.957922683234e-01 
       1.223778605862e-01       7.729057650740e-01 
       1.264990921987e-01       7.492069655452e-01 
       1.307513701367e-01       7.223079515287e-01 
       1.351402814784e-01       6.906575169221e-01 
       1.396714684203e-01       6.539269398028e-01 
       1.443506338194e-01       6.131740225252e-01 
       1.491835465229e-01       5.706144486789e-01 
       1.541760469708e-01       5.291130071637e-01 
       1.593340535561e-01       4.914586795073e-01 
       1.646635702297e-01       4.596661174309e-01 
       1.701706958456e-01       4.344729277745e-01 
       1.758616357459e-01       4.151487857332e-01 
       1.817427160982e-01       3.996740339652e-01 
       1.878204015065e-01       3.854155840870e-01 
       1.941013164283e-01       3.695401744088e-01 
       2.005922709503e-01       3.502762460160e-01 
       2.073002914972e-01       3.277729958231e-01 
       2.142326570816e-01       3.039469775781e-01 
       2.213969417533e-01       2.813461923143e-01 
       2.288010639706e-01       2.619939526172e-01 
       2.364533437147e-01       2.466985789047e-01 
       2.443625682930e-01       2.347482628465e-01 
       2.525380679504e-01       2.241516109841e-01 
       2.609898026346e-01       2.128268366908e-01 
       2.697284615565e-01       1.998360988241e-01 
       2.787655775689e-01       1.857573487335e-01 
       2.881136588829e-01       1.722568285222e-01 
       2.977863412677e-01       1.608076274742e-01 
       3.077985646929e-01       1.515035266718e-01 
       3.181667794071e-01       1.433028590163e-01 
       3.289091877812e-01       1.349257608901e-01 
       3.400460299658e-01       1.259114412802e-01 
       3.515999236474e-01       1.169517580797e-01 
       3.635962711085e-01       1.089298756830e-01 
       3.760637506334e-01       1.020639170111e-01 
       3.890349143879e-01       9.569418914391e-02 
       4.025469216825e-01       8.926663686134e-02 
       4.166424456376e-01       8.287406242239e-02 
       4.313708035863e-01       7.698069054094e-02 
       4.467893782977e-01       7.166856309467e-02 
       4.629654199664e-01       6.663977126788e-02 
       4.799783501994e-01       6.169194599471e-02 
       4.979227319373e-01       5.700013012032e-02 
       5.169121270864e-01       5.268408816850e-02 
       5.370841404489e-01       4.855473313250e-02 
       5.586070464571e-01       4.457962852165e-02 
       5.816885094930e-01       4.084475192238e-02 
       6.065870144995e-01       3.728681594146e-02 
       6.336266468475e-01       3.387767324707e-02 
       6.632156059511e-01       3.064062513302e-02 
       6.958678639263e-01       2.753926936795e-02 
       7.322247985589e-01       2.458321123705e-02 
       7.730680195114e-01       2.176127031248e-02 
       8.193049553677e-01       1.908387414904e-02 
       8.718988016039e-01       1.656338377476e-02 
       9.317218031082e-01       1.422509654482e-02 
       9.993660908989e-01       1.209859069908e-02 
       1.075037110174e+00       1.020776386749e-02 
       1.158653485707e+00       8.562147156626e-03 
       1.250099157308e+00       7.154210385765e-03 
       1.349432401273e+00       5.962167464260e-03 
       1.456947457397e+00       4.959306108628e-03 
       1.573135111331e+00       4.118540331359e-03 
       1.698621895592e+00       3.415211480974e-03 
       1.834127512934e+00       2.827836623598e-03 
       1.980444934528e+00       2.337967395713e-03 
       2.138435191726e+00       1.930020567999e-03 
       2.309029199186e+00       1.590735066751e-03 
       2.493232377687e+00       1.308973850131e-03 
       2.692130395285e+00       1.075279203544e-03 
       2.906895534573e+00       8.817406617707e-04 
       3.138793597714e+00       7.216681295526e-04 
       3.389191366484e+00       5.894774588136e-04 
       3.659564657905e+00       4.804726185025e-04 
       3.951507022538e+00       3.907232587841e-04 
       4.266739136701e+00       3.169534764615e-04 
       4.607118943941e+00       2.564206294995e-04 
       4.974652605557e+00       2.068384766009e-04 
       5.371506324689e+00       1.663100332719e-04 
       5.800019113685e+00       1.332524750181e-04 
       6.262716579983e+00       1.063481609030e-04 
       6.762325811764e+00       8.451073456681e-05 
       7.301791451110e+00       6.683577946349e-05 
       7.884293049406e+00       5.257512296855e-05 
       8.513263807261e+00       4.111146567965e-05 
       9.192410809424e+00       3.193151023645e-05 
       9.925736873929e+00       2.461546234318e-05 
       1.071756414427e+01       1.881413507939e-05 
       1.157255956364e+01       1.424184016112e-05 
       1.249576238137e+01       1.066257756195e-05 
       1.349261385375e+01       7.883230803781e-06 
       1.456898931416e+01       5.744281406226e-06 
       1.573123280165e+01       4.116102049900e-06 
       1.698619445202e+01       2.892081034453e-06 
       1.834127087176e+01       1.985460334577e-06 
       1.980444873285e+01       1.325764980127e-06 
       2.138435184532e+01       8.558245479645e-07 
       2.309029198506e+01       5.296728812096e-07 
       2.493232377636e+01       3.105423073660e-07 
       2.692130395282e+01       1.692883597702e-07 
       2.906895534573e+01       8.317304997103e-08 
       3.138793597714e+01       3.468271129188e-08 
       3.389191366484e+01       1.063095461479e-08 
       3.659564657905e+01       1.386357815878e-09 
       3.951507022538e+01       1.730967324024e-10 
       4.266739136701e+01       2.483658216640e-09 
       4.607118943941e+01       5.557812075296e-09 
       4.974652605557e+01       7.929997059581e-09 
       5.371506324689e+01       9.033722998171e-09 
       5.800019113685e+01       8.878314408555e-09 
       6.262716579983e+01       7.778828261222e-09 
       6.762325811764e+01       6.162137239754e-09 
