# Matter power spectrum P(k) at redshift z=99
# for k=1.04775e-05 to 67.6233 h/Mpc,
# number of wavenumbers equal to 246
#    1:k (h/Mpc)              2:P (Mpc/h)^3        
       1.047750691338e-05       7.261927674413e-03 
       1.131335172818e-05       7.820331747131e-03 
       1.221587619877e-05       8.421675987995e-03 
       1.319039970550e-05       9.069258193819e-03 
       1.424266598317e-05       9.766638406158e-03 
       1.537887697396e-05       1.051764069869e-02 
       1.660572938097e-05       1.132639105721e-02 
       1.793045413791e-05       1.219733231633e-02 
       1.936085902737e-05       1.313524224614e-02 
       2.090537469909e-05       1.414527122145e-02 
       2.257310435923e-05       1.523296272464e-02 
       2.437387742372e-05       1.640429444822e-02 
       2.631830745176e-05       1.766569582493e-02 
       2.841785470091e-05       1.902408602130e-02 
       3.068489367268e-05       2.048692970957e-02 
       3.313278604643e-05       2.206225513986e-02 
       3.577595943165e-05       2.375870705331e-02 
       3.862999240274e-05       2.558560727934e-02 
       4.171170631739e-05       2.755297763831e-02 
       4.503926445983e-05       2.967161927845e-02 
       4.863227909323e-05       3.195316451396e-02 
       5.251192705226e-05       3.441013519902e-02 
       5.670107455699e-05       3.705601723187e-02 
       6.122441198393e-05       3.990533414289e-02 
       6.610859938837e-05       4.297372168967e-02 
       7.138242363583e-05       4.627802142514e-02 
       7.707696806873e-05       4.983636195045e-02 
       8.322579570814e-05       5.366826848181e-02 
       8.986514707061e-05       5.779476395587e-02 
       9.703415376577e-05       6.223848244996e-02 
       1.047750691338e-04       6.702379866830e-02 
       1.131335172818e-04       7.217695154666e-02 
       1.221587619877e-04       7.772619074944e-02 
       1.319039970550e-04       8.370193433861e-02 
       1.424266598317e-04       9.013692509142e-02 
       1.537887697396e-04       9.706641244288e-02 
       1.660572938097e-04       1.045283354456e-01 
       1.793045413791e-04       1.125635349267e-01 
       1.936085902737e-04       1.212159615182e-01 
       2.090537469909e-04       1.305329132944e-01 
       2.257310435923e-04       1.405652846462e-01 
       2.437387742372e-04       1.513678302806e-01 
       2.631830745176e-04       1.629994505154e-01 
       2.841785470091e-04       1.755234921531e-01 
       3.068489367268e-04       1.890080670742e-01 
       3.313278604643e-04       2.035264002788e-01 
       3.577595943165e-04       2.191571804059e-01 
       3.862999240274e-04       2.359849437994e-01 
       4.171170631739e-04       2.541004741972e-01 
       4.503926445983e-04       2.736012080740e-01 
       4.863227909323e-04       2.945916791459e-01 
       5.251192705226e-04       3.171839525710e-01 
       5.670107455699e-04       3.414980764560e-01 
       6.122441198393e-04       3.676625413694e-01 
       6.610859938837e-04       3.958147252930e-01 
       7.138242363583e-04       4.261013285568e-01 
       7.707696806873e-04       4.586787793043e-01 
       8.322579570814e-04       4.937136002094e-01 
       8.986514707061e-04       5.313826802147e-01 
       9.703415376577e-04       5.718734972930e-01 
       1.047750691338e-03       6.153841630291e-01 
       1.131335172818e-03       6.621233240253e-01 
       1.221587619877e-03       7.123098221198e-01 
       1.319039970550e-03       7.661720585513e-01 
       1.424266598317e-03       8.239546298421e-01 
       1.537887697396e-03       8.859011174059e-01 
       1.660572938097e-03       9.522588006857e-01 
       1.793045413791e-03       1.023280099837e+00 
       1.936085902737e-03       1.099216304559e+00 
       2.090537469909e-03       1.180312990379e+00 
       2.257310435923e-03       1.266804115700e+00 
       2.437387742372e-03       1.358904853152e+00 
       2.631830745176e-03       1.456802682763e+00 
       2.841785470091e-03       1.560646889937e+00 
       3.068489367268e-03       1.670536061656e+00 
       3.313278604643e-03       1.786503850970e+00 
       3.577595943165e-03       1.908502929126e+00 
       3.862999240274e-03       2.036387728410e+00 
       4.171170631739e-03       2.169896175587e+00 
       4.503926445983e-03       2.308631874683e+00 
       4.863227909323e-03       2.452047285089e+00 
       5.251192705226e-03       2.599430620108e+00 
       5.670107455699e-03       2.749896921024e+00 
       6.122441198393e-03       2.902386498741e+00 
       6.610859938837e-03       3.055668677701e+00 
       7.138242363583e-03       3.208356434856e+00 
       7.707696806873e-03       3.358923857779e+00 
       8.322579570814e-03       3.505725546840e+00 
       8.986514707061e-03       3.647009589618e+00 
       9.703415376577e-03       3.780923218171e+00 
       1.047750691338e-02       3.905490928736e+00 
       1.131335172818e-02       4.018587489858e+00 
       1.221587619877e-02       4.117901385574e+00 
       1.319039970550e-02       4.200915003550e+00 
       1.424266598317e-02       4.264942683955e+00 
       1.537887697392e-02       4.307219257408e+00 
       1.660572938023e-02       4.325061465575e+00 
       1.793045412706e-02       4.316056544858e+00 
       1.936085890181e-02       4.278229625865e+00 
       2.090537352463e-02       4.210199700278e+00 
       2.257309535333e-02       4.111419976033e+00 
       2.437382002918e-02       3.982424573161e+00 
       2.631799944462e-02       3.825168671839e+00 
       2.841644545389e-02       3.643276155530e+00 
       3.067933355377e-02       3.442195246870e+00 
       3.311368470740e-02       3.229233668975e+00 
       3.571840443502e-02       3.013514091894e+00 
       3.847720348444e-02       2.805273795066e+00 
       4.135335538431e-02       2.614394717773e+00 
       4.429361667738e-02       2.448124378395e+00 
       4.724366439141e-02       2.309229840855e+00 
       5.016480835311e-02       2.196104208068e+00 
       5.303989620246e-02       2.104358299440e+00 
       5.586870669566e-02       2.028451522989e+00 
       5.866042680613e-02       1.963139918111e+00 
       6.142798932958e-02       1.903765940897e+00 
       6.418496440164e-02       1.846467926972e+00 
       6.694418833788e-02       1.788180926388e+00 
       6.971731106057e-02       1.726700354136e+00 
       7.251476155766e-02       1.660635652298e+00 
       7.534587671527e-02       1.589452354054e+00 
       7.821907666265e-02       1.513421660819e+00 
       8.114203772912e-02       1.433551062696e+00 
       8.412184535029e-02       1.351474021839e+00 
       8.716512279304e-02       1.269257913455e+00 
       9.027813695930e-02       1.189174452575e+00 
       9.346688431697e-02       1.113483458128e+00 
       9.673716028276e-02       1.044156240136e+00 
       1.000946150830e-01       9.826881780483e-01 
       1.035447986537e-01       9.299171122722e-01 
       1.070931966762e-01       8.859387593605e-01 
       1.107452594425e-01       8.500494202704e-01 
       1.145064249153e-01       8.207815947993e-01 
       1.183821370918e-01       7.960031961665e-01 
       1.223778605862e-01       7.731227090086e-01 
       1.264990921987e-01       7.494274795482e-01 
       1.307513701367e-01       7.225335050864e-01 
       1.351402814784e-01       6.908840617909e-01 
       1.396714684203e-01       6.541552401786e-01 
       1.443506338194e-01       6.134013829993e-01 
       1.491835465229e-01       5.708440384615e-01 
       1.541760469708e-01       5.293401951481e-01 
       1.593340535561e-01       4.916856661546e-01 
       1.646635702297e-01       4.598954004066e-01 
       1.701706958456e-01       4.347032786089e-01 
       1.758616357459e-01       4.153823698267e-01 
       1.817427160982e-01       3.999109177236e-01 
       1.878204015065e-01       3.856560506901e-01 
       1.941013164283e-01       3.697835355549e-01 
       2.005922709503e-01       3.505195074593e-01 
       2.073002914972e-01       3.280162310642e-01 
       2.142326570816e-01       3.041885398491e-01 
       2.213969417533e-01       2.815844869645e-01 
       2.288010639706e-01       2.622309444985e-01 
       2.364533437147e-01       2.469357248036e-01 
       2.443625682930e-01       2.349869212495e-01 
       2.525380679504e-01       2.243913662997e-01 
       2.609898026346e-01       2.130672389196e-01 
       2.697284615565e-01       2.000750289401e-01 
       2.787655775689e-01       1.859936937832e-01 
       2.881136588829e-01       1.724910112048e-01 
       2.977863412677e-01       1.610402490497e-01 
       3.077985646929e-01       1.517355933628e-01 
       3.181667794071e-01       1.435336189072e-01 
       3.289091877812e-01       1.351559879420e-01 
       3.400460299658e-01       1.261390936916e-01 
       3.515999236474e-01       1.171767842153e-01 
       3.635962711085e-01       1.091521269285e-01 
       3.760637506334e-01       1.022848740001e-01 
       3.890349143879e-01       9.591323609029e-02 
       4.025469216825e-01       8.948327417080e-02 
       4.166424456376e-01       8.308764836471e-02 
       4.313708035863e-01       7.719172147673e-02 
       4.467893782977e-01       7.187715036241e-02 
       4.629654199664e-01       6.684581443662e-02 
       4.799783501994e-01       6.189454649785e-02 
       4.979227319373e-01       5.719961219496e-02 
       5.169121270864e-01       5.288050906522e-02 
       5.370841404489e-01       4.874766486806e-02 
       5.586070464571e-01       4.476911926207e-02 
       5.816885094930e-01       4.103049017092e-02 
       6.065870144995e-01       3.746876605361e-02 
       6.336266468475e-01       3.405574368062e-02 
       6.632156059511e-01       3.081432395815e-02 
       6.958678639263e-01       2.770860930877e-02 
       7.322247985589e-01       2.474773927390e-02 
       7.730680195114e-01       2.192079123955e-02 
       8.193049553677e-01       1.923791009817e-02 
       8.718988016039e-01       1.671166552388e-02 
       9.317218031082e-01       1.436717750442e-02 
       9.993660908989e-01       1.223428087555e-02 
       1.075037110174e+00       1.033687988208e-02 
       1.158653485707e+00       8.684651413238e-03 
       1.250099157308e+00       7.270187973543e-03 
       1.349432401273e+00       6.071761218769e-03 
       1.456947457397e+00       5.062608241413e-03 
       1.573135111331e+00       4.215815314135e-03 
       1.698621895592e+00       3.506643664221e-03 
       1.834127512934e+00       2.913664811158e-03 
       1.980444934528e+00       2.418406648761e-03 
       2.138435191726e+00       2.005289834502e-03 
       2.309029199186e+00       1.661074628360e-03 
       2.493232377687e+00       1.374594385017e-03 
       2.692130395285e+00       1.136402356904e-03 
       2.906895534573e+00       9.385840179902e-04 
       3.138793597714e+00       7.744526314306e-04 
       3.389191366484e+00       6.384096976313e-04 
       3.659564657905e+00       5.257486805720e-04 
       3.951507022538e+00       4.325449514594e-04 
       4.266739136701e+00       3.555082969856e-04 
       4.607118943941e+00       2.918948009264e-04 
       4.974652605557e+00       2.394087304466e-04 
       5.371506324689e+00       1.961427282284e-04 
       5.800019113685e+00       1.605114716657e-04 
       6.262716579983e+00       1.311924001145e-04 
       6.762325811764e+00       1.070891878566e-04 
       7.301791451110e+00       8.729296314668e-05 
       7.884293049406e+00       7.104940755515e-05 
       8.513263807261e+00       5.773373602505e-05 
       9.192410809424e+00       4.682913639130e-05 
       9.925736873929e+00       3.790951589165e-05 
       1.071756414427e+01       3.062155242612e-05 
       1.157255956364e+01       2.467412175734e-05 
       1.249576238137e+01       1.982743332844e-05 
       1.349261385375e+01       1.588400386889e-05 
       1.456898931416e+01       1.268072806104e-05 
       1.573123280165e+01       1.008377561180e-05 
       1.698619445202e+01       7.982820102229e-06 
       1.834127087176e+01       6.287491129066e-06 
       1.980444873285e+01       4.923440402129e-06 
       2.138435184532e+01       3.829657458797e-06 
       2.309029198506e+01       2.955989553649e-06 
       2.493232377636e+01       2.261495740992e-06 
       2.692130395282e+01       1.712444187556e-06 
       2.906895534573e+01       1.281234204098e-06 
       3.138793597714e+01       9.452315528868e-07 
       3.389191366484e+01       6.858853721252e-07 
       3.659564657905e+01       4.879925864515e-07 
       3.951507022538e+01       3.390647825932e-07 
       4.266739136701e+01       2.288754504529e-07 
       4.607118943941e+01       1.490536335668e-07 
       4.974652605557e+01       9.273119969897e-08 
       5.371506324689e+01       5.431854568561e-08 
       5.800019113685e+01       2.927126898957e-08 
       6.262716579983e+01       1.392651143585e-08 
       6.762325811764e+01       5.372000108591e-09 
