# Matter power spectrum P(k) at redshift z=0
# for k=1.04775e-05 to 67.6233 h/Mpc,
# number of wavenumbers equal to 246
#    1:k (h/Mpc)              2:P (Mpc/h)^3        
       1.047750691338e-05       5.020963955726e+01 
       1.131335172818e-05       5.407048206818e+01 
       1.221587619877e-05       5.822819039046e+01 
       1.319039970550e-05       6.270562650737e+01 
       1.424266598317e-05       6.752731787870e+01 
       1.537887697396e-05       7.271977200399e+01 
       1.660572938097e-05       7.831148874888e+01 
       1.793045413791e-05       8.433311815170e+01 
       1.936085902737e-05       9.081778242376e+01 
       2.090537469909e-05       9.780106819854e+01 
       2.257310435923e-05       1.053213197150e+02 
       2.437387742372e-05       1.134197377033e+02 
       2.631830745176e-05       1.221408203233e+02 
       2.841785470091e-05       1.315324678257e+02 
       3.068489367268e-05       1.416462087896e+02 
       3.313278604643e-05       1.525374500740e+02 
       3.577595943165e-05       1.642660712040e+02 
       3.862999240274e-05       1.768963504751e+02 
       4.171170631739e-05       1.904975993581e+02 
       4.503926445983e-05       2.051444393668e+02 
       4.863227909323e-05       2.209171456709e+02 
       5.251192705226e-05       2.379022224552e+02 
       5.670107455699e-05       2.561927932077e+02 
       6.122441198393e-05       2.758890445907e+02 
       6.610859938837e-05       2.970989226023e+02 
       7.138242363583e-05       3.199385558200e+02 
       7.707696806873e-05       3.445329780816e+02 
       8.322579570814e-05       3.710167324817e+02 
       8.986514707061e-05       3.995346440617e+02 
       9.703415376577e-05       4.302425397270e+02 
       1.047750691338e-04       4.633080762954e+02 
       1.131335172818e-04       4.989116273454e+02 
       1.221587619877e-04       5.372471946551e+02 
       1.319039970550e-04       5.785234136957e+02 
       1.424266598317e-04       6.229645930974e+02 
       1.537887697396e-04       6.708118485040e+02 
       1.660572938097e-04       7.223242660204e+02 
       1.793045413791e-04       7.777801551582e+02 
       1.936085902737e-04       8.374783607503e+02 
       2.090537469909e-04       9.017396264491e+02 
       2.257310435923e-04       9.709080269660e+02 
       2.437387742372e-04       1.045352448657e+03 
       2.631830745176e-04       1.125468122472e+03 
       2.841785470091e-04       1.211678179336e+03 
       3.068489367268e-04       1.304435249067e+03 
       3.313278604643e-04       1.404223052523e+03 
       3.577595943165e-04       1.511558013373e+03 
       3.862999240274e-04       1.626990837991e+03 
       4.171170631739e-04       1.751108027150e+03 
       4.503926445983e-04       1.884533382572e+03 
       4.863227909323e-04       2.027929376175e+03 
       5.251192705226e-04       2.181998445216e+03 
       5.670107455699e-04       2.347484101851e+03 
       6.122441198393e-04       2.525171868387e+03 
       6.610859938837e-04       2.715889981245e+03 
       7.138242363583e-04       2.920509685168e+03 
       7.707696806873e-04       3.139945096709e+03 
       8.322579570814e-04       3.375152333159e+03 
       8.986514707061e-04       3.627127827495e+03 
       9.703415376577e-04       3.896905447459e+03 
       1.047750691338e-03       4.185552167431e+03 
       1.131335172818e-03       4.494162421651e+03 
       1.221587619877e-03       4.823850695450e+03 
       1.319039970550e-03       5.175742729979e+03 
       1.424266598317e-03       5.551019578032e+03 
       1.537887697396e-03       5.950788312831e+03 
       1.660572938097e-03       6.376123002083e+03 
       1.793045413791e-03       6.828073844265e+03 
       1.936085902737e-03       7.307625300995e+03 
       2.090537469909e-03       7.815671784633e+03 
       2.257310435923e-03       8.352990212141e+03 
       2.437387742372e-03       8.920210830783e+03 
       2.631830745176e-03       9.517782736290e+03 
       2.841785470091e-03       1.014593657136e+04 
       3.068489367268e-03       1.080464432533e+04 
       3.313278604643e-03       1.149357365942e+04 
       3.577595943165e-03       1.221203488336e+04 
       3.862999240274e-03       1.295892352201e+04 
       4.171170631739e-03       1.373265776124e+04 
       4.503926445983e-03       1.453111468510e+04 
       4.863227909323e-03       1.535154469075e+04 
       5.251192705226e-03       1.619062868190e+04 
       5.670107455699e-03       1.704430286514e+04 
       6.122441198393e-03       1.790754619501e+04 
       6.610859938837e-03       1.877458554154e+04 
       7.138242363583e-03       1.963869972255e+04 
       7.707696806873e-03       2.049212468869e+04 
       8.322579570814e-03       2.132606419636e+04 
       8.986514707061e-03       2.213049001549e+04 
       9.703415376577e-03       2.289437197844e+04 
       1.047750691338e-02       2.360537357855e+04 
       1.131335172818e-02       2.425008652778e+04 
       1.221587619877e-02       2.481404211414e+04 
       1.319039970550e-02       2.528192788370e+04 
       1.424266598317e-02       2.563780428491e+04 
       1.537887697392e-02       2.586561207230e+04 
       1.660572938023e-02       2.594969557007e+04 
       1.793045412706e-02       2.587559143038e+04 
       1.936085890181e-02       2.563123296451e+04 
       2.090537352463e-02       2.520809650512e+04 
       2.257309535333e-02       2.460283836458e+04 
       2.437382002918e-02       2.381889471539e+04 
       2.631799944462e-02       2.286787727865e+04 
       2.841644545389e-02       2.177134543477e+04 
       3.067933355377e-02       2.056166142714e+04 
       3.311368470740e-02       1.928252601232e+04 
       3.571840443502e-02       1.798830195655e+04 
       3.847720348444e-02       1.674005331044e+04 
       4.135335538431e-02       1.559669434732e+04 
       4.429361667738e-02       1.460111652224e+04 
       4.724366439141e-02       1.376996577779e+04 
       5.016480835311e-02       1.309318675061e+04 
       5.303989620246e-02       1.254398291851e+04 
       5.586870669566e-02       1.208978467610e+04 
       5.866042680613e-02       1.169894602786e+04 
       6.142798932958e-02       1.134352960154e+04 
       6.418496440164e-02       1.100044813121e+04 
       6.694418833788e-02       1.065148167860e+04 
       6.971731106057e-02       1.028330403552e+04 
       7.251476155766e-02       9.887698288431e+03 
       7.534587671527e-02       9.461488881262e+03 
       7.821907666265e-02       9.006358996382e+03 
       8.114203772912e-02       8.528287769930e+03 
       8.412184535029e-02       8.037025882245e+03 
       8.716512279304e-02       7.545104892783e+03 
       9.027813695930e-02       7.066006065929e+03 
       9.346688431697e-02       6.613207200083e+03 
       9.673716028276e-02       6.198513531019e+03 
       1.000946150830e-01       5.830813420635e+03 
       1.035447986537e-01       5.515109019078e+03 
       1.070931966762e-01       5.251864517267e+03 
       1.107452594425e-01       5.036912959582e+03 
       1.145064249153e-01       4.861444404148e+03 
       1.183821370918e-01       4.712676595245e+03 
       1.223778605862e-01       4.575233867376e+03 
       1.264990921987e-01       4.432871420010e+03 
       1.307513701367e-01       4.271375926148e+03 
       1.351402814784e-01       4.081537616830e+03 
       1.396714684203e-01       3.861449819019e+03 
       1.443506338194e-01       3.617447252693e+03 
       1.491835465229e-01       3.362800351502e+03 
       1.541760469708e-01       3.114528474299e+03 
       1.593340535561e-01       2.889308326532e+03 
       1.646635702297e-01       2.698991129982e+03 
       1.701706958456e-01       2.547937216599e+03 
       1.758616357459e-01       2.431791283657e+03 
       1.817427160982e-01       2.338465694797e+03 
       1.878204015065e-01       2.252410385894e+03 
       1.941013164283e-01       2.156774245043e+03 
       2.005922709503e-01       2.041102566497e+03 
       2.073002914972e-01       1.906361629134e+03 
       2.142326570816e-01       1.763885232059e+03 
       2.213969417533e-01       1.628799136103e+03 
       2.288010639706e-01       1.512983412249e+03 
       2.364533437147e-01       1.421180344850e+03 
       2.443625682930e-01       1.349140504425e+03 
       2.525380679504e-01       1.285149137917e+03 
       2.609898026346e-01       1.216958580912e+03 
       2.697284615565e-01       1.139103380699e+03 
       2.787655775689e-01       1.054999374399e+03 
       2.881136588829e-01       9.744191594449e+02 
       2.977863412677e-01       9.059219931071e+02 
       3.077985646929e-01       8.500429493399e+02 
       3.181667794071e-01       8.006866326879e+02 
       3.289091877812e-01       7.504252365480e+02 
       3.400460299658e-01       6.966076819272e+02 
       3.515999236474e-01       6.432548101908e+02 
       3.635962711085e-01       5.954363583426e+02 
       3.760637506334e-01       5.543905208410e+02 
       3.890349143879e-01       5.163162018712e+02 
       4.025469216825e-01       4.780588509857e+02 
       4.166424456376e-01       4.401501922190e+02 
       4.313708035863e-01       4.052220773680e+02 
       4.467893782977e-01       3.737205822592e+02 
       4.629654199664e-01       3.439624931027e+02 
       4.799783501994e-01       3.148187431417e+02 
       4.979227319373e-01       2.872632820188e+02 
       5.169121270864e-01       2.619491333753e+02 
       5.370841404489e-01       2.378344951558e+02 
       5.586070464571e-01       2.147412699714e+02 
       5.816885094930e-01       1.931326815682e+02 
       6.065870144995e-01       1.726708296748e+02 
       6.336266468475e-01       1.532068845470e+02 
       6.632156059511e-01       1.348691073433e+02 
       6.958678639263e-01       1.174795924846e+02 
       7.322247985589e-01       1.011009243627e+02 
       7.730680195114e-01       8.569673145083e+01 
       8.193049553677e-01       7.134920692333e+01 
       8.718988016039e-01       5.815636868176e+01 
       9.317218031082e-01       4.627672973437e+01 
       9.993660908989e-01       3.587630240090e+01 
       1.075037110174e+00       2.706498349229e+01 
       1.158653485707e+00       1.984994811061e+01 
       1.250099157308e+00       1.412980039933e+01 
       1.349432401273e+00       9.724368572174e+00 
       1.456947457397e+00       6.429015815820e+00 
       1.573135111331e+00       4.041707458235e+00 
       1.698621895592e+00       2.378254219267e+00 
       1.834127512934e+00       1.276475199614e+00 
       1.980444934528e+00       5.961327115886e-01 
       2.138435191726e+00       2.187239497435e-01 
       2.309029199186e+00       4.616879735340e-02 
       2.493232377687e+00       1.356689163404e-04 
       2.692130395285e+00       2.089341884887e-02 
       2.906895534573e+00       6.595910485474e-02 
       3.138793597714e+00       1.082235636443e-01 
       3.389191366484e+00       1.335254596397e-01 
       3.659564657905e+00       1.378079278059e-01 
       3.951507022538e+00       1.239284040842e-01 
       4.266739136701e+00       9.851132328956e-02 
       4.607118943941e+00       6.913235788177e-02 
       4.974652605557e+00       4.215445579783e-02 
       5.371506324689e+00       2.152176196449e-02 
       5.800019113685e+00       8.466477326826e-03 
       6.262716579983e+00       2.034146927718e-03 
       6.762325811764e+00       7.273969028166e-05 
       7.301791451110e+00       2.749877261002e-04 
       7.884293049406e+00       9.308894774858e-04 
       8.513263807261e+00       1.208580446842e-03 
       9.192410809424e+00       1.007579197902e-03 
       9.925736873929e+00       5.899374079748e-04 
       1.071756414427e+01       2.309398753715e-04 
       1.157255956364e+01       4.576330346326e-05 
       1.249576238137e+01       2.378356917276e-07 
       1.349261385375e+01       9.360524842001e-06 
       1.456898931416e+01       1.695365478942e-05 
       1.573123280165e+01       1.200537115052e-05 
       1.698619445202e+01       4.227582550470e-06 
       1.834127087176e+01       4.813680690218e-07 
       1.980444873285e+01       2.876077533845e-08 
       2.138435184532e+01       2.133521303910e-07 
       2.309029198506e+01       1.328708558864e-07 
       2.493232377636e+01       1.865985391917e-08 
       2.692130395282e+01       1.252862041451e-09 
       2.906895534573e+01       8.541148105541e-09 
       3.138793597714e+01       5.073729514888e-09 
       3.389191366484e+01       1.021298305846e-09 
       3.659564657905e+01       1.123389995434e-10 
       3.951507022538e+01       6.751566424407e-11 
       4.266739136701e+01       1.340208071040e-10 
       4.607118943941e+01       1.459374226913e-10 
       4.974652605557e+01       9.755925190230e-11 
       5.371506324689e+01       5.545202143108e-11 
       5.800019113685e+01       3.488081437260e-11 
       6.262716579983e+01       2.293424160285e-11 
       6.762325811764e+01       1.436997623738e-11 
