# Matter power spectrum P(k) at redshift z=0
# for k=1.04775e-05 to 67.6233 h/Mpc,
# number of wavenumbers equal to 246
#    1:k (h/Mpc)              2:P (Mpc/h)^3        
       1.047750691338e-05       5.020964806750e+01 
       1.131335172818e-05       5.407048206553e+01 
       1.221587619877e-05       5.822819063807e+01 
       1.319039970550e-05       6.270562589686e+01 
       1.424266598317e-05       6.752731788102e+01 
       1.537887697396e-05       7.271977200258e+01 
       1.660572938097e-05       7.831147241542e+01 
       1.793045413791e-05       8.433311815128e+01 
       1.936085902737e-05       9.081778242446e+01 
       2.090537469909e-05       9.780108061340e+01 
       2.257310435923e-05       1.053213197032e+02 
       2.437387742372e-05       1.134197377001e+02 
       2.631830745176e-05       1.221408202815e+02 
       2.841785470091e-05       1.315324720916e+02 
       3.068489367268e-05       1.416462093729e+02 
       3.313278604643e-05       1.525374500691e+02 
       3.577595943165e-05       1.642660687078e+02 
       3.862999240274e-05       1.768963504868e+02 
       4.171170631739e-05       1.904975992460e+02 
       4.503926445983e-05       2.051444490305e+02 
       4.863227909323e-05       2.209171463752e+02 
       5.251192705226e-05       2.379022222314e+02 
       5.670107455699e-05       2.561927925584e+02 
       6.122441198393e-05       2.758890441791e+02 
       6.610859938837e-05       2.970989225465e+02 
       7.138242363583e-05       3.199385558200e+02 
       7.707696806873e-05       3.445329780878e+02 
       8.322579570814e-05       3.710167315928e+02 
       8.986514707061e-05       3.995346440954e+02 
       9.703415376577e-05       4.302425403884e+02 
       1.047750691338e-04       4.633080762974e+02 
       1.131335172818e-04       4.989116267507e+02 
       1.221587619877e-04       5.372471946561e+02 
       1.319039970550e-04       5.785234124634e+02 
       1.424266598317e-04       6.229645930980e+02 
       1.537887697396e-04       6.708118484951e+02 
       1.660572938097e-04       7.223242660219e+02 
       1.793045413791e-04       7.777801560885e+02 
       1.936085902737e-04       8.374783607333e+02 
       2.090537469909e-04       9.017396264495e+02 
       2.257310435923e-04       9.709080260152e+02 
       2.437387742372e-04       1.045352448644e+03 
       2.631830745176e-04       1.125468122836e+03 
       2.841785470091e-04       1.211678179511e+03 
       3.068489367268e-04       1.304435249091e+03 
       3.313278604643e-04       1.404223052541e+03 
       3.577595943165e-04       1.511558013390e+03 
       3.862999240274e-04       1.626990836472e+03 
       4.171170631739e-04       1.751108027370e+03 
       4.503926445983e-04       1.884533381345e+03 
       4.863227909323e-04       2.027929376470e+03 
       5.251192705226e-04       2.181998446367e+03 
       5.670107455699e-04       2.347484100857e+03 
       6.122441198393e-04       2.525171869336e+03 
       6.610859938837e-04       2.715889981400e+03 
       7.138242363583e-04       2.920509686082e+03 
       7.707696806873e-04       3.139945097709e+03 
       8.322579570814e-04       3.375152334392e+03 
       8.986514707061e-04       3.627127828230e+03 
       9.703415376577e-04       3.896905450014e+03 
       1.047750691338e-03       4.185552170950e+03 
       1.131335172818e-03       4.494162426788e+03 
       1.221587619877e-03       4.823850702662e+03 
       1.319039970550e-03       5.175742738823e+03 
       1.424266598317e-03       5.551019592517e+03 
       1.537887697396e-03       5.950788335866e+03 
       1.660572938097e-03       6.376123046755e+03 
       1.793045413791e-03       6.828073896103e+03 
       1.936085902737e-03       7.307625375370e+03 
       2.090537469909e-03       7.815671856219e+03 
       2.257310435923e-03       8.352990369371e+03 
       2.437387742372e-03       8.920211057511e+03 
       2.631830745176e-03       9.517783061844e+03 
       2.841785470091e-03       1.014593703665e+04 
       3.068489367268e-03       1.080464505724e+04 
       3.313278604643e-03       1.149357459441e+04 
       3.577595943165e-03       1.221203620814e+04 
       3.862999240274e-03       1.295892538489e+04 
       4.171170631739e-03       1.373266002319e+04 
       4.503926445983e-03       1.453111834569e+04 
       4.863227909323e-03       1.535154983441e+04 
       5.251192705226e-03       1.619063608814e+04 
       5.670107455699e-03       1.704431256355e+04 
       6.122441198393e-03       1.790755941111e+04 
       6.610859938837e-03       1.877460424620e+04 
       7.138242363583e-03       1.963872437840e+04 
       7.707696806873e-03       2.049215712901e+04 
       8.322579570814e-03       2.132606812981e+04 
       8.986514707061e-03       2.213055205555e+04 
       9.703415376577e-03       2.289445504911e+04 
       1.047750691338e-02       2.360548297177e+04 
       1.131335172818e-02       2.425022785924e+04 
       1.221587619877e-02       2.481423931757e+04 
       1.319039970550e-02       2.528218866887e+04 
       1.424266598317e-02       2.563814258138e+04 
       1.537887697392e-02       2.586607671297e+04 
       1.660572938023e-02       2.595027295782e+04 
       1.793045412706e-02       2.587633935107e+04 
       1.936085890181e-02       2.563220456982e+04 
       2.090537352463e-02       2.520937665254e+04 
       2.257309535333e-02       2.460446546698e+04 
       2.437382002918e-02       2.382084713256e+04 
       2.631799944462e-02       2.287035075934e+04 
       2.841644545389e-02       2.177447295247e+04 
       3.067933355377e-02       2.056554656707e+04 
       3.311368470740e-02       1.928729820288e+04 
       3.571840443502e-02       1.799396952904e+04 
       3.847720348444e-02       1.674678515053e+04 
       4.135335538431e-02       1.560461978147e+04 
       4.429361667738e-02       1.461038512286e+04 
       4.724366439141e-02       1.378052258993e+04 
       5.016480835311e-02       1.310500487105e+04 
       5.303989620246e-02       1.255718087362e+04 
       5.586870669566e-02       1.210426392895e+04 
       5.866042680613e-02       1.171471051698e+04 
       6.142798932958e-02       1.136053451377e+04 
       6.418496440164e-02       1.101859219847e+04 
       6.694418833788e-02       1.067070399706e+04 
       6.971731106057e-02       1.030362344438e+04 
       7.251476155766e-02       9.909068548195e+03 
       7.534587671527e-02       9.483791546198e+03 
       7.821907666265e-02       9.029534169244e+03 
       8.114203772912e-02       8.552366209947e+03 
       8.412184535029e-02       8.061984433234e+03 
       8.716512279304e-02       7.570805072648e+03 
       9.027813695930e-02       7.092505032085e+03 
       9.346688431697e-02       6.640563227600e+03 
       9.673716028276e-02       6.226735063661e+03 
       1.000946150830e-01       5.859980350440e+03 
       1.035447986537e-01       5.545299732721e+03 
       1.070931966762e-01       5.283170049043e+03 
       1.107452594425e-01       5.069430120545e+03 
       1.145064249153e-01       4.895265603442e+03 
       1.183821370918e-01       4.747870808507e+03 
       1.223778605862e-01       4.611702711412e+03 
       1.264990921987e-01       4.470619261283e+03 
       1.307513701367e-01       4.310251869399e+03 
       1.351402814784e-01       4.121374797400e+03 
       1.396714684203e-01       3.902062389641e+03 
       1.443506338194e-01       3.658641374829e+03 
       1.491835465229e-01       3.404472105045e+03 
       1.541760469708e-01       3.156645573765e+03 
       1.593340535561e-01       2.931939198923e+03 
       1.646635702297e-01       2.742370821429e+03 
       1.701706958456e-01       2.592242805323e+03 
       1.758616357459e-01       2.477222813016e+03 
       1.817427160982e-01       2.385178030511e+03 
       1.878204015065e-01       2.300331782696e+03 
       1.941013164283e-01       2.205757822509e+03 
       2.005922709503e-01       2.090790232154e+03 
       2.073002914972e-01       1.956453872850e+03 
       2.142326570816e-01       1.814178856472e+03 
       2.213969417533e-01       1.679266991696e+03 
       2.288010639706e-01       1.563832123819e+03 
       2.364533437147e-01       1.472670255340e+03 
       2.443625682930e-01       1.401504383980e+03 
       2.525380679504e-01       1.338396905315e+03 
       2.609898026346e-01       1.270882495318e+03 
       2.697284615565e-01       1.193366384101e+03 
       2.787655775689e-01       1.109324564819e+03 
       2.881136588829e-01       1.028751328659e+03 
       2.977863412677e-01       9.604572858884e+02 
       3.077985646929e-01       9.050035650527e+02 
       3.181667794071e-01       8.561251193869e+02 
       3.289091877812e-01       8.061660809663e+02 
       3.400460299658e-01       7.523694763287e+02 
       3.515999236474e-01       6.988979064536e+02 
       3.635962711085e-01       6.510373930014e+02 
       3.760637506334e-01       6.100968548563e+02 
       3.890349143879e-01       5.721064713662e+02 
       4.025469216825e-01       5.337552837197e+02 
       4.166424456376e-01       4.956031903079e+02 
       4.313708035863e-01       4.604408848216e+02 
       4.467893782977e-01       4.287475476054e+02 
       4.629654199664e-01       3.987405136522e+02 
       4.799783501994e-01       3.692078112592e+02 
       4.979227319373e-01       3.412049136121e+02 
       5.169121270864e-01       3.154470997904e+02 
       5.370841404489e-01       2.907970165092e+02 
       5.586070464571e-01       2.670653465313e+02 
       5.816885094930e-01       2.447671500378e+02 
       6.065870144995e-01       2.235223577526e+02 
       6.336266468475e-01       2.031635690363e+02 
       6.632156059511e-01       1.838296680013e+02 
       6.958678639263e-01       1.653020174798e+02 
       7.322247985589e-01       1.476400231265e+02 
       7.730680195114e-01       1.307756124329e+02 
       8.193049553677e-01       1.147687532468e+02 
       8.718988016039e-01       9.969601669828e+01 
       9.317218031082e-01       8.570614313503e+01 
       9.993660908989e-01       7.297743012136e+01 
       1.075037110174e+00       6.165271477509e+01 
       1.158653485707e+00       5.178892042120e+01 
       1.250099157308e+00       4.334339991434e+01 
       1.349432401273e+00       3.618467016360e+01 
       1.456947457397e+00       3.015553230913e+01 
       1.573135111331e+00       2.509382269067e+01 
       1.698621895592e+00       2.085276115920e+01 
       1.834127512934e+00       1.730416026161e+01 
       1.980444934528e+00       1.433818331413e+01 
       2.138435191726e+00       1.186185330538e+01 
       2.309029199186e+00       9.796322222161e+00 
       2.493232377687e+00       8.074956411181e+00 
       2.692130395285e+00       6.641673744945e+00 
       2.906895534573e+00       5.449228101464e+00 
       3.138793597714e+00       4.457891641299e+00 
       3.389191366484e+00       3.634376363088e+00 
       3.659564657905e+00       2.950788429552e+00 
       3.951507022538e+00       2.383944468730e+00 
       4.266739136701e+00       1.914384882781e+00 
       4.607118943941e+00       1.525965277696e+00 
       4.974652605557e+00       1.205296995972e+00 
       5.371506324689e+00       9.413083750450e-01 
       5.800019113685e+00       7.248136372989e-01 
       6.262716579983e+00       5.482838707706e-01 
       6.762325811764e+00       4.054852073606e-01 
       7.301791451110e+00       2.912862138242e-01 
       7.884293049406e+00       2.014232020829e-01 
       8.513263807261e+00       1.323187867536e-01 
       9.192410809424e+00       8.090301522743e-02 
       9.925736873929e+00       4.446216684622e-02 
       1.071756414427e+01       2.051851882298e-02 
       1.157255956364e+01       6.713222267511e-03 
       1.249576238137e+01       7.530215099800e-04 
       1.349261385375e+01       3.851356480709e-04 
       1.456898931416e+01       3.433730007327e-03 
       1.573123280165e+01       7.890306521228e-03 
       1.698619445202e+01       1.205304374830e-02 
       1.834127087176e+01       1.468279482105e-02 
       1.980444873285e+01       1.514075624477e-02 
       2.138435184532e+01       1.344544498397e-02 
       2.309029198506e+01       1.020348564453e-02 
       2.493232377636e+01       6.395394712407e-03 
       2.692130395282e+01       3.043390818474e-03 
       2.906895534573e+01       8.632898174533e-04 
       3.138793597714e+01       3.094586792519e-05 
       3.389191366484e+01       1.838011267663e-04 
       3.659564657905e+01       6.722220971661e-04 
       3.951507022538e+01       9.364650150128e-04 
       4.266739136701e+01       7.859341162836e-04 
       4.607118943941e+01       4.032371309252e-04 
       4.974652605557e+01       9.279747319230e-05 
       5.371506324689e+01       1.068864669367e-08 
       5.800019113685e+01       4.269179045703e-05 
       6.262716579983e+01       7.194986794807e-05 
       6.762325811764e+01       4.260896090211e-05 
