# Matter power spectrum P(k) at redshift z=99
# for k=1.04775e-05 to 67.6233 h/Mpc,
# number of wavenumbers equal to 246
#    1:k (h/Mpc)              2:P (Mpc/h)^3        
       1.047750691338e-05       7.261927673155e-03 
       1.131335172818e-05       7.820331745776e-03 
       1.221587619877e-05       8.421675986531e-03 
       1.319039970550e-05       9.069258192239e-03 
       1.424266598317e-05       9.766638404469e-03 
       1.537887697396e-05       1.051764069687e-02 
       1.660572938097e-05       1.132639105525e-02 
       1.793045413791e-05       1.219733231422e-02 
       1.936085902737e-05       1.313524224387e-02 
       2.090537469909e-05       1.414527121900e-02 
       2.257310435923e-05       1.523296272199e-02 
       2.437387742372e-05       1.640429444538e-02 
       2.631830745176e-05       1.766569582186e-02 
       2.841785470091e-05       1.902408601802e-02 
       3.068489367268e-05       2.048692970602e-02 
       3.313278604643e-05       2.206225513605e-02 
       3.577595943165e-05       2.375870704921e-02 
       3.862999240274e-05       2.558560727491e-02 
       4.171170631739e-05       2.755297763357e-02 
       4.503926445983e-05       2.967161927331e-02 
       4.863227909323e-05       3.195316450848e-02 
       5.251192705226e-05       3.441013519301e-02 
       5.670107455699e-05       3.705601722544e-02 
       6.122441198393e-05       3.990533413582e-02 
       6.610859938837e-05       4.297372168224e-02 
       7.138242363583e-05       4.627802141711e-02 
       7.707696806873e-05       4.983636194184e-02 
       8.322579570814e-05       5.366826847258e-02 
       8.986514707061e-05       5.779476394596e-02 
       9.703415376577e-05       6.223848243916e-02 
       1.047750691338e-04       6.702379865673e-02 
       1.131335172818e-04       7.217695153417e-02 
       1.221587619877e-04       7.772619073611e-02 
       1.319039970550e-04       8.370193432417e-02 
       1.424266598317e-04       9.013692507591e-02 
       1.537887697396e-04       9.706641242618e-02 
       1.660572938097e-04       1.045283354277e-01 
       1.793045413791e-04       1.125635349074e-01 
       1.936085902737e-04       1.212159614974e-01 
       2.090537469909e-04       1.305329132721e-01 
       2.257310435923e-04       1.405652846222e-01 
       2.437387742372e-04       1.513678302547e-01 
       2.631830745176e-04       1.629994504879e-01 
       2.841785470091e-04       1.755234921233e-01 
       3.068489367268e-04       1.890080670422e-01 
       3.313278604643e-04       2.035264002445e-01 
       3.577595943165e-04       2.191571803692e-01 
       3.862999240274e-04       2.359849437604e-01 
       4.171170631739e-04       2.541004741551e-01 
       4.503926445983e-04       2.736012080290e-01 
       4.863227909323e-04       2.945916790979e-01 
       5.251192705226e-04       3.171839525197e-01 
       5.670107455699e-04       3.414980764017e-01 
       6.122441198393e-04       3.676625413117e-01 
       6.610859938837e-04       3.958147252321e-01 
       7.138242363583e-04       4.261013284930e-01 
       7.707696806873e-04       4.586787792371e-01 
       8.322579570814e-04       4.937136001370e-01 
       8.986514707061e-04       5.313826801422e-01 
       9.703415376577e-04       5.718734972179e-01 
       1.047750691338e-03       6.153841629526e-01 
       1.131335172818e-03       6.621233239487e-01 
       1.221587619877e-03       7.123098220449e-01 
       1.319039970550e-03       7.661720584812e-01 
       1.424266598317e-03       8.239546297747e-01 
       1.537887697396e-03       8.859011173482e-01 
       1.660572938097e-03       9.522588006432e-01 
       1.793045413791e-03       1.023280099819e+00 
       1.936085902737e-03       1.099216304578e+00 
       2.090537469909e-03       1.180312990450e+00 
       2.257310435923e-03       1.266804115846e+00 
       2.437387742372e-03       1.358904853395e+00 
       2.631830745176e-03       1.456802683139e+00 
       2.841785470091e-03       1.560646890496e+00 
       3.068489367268e-03       1.670536062463e+00 
       3.313278604643e-03       1.786503852105e+00 
       3.577595943165e-03       1.908502930714e+00 
       3.862999240274e-03       2.036387730603e+00 
       4.171170631739e-03       2.169896178480e+00 
       4.503926445983e-03       2.308631878786e+00 
       4.863227909323e-03       2.452047290672e+00 
       5.251192705226e-03       2.599430627684e+00 
       5.670107455699e-03       2.749896931309e+00 
       6.122441198393e-03       2.902386512608e+00 
       6.610859938837e-03       3.055668696084e+00 
       7.138242363583e-03       3.208356460065e+00 
       7.707696806873e-03       3.358923890428e+00 
       8.322579570814e-03       3.505725592469e+00 
       8.986514707061e-03       3.647009965629e+00 
       9.703415376577e-03       3.780923299055e+00 
       1.047750691338e-02       3.905491125068e+00 
       1.131335172818e-02       4.018587631426e+00 
       1.221587619877e-02       4.117901571328e+00 
       1.319039970550e-02       4.200915308292e+00 
       1.424266598317e-02       4.264942330266e+00 
       1.537887697392e-02       4.307217506200e+00 
       1.660572938023e-02       4.325062393580e+00 
       1.793045412706e-02       4.316057469578e+00 
       1.936085890181e-02       4.278229857696e+00 
       2.090537352463e-02       4.210201503431e+00 
       2.257309535333e-02       4.111419583218e+00 
       2.437382002918e-02       3.982422692141e+00 
       2.631799944462e-02       3.825164712455e+00 
       2.841644545389e-02       3.643281706888e+00 
       3.067933355377e-02       3.442193177941e+00 
       3.311368470740e-02       3.229238367569e+00 
       3.571840443502e-02       3.013512137085e+00 
       3.847720348444e-02       2.805277784713e+00 
       4.135335538431e-02       2.614424679387e+00 
       4.429361667738e-02       2.448138917874e+00 
       4.724366439141e-02       2.309237698125e+00 
       5.016480835311e-02       2.196106934893e+00 
       5.303989620246e-02       2.104362935249e+00 
       5.586870669566e-02       2.028460846704e+00 
       5.866042680613e-02       1.963151240246e+00 
       6.142798932958e-02       1.903780761824e+00 
       6.418496440164e-02       1.846474479115e+00 
       6.694418833788e-02       1.788197097783e+00 
       6.971731106057e-02       1.726710775421e+00 
       7.251476155766e-02       1.660652815977e+00 
       7.534587671527e-02       1.589467694013e+00 
       7.821907666265e-02       1.513432148252e+00 
       8.114203772912e-02       1.433563967404e+00 
       8.412184535029e-02       1.351492388830e+00 
       8.716512279304e-02       1.269269113145e+00 
       9.027813695930e-02       1.189191149877e+00 
       9.346688431697e-02       1.113499393729e+00 
       9.673716028276e-02       1.044172178103e+00 
       1.000946150830e-01       9.827044864653e-01 
       1.035447986537e-01       9.299347397611e-01 
       1.070931966762e-01       8.859552545502e-01 
       1.107452594425e-01       8.500677990955e-01 
       1.145064249153e-01       8.207978399857e-01 
       1.183821370918e-01       7.960198151948e-01 
       1.223778605862e-01       7.731423194582e-01 
       1.264990921987e-01       7.494476434488e-01 
       1.307513701367e-01       7.225523697166e-01 
       1.351402814784e-01       6.909024294924e-01 
       1.396714684203e-01       6.541756650600e-01 
       1.443506338194e-01       6.134209330290e-01 
       1.491835465229e-01       5.708618142875e-01 
       1.541760469708e-01       5.293577096588e-01 
       1.593340535561e-01       4.917053044969e-01 
       1.646635702297e-01       4.599132113130e-01 
       1.701706958456e-01       4.347222074178e-01 
       1.758616357459e-01       4.154008475977e-01 
       1.817427160982e-01       3.999290453530e-01 
       1.878204015065e-01       3.856747850838e-01 
       1.941013164283e-01       3.698016468897e-01 
       2.005922709503e-01       3.505375282214e-01 
       2.073002914972e-01       3.280353982659e-01 
       2.142326570816e-01       3.042050726534e-01 
       2.213969417533e-01       2.816030530727e-01 
       2.288010639706e-01       2.622476746088e-01 
       2.364533437147e-01       2.469521420303e-01 
       2.443625682930e-01       2.350026082625e-01 
       2.525380679504e-01       2.244065980313e-01 
       2.609898026346e-01       2.130830650517e-01 
       2.697284615565e-01       2.000900431060e-01 
       2.787655775689e-01       1.860083224870e-01 
       2.881136588829e-01       1.725056221470e-01 
       2.977863412677e-01       1.610544578109e-01 
       3.077985646929e-01       1.517488990681e-01 
       3.181667794071e-01       1.435467168301e-01 
       3.289091877812e-01       1.351682262440e-01 
       3.400460299658e-01       1.261510109931e-01 
       3.515999236474e-01       1.171882026720e-01 
       3.635962711085e-01       1.091628746313e-01 
       3.760637506334e-01       1.022951422527e-01 
       3.890349143879e-01       9.592291476238e-02 
       4.025469216825e-01       8.949278026616e-02 
       4.166424456376e-01       8.309632278192e-02 
       4.313708035863e-01       7.719952470544e-02 
       4.467893782977e-01       7.188449106958e-02 
       4.629654199664e-01       6.685269138800e-02 
       4.799783501994e-01       6.190064205675e-02 
       4.979227319373e-01       5.720503784818e-02 
       5.169121270864e-01       5.288537033748e-02 
       5.370841404489e-01       4.875190455339e-02 
       5.586070464571e-01       4.477252490837e-02 
       5.816885094930e-01       4.103319482796e-02 
       6.065870144995e-01       3.747086258782e-02 
       6.336266468475e-01       3.405669206294e-02 
       6.632156059511e-01       3.081461131093e-02 
       6.958678639263e-01       2.770790835010e-02 
       7.322247985589e-01       2.474616039603e-02 
       7.730680195114e-01       2.191809202569e-02 
       8.193049553677e-01       1.923410605929e-02 
       8.718988016039e-01       1.670671791412e-02 
       9.317218031082e-01       1.436101892921e-02 
       9.993660908989e-01       1.222686335651e-02 
       1.075037110174e+00       1.032817125745e-02 
       1.158653485707e+00       8.674657508892e-03 
       1.250099157308e+00       7.258875855925e-03 
       1.349432401273e+00       6.059130803711e-03 
       1.456947457397e+00       5.048788892762e-03 
       1.573135111331e+00       4.200811508958e-03 
       1.698621895592e+00       3.490479661227e-03 
       1.834127512934e+00       2.896402257495e-03 
       1.980444934528e+00       2.400074700236e-03 
       2.138435191726e+00       1.985976269404e-03 
       2.309029199186e+00       1.640813046009e-03 
       2.493232377687e+00       1.353453522999e-03 
       2.692130395285e+00       1.114453895731e-03 
       2.906895534573e+00       9.158891834720e-04 
       3.138793597714e+00       7.510932373468e-04 
       3.389191366484e+00       6.144597507720e-04 
       3.659564657905e+00       5.013042554018e-04 
       3.951507022538e+00       4.076943363962e-04 
       4.266739136701e+00       3.303578060162e-04 
       4.607118943941e+00       2.665492720536e-04 
       4.974652605557e+00       2.139894421268e-04 
       5.371506324689e+00       1.707784271284e-04 
       5.800019113685e+00       1.353354301903e-04 
       6.262716579983e+00       1.063500155323e-04 
       6.762325811764e+00       8.273165475423e-05 
       7.301791451110e+00       6.357950559419e-05 
       7.884293049406e+00       4.814420174987e-05 
       8.513263807261e+00       3.580228155143e-05 
       9.192410809424e+00       2.603581935001e-05 
       9.925736873929e+00       1.841160929710e-05 
       1.071756414427e+01       1.256491329556e-05 
       1.157255956364e+01       8.186212311366e-06 
       1.249576238137e+01       5.010006629242e-06 
       1.349261385375e+01       2.805744842188e-06 
       1.456898931416e+01       1.371329061242e-06 
       1.573123280165e+01       5.277328059195e-07 
       1.698619445202e+01       1.169222731916e-07 
       1.834127087176e+01       3.307367314341e-10 
       1.980444873285e+01       5.968556402879e-08 
       2.138435184532e+01       1.984404049471e-07 
       2.309029198506e+01       3.436825202632e-07 
       2.493232377636e+01       4.472321399097e-07 
       2.692130395282e+01       4.855598094271e-07 
       2.906895534573e+01       4.570693276171e-07 
       3.138793597714e+01       3.771498724080e-07 
       3.389191366484e+01       2.709148586738e-07 
       3.659564657905e+01       1.650063199933e-07 
       3.951507022538e+01       8.019448397201e-08 
       4.266739136701e+01       2.669022524050e-08 
       4.607118943941e+01       3.315116328691e-09 
       4.974652605557e+01       6.568266632916e-10 
       5.371506324689e+01       6.563962698744e-09 
       5.800019113685e+01       1.152828530596e-08 
       6.262716579983e+01       1.157957824192e-08 
       6.762325811764e+01       7.784092667613e-09 
