# Matter power spectrum P(k) at redshift z=99
# for k=1.04775e-05 to 67.6233 h/Mpc,
# number of wavenumbers equal to 246
#    1:k (h/Mpc)              2:P (Mpc/h)^3        
       1.047750691338e-05       7.261927673141e-03 
       1.131335172818e-05       7.820331745761e-03 
       1.221587619877e-05       8.421675986515e-03 
       1.319039970550e-05       9.069258192222e-03 
       1.424266598317e-05       9.766638404451e-03 
       1.537887697396e-05       1.051764069685e-02 
       1.660572938097e-05       1.132639105523e-02 
       1.793045413791e-05       1.219733231420e-02 
       1.936085902737e-05       1.313524224385e-02 
       2.090537469909e-05       1.414527121898e-02 
       2.257310435923e-05       1.523296272197e-02 
       2.437387742372e-05       1.640429444535e-02 
       2.631830745176e-05       1.766569582183e-02 
       2.841785470091e-05       1.902408601799e-02 
       3.068489367268e-05       2.048692970598e-02 
       3.313278604643e-05       2.206225513600e-02 
       3.577595943165e-05       2.375870704916e-02 
       3.862999240274e-05       2.558560727487e-02 
       4.171170631739e-05       2.755297763352e-02 
       4.503926445983e-05       2.967161927324e-02 
       4.863227909323e-05       3.195316450842e-02 
       5.251192705226e-05       3.441013519295e-02 
       5.670107455699e-05       3.705601722539e-02 
       6.122441198393e-05       3.990533413575e-02 
       6.610859938837e-05       4.297372168216e-02 
       7.138242363583e-05       4.627802141702e-02 
       7.707696806873e-05       4.983636194174e-02 
       8.322579570814e-05       5.366826847248e-02 
       8.986514707061e-05       5.779476394586e-02 
       9.703415376577e-05       6.223848243904e-02 
       1.047750691338e-04       6.702379865660e-02 
       1.131335172818e-04       7.217695153403e-02 
       1.221587619877e-04       7.772619073597e-02 
       1.319039970550e-04       8.370193432402e-02 
       1.424266598317e-04       9.013692507576e-02 
       1.537887697396e-04       9.706641242600e-02 
       1.660572938097e-04       1.045283354275e-01 
       1.793045413791e-04       1.125635349072e-01 
       1.936085902737e-04       1.212159614972e-01 
       2.090537469909e-04       1.305329132718e-01 
       2.257310435923e-04       1.405652846219e-01 
       2.437387742372e-04       1.513678302545e-01 
       2.631830745176e-04       1.629994504875e-01 
       2.841785470091e-04       1.755234921230e-01 
       3.068489367268e-04       1.890080670419e-01 
       3.313278604643e-04       2.035264002441e-01 
       3.577595943165e-04       2.191571803688e-01 
       3.862999240274e-04       2.359849437600e-01 
       4.171170631739e-04       2.541004741546e-01 
       4.503926445983e-04       2.736012080286e-01 
       4.863227909323e-04       2.945916790974e-01 
       5.251192705226e-04       3.171839525192e-01 
       5.670107455699e-04       3.414980764012e-01 
       6.122441198393e-04       3.676625413111e-01 
       6.610859938837e-04       3.958147252315e-01 
       7.138242363583e-04       4.261013284929e-01 
       7.707696806873e-04       4.586787792365e-01 
       8.322579570814e-04       4.937136001349e-01 
       8.986514707061e-04       5.313826801414e-01 
       9.703415376577e-04       5.718734972171e-01 
       1.047750691338e-03       6.153841629518e-01 
       1.131335172818e-03       6.621233239479e-01 
       1.221587619877e-03       7.123098220441e-01 
       1.319039970550e-03       7.661720584459e-01 
       1.424266598317e-03       8.239546297744e-01 
       1.537887697396e-03       8.859011173475e-01 
       1.660572938097e-03       9.522588006423e-01 
       1.793045413791e-03       1.023280099819e+00 
       1.936085902737e-03       1.099216304578e+00 
       2.090537469909e-03       1.180312990451e+00 
       2.257310435923e-03       1.266804115847e+00 
       2.437387742372e-03       1.358904853398e+00 
       2.631830745176e-03       1.456802683146e+00 
       2.841785470091e-03       1.560646890506e+00 
       3.068489367268e-03       1.670536062476e+00 
       3.313278604643e-03       1.786503852123e+00 
       3.577595943165e-03       1.908502930743e+00 
       3.862999240274e-03       2.036387730643e+00 
       4.171170631739e-03       2.169896178564e+00 
       4.503926445983e-03       2.308631878864e+00 
       4.863227909323e-03       2.452047290781e+00 
       5.251192705226e-03       2.599430627836e+00 
       5.670107455699e-03       2.749896931506e+00 
       6.122441198393e-03       2.902386512900e+00 
       6.610859938837e-03       3.055668708549e+00 
       7.138242363583e-03       3.208356460617e+00 
       7.707696806873e-03       3.358923891520e+00 
       8.322579570814e-03       3.505725593577e+00 
       8.986514707061e-03       3.647009592625e+00 
       9.703415376577e-03       3.780923301030e+00 
       1.047750691338e-02       3.905490749800e+00 
       1.131335172818e-02       4.018588033561e+00 
       1.221587619877e-02       4.117901580375e+00 
       1.319039970550e-02       4.200915443850e+00 
       1.424266598317e-02       4.264944056597e+00 
       1.537887697392e-02       4.307219334203e+00 
       1.660572938023e-02       4.325066950524e+00 
       1.793045412706e-02       4.316059405134e+00 
       1.936085890181e-02       4.278230046014e+00 
       2.090537352463e-02       4.210206153873e+00 
       2.257309535333e-02       4.111421181352e+00 
       2.437382002918e-02       3.982422167297e+00 
       2.631799944462e-02       3.825165716289e+00 
       2.841644545389e-02       3.643286728944e+00 
       3.067933355377e-02       3.442194994091e+00 
       3.311368470740e-02       3.229230771071e+00 
       3.571840443502e-02       3.013508060419e+00 
       3.847720348444e-02       2.805270742015e+00 
       4.135335538431e-02       2.614415339844e+00 
       4.429361667738e-02       2.448132466978e+00 
       4.724366439141e-02       2.309237409835e+00 
       5.016480835311e-02       2.196113826849e+00 
       5.303989620246e-02       2.104361889978e+00 
       5.586870669566e-02       2.028464192480e+00 
       5.866042680613e-02       1.963155930467e+00 
       6.142798932958e-02       1.903781553515e+00 
       6.418496440164e-02       1.846475070474e+00 
       6.694418833788e-02       1.788195874130e+00 
       6.971731106057e-02       1.726717058239e+00 
       7.251476155766e-02       1.660652238925e+00 
       7.534587671527e-02       1.589469724090e+00 
       7.821907666265e-02       1.513438713998e+00 
       8.114203772912e-02       1.433568224428e+00 
       8.412184535029e-02       1.351491157428e+00 
       8.716512279304e-02       1.269272774700e+00 
       9.027813695930e-02       1.189192079813e+00 
       9.346688431697e-02       1.113502482513e+00 
       9.673716028276e-02       1.044172611464e+00 
       1.000946150830e-01       9.827027377840e-01 
       1.035447986537e-01       9.299349610111e-01 
       1.070931966762e-01       8.859550282000e-01 
       1.107452594425e-01       8.500695152290e-01 
       1.145064249153e-01       8.207996122079e-01 
       1.183821370918e-01       7.960224330242e-01 
       1.223778605862e-01       7.731422967230e-01 
       1.264990921987e-01       7.494483417050e-01 
       1.307513701367e-01       7.225554040673e-01 
       1.351402814784e-01       6.909061340231e-01 
       1.396714684203e-01       6.541781092329e-01 
       1.443506338194e-01       6.134239948264e-01 
       1.491835465229e-01       5.708649980291e-01 
       1.541760469708e-01       5.293596844958e-01 
       1.593340535561e-01       4.917073609547e-01 
       1.646635702297e-01       4.599154626727e-01 
       1.701706958456e-01       4.347244470158e-01 
       1.758616357459e-01       4.154034255233e-01 
       1.817427160982e-01       3.999324836977e-01 
       1.878204015065e-01       3.856777929891e-01 
       1.941013164283e-01       3.698049569261e-01 
       2.005922709503e-01       3.505408142995e-01 
       2.073002914972e-01       3.280387248222e-01 
       2.142326570816e-01       3.042085321690e-01 
       2.213969417533e-01       2.816065897027e-01 
       2.288010639706e-01       2.622513953024e-01 
       2.364533437147e-01       2.469554825673e-01 
       2.443625682930e-01       2.350069208520e-01 
       2.525380679504e-01       2.244116505420e-01 
       2.609898026346e-01       2.130874108796e-01 
       2.697284615565e-01       2.000952397131e-01 
       2.787655775689e-01       1.860126409244e-01 
       2.881136588829e-01       1.725102303803e-01 
       2.977863412677e-01       1.610587290724e-01 
       3.077985646929e-01       1.517534283020e-01 
       3.181667794071e-01       1.435516882892e-01 
       3.289091877812e-01       1.351735299934e-01 
       3.400460299658e-01       1.261558286276e-01 
       3.515999236474e-01       1.171934710080e-01 
       3.635962711085e-01       1.091681510806e-01 
       3.760637506334e-01       1.023006735851e-01 
       3.890349143879e-01       9.592867678800e-02 
       4.025469216825e-01       8.949855423101e-02 
       4.166424456376e-01       8.310207601423e-02 
       4.313708035863e-01       7.720580480478e-02 
       4.467893782977e-01       7.189074324894e-02 
       4.629654199664e-01       6.685891064241e-02 
       4.799783501994e-01       6.190732153057e-02 
       4.979227319373e-01       5.721167914999e-02 
       5.169121270864e-01       5.289207999401e-02 
       5.370841404489e-01       4.875882243835e-02 
       5.586070464571e-01       4.477958043527e-02 
       5.816885094930e-01       4.104036711852e-02 
       6.065870144995e-01       3.747817526824e-02 
       6.336266468475e-01       3.406438997572e-02 
       6.632156059511e-01       3.082232150995e-02 
       6.958678639263e-01       2.771564083269e-02 
       7.322247985589e-01       2.475423277867e-02 
       7.730680195114e-01       2.192642148540e-02 
       8.193049553677e-01       1.924258643764e-02 
       8.718988016039e-01       1.671542270670e-02 
       9.317218031082e-01       1.437000065393e-02 
       9.993660908989e-01       1.223605705904e-02 
       1.075037110174e+00       1.033762449104e-02 
       1.158653485707e+00       8.684314356116e-03 
       1.250099157308e+00       7.268839460796e-03 
       1.349432401273e+00       6.069300290191e-03 
       1.456947457397e+00       5.059181082689e-03 
       1.573135111331e+00       4.211427520832e-03 
       1.698621895592e+00       3.501311657922e-03 
       1.834127512934e+00       2.907424825674e-03 
       1.980444934528e+00       2.411291159729e-03 
       2.138435191726e+00       1.997344829150e-03 
       2.309029199186e+00       1.652334567265e-03 
       2.493232377687e+00       1.365099223590e-03 
       2.692130395285e+00       1.126204755221e-03 
       2.906895534573e+00       9.277191612821e-04 
       3.138793597714e+00       7.629675962727e-04 
       3.389191366484e+00       6.263512564801e-04 
       3.659564657905e+00       5.131700644468e-04 
       3.951507022538e+00       4.195036080432e-04 
       4.266739136701e+00       3.420602032963e-04 
       4.607118943941e+00       2.780988895841e-04 
       4.974652605557e+00       2.253328566089e-04 
       5.371506324689e+00       1.818584240538e-04 
       5.800019113685e+00       1.460909893362e-04 
       6.262716579983e+00       1.167152855805e-04 
       6.762325811764e+00       9.264124066322e-05 
       7.301791451110e+00       7.296317312717e-05 
       7.884293049406e+00       5.693067927656e-05 
       8.513263807261e+00       4.392532367306e-05 
       9.192410809424e+00       3.343170816155e-05 
       9.925736873929e+00       2.502596644745e-05 
       1.071756414427e+01       1.835390864537e-05 
       1.157255956364e+01       1.312244414490e-05 
       1.249576238137e+01       9.084881625259e-06 
       1.349261385375e+01       6.033743418678e-06 
       1.456898931416e+01       3.791956220328e-06 
       1.573123280165e+01       2.207382227434e-06 
       1.698619445202e+01       1.147154162026e-06 
       1.834127087176e+01       4.944554346360e-07 
       1.980444873285e+01       1.462014581110e-07 
       2.138435184532e+01       1.190986329063e-08 
       2.309029198506e+01       1.347556718478e-08 
       2.493232377636e+01       8.592344904716e-08 
       2.692130395282e+01       1.784249757103e-07 
       2.906895534573e+01       2.552555216442e-07 
       3.138793597714e+01       2.959496287961e-07 
       3.389191366484e+01       2.943996839435e-07 
       3.659564657905e+01       2.563419570041e-07 
       3.951507022538e+01       1.953434897368e-07 
       4.266739136701e+01       1.280426235732e-07 
       4.607118943941e+01       6.914145133615e-08 
       4.974652605557e+01       2.780875940273e-08 
       5.371506324689e+01       6.116236987970e-09 
       5.800019113685e+01       2.326363061722e-11 
       6.262716579983e+01       2.315256027054e-09 
       6.762325811764e+01       6.130361202980e-09 
