# Matter power spectrum P(k) at redshift z=99
# for k=1.04775e-05 to 67.6233 h/Mpc,
# number of wavenumbers equal to 246
#    1:k (h/Mpc)              2:P (Mpc/h)^3        
       1.047750691338e-05       7.261927673138e-03 
       1.131335172818e-05       7.820331745758e-03 
       1.221587619877e-05       8.421675986511e-03 
       1.319039970550e-05       9.069258192218e-03 
       1.424266598317e-05       9.766638404447e-03 
       1.537887697396e-05       1.051764069684e-02 
       1.660572938097e-05       1.132639105523e-02 
       1.793045413791e-05       1.219733231420e-02 
       1.936085902737e-05       1.313524224384e-02 
       2.090537469909e-05       1.414527121897e-02 
       2.257310435923e-05       1.523296272196e-02 
       2.437387742372e-05       1.640429444534e-02 
       2.631830745176e-05       1.766569582182e-02 
       2.841785470091e-05       1.902408601798e-02 
       3.068489367268e-05       2.048692970597e-02 
       3.313278604643e-05       2.206225513600e-02 
       3.577595943165e-05       2.375870704915e-02 
       3.862999240274e-05       2.558560727486e-02 
       4.171170631739e-05       2.755297763351e-02 
       4.503926445983e-05       2.967161927322e-02 
       4.863227909323e-05       3.195316450840e-02 
       5.251192705226e-05       3.441013519293e-02 
       5.670107455699e-05       3.705601722532e-02 
       6.122441198393e-05       3.990533413572e-02 
       6.610859938837e-05       4.297372168214e-02 
       7.138242363583e-05       4.627802141700e-02 
       7.707696806873e-05       4.983636194172e-02 
       8.322579570814e-05       5.366826847245e-02 
       8.986514707061e-05       5.779476394584e-02 
       9.703415376577e-05       6.223848243901e-02 
       1.047750691338e-04       6.702379865657e-02 
       1.131335172818e-04       7.217695153400e-02 
       1.221587619877e-04       7.772619073592e-02 
       1.319039970550e-04       8.370193432398e-02 
       1.424266598317e-04       9.013692507571e-02 
       1.537887697396e-04       9.706641242596e-02 
       1.660572938097e-04       1.045283354274e-01 
       1.793045413791e-04       1.125635349071e-01 
       1.936085902737e-04       1.212159614971e-01 
       2.090537469909e-04       1.305329132718e-01 
       2.257310435923e-04       1.405652846218e-01 
       2.437387742372e-04       1.513678302544e-01 
       2.631830745176e-04       1.629994504875e-01 
       2.841785470091e-04       1.755234921229e-01 
       3.068489367268e-04       1.890080670418e-01 
       3.313278604643e-04       2.035264002440e-01 
       3.577595943165e-04       2.191571803687e-01 
       3.862999240274e-04       2.359849437599e-01 
       4.171170631739e-04       2.541004741545e-01 
       4.503926445983e-04       2.736012080284e-01 
       4.863227909323e-04       2.945916790972e-01 
       5.251192705226e-04       3.171839525190e-01 
       5.670107455699e-04       3.414980764010e-01 
       6.122441198393e-04       3.676625413109e-01 
       6.610859938837e-04       3.958147252312e-01 
       7.138242363583e-04       4.261013284923e-01 
       7.707696806873e-04       4.586787792363e-01 
       8.322579570814e-04       4.937136001361e-01 
       8.986514707061e-04       5.313826801411e-01 
       9.703415376577e-04       5.718734972167e-01 
       1.047750691338e-03       6.153841629513e-01 
       1.131335172818e-03       6.621233239473e-01 
       1.221587619877e-03       7.123098220441e-01 
       1.319039970550e-03       7.661720584120e-01 
       1.424266598317e-03       8.239546297727e-01 
       1.537887697396e-03       8.859011173466e-01 
       1.660572938097e-03       9.522588006432e-01 
       1.793045413791e-03       1.023280099818e+00 
       1.936085902737e-03       1.099216304577e+00 
       2.090537469909e-03       1.180312990450e+00 
       2.257310435923e-03       1.266804115843e+00 
       2.437387742372e-03       1.358904853399e+00 
       2.631830745176e-03       1.456802683146e+00 
       2.841785470091e-03       1.560646890507e+00 
       3.068489367268e-03       1.670536062480e+00 
       3.313278604643e-03       1.786503852131e+00 
       3.577595943165e-03       1.908502930756e+00 
       3.862999240274e-03       2.036387730667e+00 
       4.171170631739e-03       2.169896178545e+00 
       4.503926445983e-03       2.308631878925e+00 
       4.863227909323e-03       2.452047290874e+00 
       5.251192705226e-03       2.599430627977e+00 
       5.670107455699e-03       2.749896931615e+00 
       6.122441198393e-03       2.902386513208e+00 
       6.610859938837e-03       3.055668703456e+00 
       7.138242363583e-03       3.208356461266e+00 
       7.707696806873e-03       3.358923892016e+00 
       8.322579570814e-03       3.505725594619e+00 
       8.986514707061e-03       3.647009752034e+00 
       9.703415376577e-03       3.780923303599e+00 
       1.047750691338e-02       3.905490761549e+00 
       1.131335172818e-02       4.018587640208e+00 
       1.221587619877e-02       4.117901583252e+00 
       1.319039970550e-02       4.200915388083e+00 
       1.424266598317e-02       4.264942466284e+00 
       1.537887697392e-02       4.307218761446e+00 
       1.660572938023e-02       4.325063370504e+00 
       1.793045412706e-02       4.316057716010e+00 
       1.936085890181e-02       4.278232154300e+00 
       2.090537352463e-02       4.210203188992e+00 
       2.257309535333e-02       4.111419905191e+00 
       2.437382002918e-02       3.982427378562e+00 
       2.631799944462e-02       3.825169788265e+00 
       2.841644545389e-02       3.643284560079e+00 
       3.067933355377e-02       3.442201552076e+00 
       3.311368470740e-02       3.229240097296e+00 
       3.571840443502e-02       3.013519255350e+00 
       3.847720348444e-02       2.805288219254e+00 
       4.135335538431e-02       2.614419342950e+00 
       4.429361667738e-02       2.448133096998e+00 
       4.724366439141e-02       2.309242639068e+00 
       5.016480835311e-02       2.196116598388e+00 
       5.303989620246e-02       2.104363525807e+00 
       5.586870669566e-02       2.028461023780e+00 
       5.866042680613e-02       1.963149836719e+00 
       6.142798932958e-02       1.903780066551e+00 
       6.418496440164e-02       1.846482819888e+00 
       6.694418833788e-02       1.788198352522e+00 
       6.971731106057e-02       1.726718852519e+00 
       7.251476155766e-02       1.660657569574e+00 
       7.534587671527e-02       1.589468062558e+00 
       7.821907666265e-02       1.513436790620e+00 
       8.114203772912e-02       1.433564093724e+00 
       8.412184535029e-02       1.351491148609e+00 
       8.716512279304e-02       1.269276376995e+00 
       9.027813695930e-02       1.189194078193e+00 
       9.346688431697e-02       1.113498479646e+00 
       9.673716028276e-02       1.044173494055e+00 
       1.000946150830e-01       9.827074498742e-01 
       1.035447986537e-01       9.299394211633e-01 
       1.070931966762e-01       8.859581422215e-01 
       1.107452594425e-01       8.500694532223e-01 
       1.145064249153e-01       8.208036102261e-01 
       1.183821370918e-01       7.960257418606e-01 
       1.223778605862e-01       7.731463562744e-01 
       1.264990921987e-01       7.494505681080e-01 
       1.307513701367e-01       7.225580661172e-01 
       1.351402814784e-01       6.909096077719e-01 
       1.396714684203e-01       6.541822526012e-01 
       1.443506338194e-01       6.134277183563e-01 
       1.491835465229e-01       5.708700803686e-01 
       1.541760469708e-01       5.293651390810e-01 
       1.593340535561e-01       4.917115731294e-01 
       1.646635702297e-01       4.599200616073e-01 
       1.701706958456e-01       4.347283939854e-01 
       1.758616357459e-01       4.154081256169e-01 
       1.817427160982e-01       3.999358538145e-01 
       1.878204015065e-01       3.856856792160e-01 
       1.941013164283e-01       3.698141279859e-01 
       2.005922709503e-01       3.505512022177e-01 
       2.073002914972e-01       3.280457971880e-01 
       2.142326570816e-01       3.042139691136e-01 
       2.213969417533e-01       2.816110564347e-01 
       2.288010639706e-01       2.622561446143e-01 
       2.364533437147e-01       2.469612799042e-01 
       2.443625682930e-01       2.350119414253e-01 
       2.525380679504e-01       2.244204188887e-01 
       2.609898026346e-01       2.130962519015e-01 
       2.697284615565e-01       2.001019172428e-01 
       2.787655775689e-01       1.860194122351e-01 
       2.881136588829e-01       1.725169175276e-01 
       2.977863412677e-01       1.610655977787e-01 
       3.077985646929e-01       1.517608641449e-01 
       3.181667794071e-01       1.435593214167e-01 
       3.289091877812e-01       1.351818335126e-01 
       3.400460299658e-01       1.261638331799e-01 
       3.515999236474e-01       1.172014795215e-01 
       3.635962711085e-01       1.091766540759e-01 
       3.760637506334e-01       1.023091396205e-01 
       3.890349143879e-01       9.593747548121e-02 
       4.025469216825e-01       8.950720051059e-02 
       4.166424456376e-01       8.311154409784e-02 
       4.313708035863e-01       7.721531496717e-02 
       4.467893782977e-01       7.190037547532e-02 
       4.629654199664e-01       6.686857806044e-02 
       4.799783501994e-01       6.191730845350e-02 
       4.979227319373e-01       5.722204932175e-02 
       5.169121270864e-01       5.290268668341e-02 
       5.370841404489e-01       4.876962197802e-02 
       5.586070464571e-01       4.479066203760e-02 
       5.816885094930e-01       4.105157059794e-02 
       6.065870144995e-01       3.748969429353e-02 
       6.336266468475e-01       3.407604080583e-02 
       6.632156059511e-01       3.083438552534e-02 
       6.958678639263e-01       2.772805297779e-02 
       7.322247985589e-01       2.476685058038e-02 
       7.730680195114e-01       2.193925876939e-02 
       8.193049553677e-01       1.925590870454e-02 
       8.718988016039e-01       1.672901040063e-02 
       9.317218031082e-01       1.438401166601e-02 
       9.993660908989e-01       1.225048210548e-02 
       1.075037110174e+00       1.035238374905e-02 
       1.158653485707e+00       8.699479741421e-03 
       1.250099157308e+00       7.284355667118e-03 
       1.349432401273e+00       6.085235605882e-03 
       1.456947457397e+00       5.075510940149e-03 
       1.573135111331e+00       4.228047448833e-03 
       1.698621895592e+00       3.518316140401e-03 
       1.834127512934e+00       2.924759422047e-03 
       1.980444934528e+00       2.428941270020e-03 
       2.138435191726e+00       2.015286090539e-03 
       2.309029199186e+00       1.670550385665e-03 
       2.493232377687e+00       1.383572329903e-03 
       2.692130395285e+00       1.144906777452e-03 
       2.906895534573e+00       9.466381999344e-04 
       3.138793597714e+00       7.820745100189e-04 
       3.389191366484e+00       6.456085351064e-04 
       3.659564657905e+00       5.325568284499e-04 
       3.951507022538e+00       4.389761206967e-04 
       4.266739136701e+00       3.615814843681e-04 
       4.607118943941e+00       2.976229120853e-04 
       4.974652605557e+00       2.448098344437e-04 
       5.371506324689e+00       2.012377376603e-04 
       5.800019113685e+00       1.653100977875e-04 
       6.262716579983e+00       1.357099103345e-04 
       6.762325811764e+00       1.113391008114e-04 
       7.301791451110e+00       9.128832933678e-05 
       7.884293049406e+00       7.480193546538e-05 
       8.513263807261e+00       6.125484576059e-05 
       9.192410809424e+00       5.013025523220e-05 
       9.925736873929e+00       4.099946670015e-05 
       1.071756414427e+01       3.351107090344e-05 
       1.157255956364e+01       2.737247930304e-05 
       1.249576238137e+01       2.234282719192e-05 
       1.349261385375e+01       1.822457905313e-05 
       1.456898931416e+01       1.485413648740e-05 
       1.573123280165e+01       1.209740339357e-05 
       1.698619445202e+01       9.843573184008e-06 
       1.834127087176e+01       8.001972523440e-06 
       1.980444873285e+01       6.497899012278e-06 
       2.138435184532e+01       5.270201156280e-06 
       2.309029198506e+01       4.268603341962e-06 
       2.493232377636e+01       3.451899896000e-06 
       2.692130395282e+01       2.786361556577e-06 
       2.906895534573e+01       2.244292574745e-06 
       3.138793597714e+01       1.803099643527e-06 
       3.389191366484e+01       1.444287694960e-06 
       3.659564657905e+01       1.152707713161e-06 
       3.951507022538e+01       9.160054565077e-07 
       4.266739136701e+01       7.241122458491e-07 
       4.607118943941e+01       5.688044288872e-07 
       4.974652605557e+01       4.433643531448e-07 
       5.371506324689e+01       3.423517376787e-07 
       5.800019113685e+01       2.613240579015e-07 
       6.262716579983e+01       1.966610862171e-07 
       6.762325811764e+01       1.454277662574e-07 
