# Matter power spectrum P(k) at redshift z=0
# for k=1.04775e-05 to 67.6233 h/Mpc,
# number of wavenumbers equal to 246
#    1:k (h/Mpc)              2:P (Mpc/h)^3        
       1.047750691338e-05       5.020964806750e+01 
       1.131335172818e-05       5.407048206553e+01 
       1.221587619877e-05       5.822819063754e+01 
       1.319039970550e-05       6.270562589680e+01 
       1.424266598317e-05       6.752731788102e+01 
       1.537887697396e-05       7.271977200258e+01 
       1.660572938097e-05       7.831147241542e+01 
       1.793045413791e-05       8.433311815128e+01 
       1.936085902737e-05       9.081778242446e+01 
       2.090537469909e-05       9.780108061341e+01 
       2.257310435923e-05       1.053213197032e+02 
       2.437387742372e-05       1.134197377001e+02 
       2.631830745176e-05       1.221408202816e+02 
       2.841785470091e-05       1.315324720917e+02 
       3.068489367268e-05       1.416462093730e+02 
       3.313278604643e-05       1.525374500691e+02 
       3.577595943165e-05       1.642660687078e+02 
       3.862999240274e-05       1.768963504868e+02 
       4.171170631739e-05       1.904975992460e+02 
       4.503926445983e-05       2.051444490305e+02 
       4.863227909323e-05       2.209171463752e+02 
       5.251192705226e-05       2.379022222314e+02 
       5.670107455699e-05       2.561927925580e+02 
       6.122441198393e-05       2.758890441791e+02 
       6.610859938837e-05       2.970989225467e+02 
       7.138242363583e-05       3.199385558200e+02 
       7.707696806873e-05       3.445329780878e+02 
       8.322579570814e-05       3.710167315928e+02 
       8.986514707061e-05       3.995346440954e+02 
       9.703415376577e-05       4.302425403884e+02 
       1.047750691338e-04       4.633080762974e+02 
       1.131335172818e-04       4.989116267507e+02 
       1.221587619877e-04       5.372471946561e+02 
       1.319039970550e-04       5.785234124634e+02 
       1.424266598317e-04       6.229645930980e+02 
       1.537887697396e-04       6.708118484951e+02 
       1.660572938097e-04       7.223242660220e+02 
       1.793045413791e-04       7.777801554211e+02 
       1.936085902737e-04       8.374783607333e+02 
       2.090537469909e-04       9.017396264495e+02 
       2.257310435923e-04       9.709080260152e+02 
       2.437387742372e-04       1.045352448644e+03 
       2.631830745176e-04       1.125468122836e+03 
       2.841785470091e-04       1.211678179511e+03 
       3.068489367268e-04       1.304435249091e+03 
       3.313278604643e-04       1.404223052541e+03 
       3.577595943165e-04       1.511558013390e+03 
       3.862999240274e-04       1.626990836381e+03 
       4.171170631739e-04       1.751108027371e+03 
       4.503926445983e-04       1.884533381345e+03 
       4.863227909323e-04       2.027929376470e+03 
       5.251192705226e-04       2.181998446367e+03 
       5.670107455699e-04       2.347484100857e+03 
       6.122441198393e-04       2.525171869335e+03 
       6.610859938837e-04       2.715889981400e+03 
       7.138242363583e-04       2.920509686088e+03 
       7.707696806873e-04       3.139945097711e+03 
       8.322579570814e-04       3.375152334397e+03 
       8.986514707061e-04       3.627127828231e+03 
       9.703415376577e-04       3.896905450016e+03 
       1.047750691338e-03       4.185552170958e+03 
       1.131335172818e-03       4.494162426791e+03 
       1.221587619877e-03       4.823850702665e+03 
       1.319039970550e-03       5.175742738772e+03 
       1.424266598317e-03       5.551019592525e+03 
       1.537887697396e-03       5.950788335885e+03 
       1.660572938097e-03       6.376123046807e+03 
       1.793045413791e-03       6.828073896111e+03 
       1.936085902737e-03       7.307625375386e+03 
       2.090537469909e-03       7.815671859831e+03 
       2.257310435923e-03       8.352990369399e+03 
       2.437387742372e-03       8.920211057538e+03 
       2.631830745176e-03       9.517783061890e+03 
       2.841785470091e-03       1.014593703671e+04 
       3.068489367268e-03       1.080464505736e+04 
       3.313278604643e-03       1.149357459474e+04 
       3.577595943165e-03       1.221203620826e+04 
       3.862999240274e-03       1.295892538505e+04 
       4.171170631739e-03       1.373266002381e+04 
       4.503926445983e-03       1.453111834595e+04 
       4.863227909323e-03       1.535154984225e+04 
       5.251192705226e-03       1.619063613426e+04 
       5.670107455699e-03       1.704431256620e+04 
       6.122441198393e-03       1.790755938461e+04 
       6.610859938837e-03       1.877460419439e+04 
       7.138242363583e-03       1.963872429111e+04 
       7.707696806873e-03       2.049215713345e+04 
       8.322579570814e-03       2.132607230689e+04 
       8.986514707061e-03       2.213055201298e+04 
       9.703415376577e-03       2.289445470863e+04 
       1.047750691338e-02       2.360548136573e+04 
       1.131335172818e-02       2.425023510634e+04 
       1.221587619877e-02       2.481423920837e+04 
       1.319039970550e-02       2.528218870106e+04 
       1.424266598317e-02       2.563815008287e+04 
       1.537887697392e-02       2.586607494775e+04 
       1.660572938023e-02       2.595027353658e+04 
       1.793045412706e-02       2.587633233242e+04 
       1.936085890181e-02       2.563218181015e+04 
       2.090537352463e-02       2.520934535534e+04 
       2.257309535333e-02       2.460446755513e+04 
       2.437382002918e-02       2.382088456668e+04 
       2.631799944462e-02       2.287044029306e+04 
       2.841644545389e-02       2.177451351553e+04 
       3.067933355377e-02       2.056553870895e+04 
       3.311368470740e-02       1.928730636091e+04 
       3.571840443502e-02       1.799397574192e+04 
       3.847720348444e-02       1.674683414059e+04 
       4.135335538431e-02       1.560460584328e+04 
       4.429361667738e-02       1.461037328103e+04 
       4.724366439141e-02       1.378053690995e+04 
       5.016480835311e-02       1.310504927319e+04 
       5.303989620246e-02       1.255713923056e+04 
       5.586870669566e-02       1.210425792444e+04 
       5.866042680613e-02       1.171464092625e+04 
       6.142798932958e-02       1.136048192849e+04 
       6.418496440164e-02       1.101855653159e+04 
       6.694418833788e-02       1.067070687440e+04 
       6.971731106057e-02       1.030355406411e+04 
       7.251476155766e-02       9.908994770036e+03 
       7.534587671527e-02       9.483810333428e+03 
       7.821907666265e-02       9.029504973025e+03 
       8.114203772912e-02       8.552310529620e+03 
       8.412184535029e-02       8.061950079864e+03 
       8.716512279304e-02       7.570771518140e+03 
       9.027813695930e-02       7.092497040529e+03 
       9.346688431697e-02       6.640519449056e+03 
       9.673716028276e-02       6.226684121634e+03 
       1.000946150830e-01       5.859957864552e+03 
       1.035447986537e-01       5.545231537985e+03 
       1.070931966762e-01       5.283144466215e+03 
       1.107452594425e-01       5.069420744354e+03 
       1.145064249153e-01       4.895249305484e+03 
       1.183821370918e-01       4.747877970597e+03 
       1.223778605862e-01       4.611739531505e+03 
       1.264990921987e-01       4.470618076138e+03 
       1.307513701367e-01       4.310277324100e+03 
       1.351402814784e-01       4.121380240712e+03 
       1.396714684203e-01       3.902056635465e+03 
       1.443506338194e-01       3.658636985570e+03 
       1.491835465229e-01       3.404484043753e+03 
       1.541760469708e-01       3.156671563689e+03 
       1.593340535561e-01       2.931987217761e+03 
       1.646635702297e-01       2.742370376311e+03 
       1.701706958456e-01       2.592261186411e+03 
       1.758616357459e-01       2.477238882061e+03 
       1.817427160982e-01       2.385185819224e+03 
       1.878204015065e-01       2.300359378156e+03 
       1.941013164283e-01       2.205759430437e+03 
       2.005922709503e-01       2.090813942428e+03 
       2.073002914972e-01       1.956466215531e+03 
       2.142326570816e-01       1.814193502558e+03 
       2.213969417533e-01       1.679294517473e+03 
       2.288010639706e-01       1.563853157979e+03 
       2.364533437147e-01       1.472686734643e+03 
       2.443625682930e-01       1.401513154434e+03 
       2.525380679504e-01       1.338414046215e+03 
       2.609898026346e-01       1.270901694748e+03 
       2.697284615565e-01       1.193381624611e+03 
       2.787655775689e-01       1.109339072860e+03 
       2.881136588829e-01       1.028770681265e+03 
       2.977863412677e-01       9.604825297625e+02 
       3.077985646929e-01       9.050249526534e+02 
       3.181667794071e-01       8.561466246807e+02 
       3.289091877812e-01       8.061888669570e+02 
       3.400460299658e-01       7.523913438213e+02 
       3.515999236474e-01       6.989234148995e+02 
       3.635962711085e-01       6.510632056379e+02 
       3.760637506334e-01       6.101226490183e+02 
       3.890349143879e-01       5.721331343307e+02 
       4.025469216825e-01       5.337819906120e+02 
       4.166424456376e-01       4.956309740043e+02 
       4.313708035863e-01       4.604696792775e+02 
       4.467893782977e-01       4.287781735725e+02 
       4.629654199664e-01       3.987731798315e+02 
       4.799783501994e-01       3.692423272615e+02 
       4.979227319373e-01       3.412403604785e+02 
       5.169121270864e-01       3.154836430070e+02 
       5.370841404489e-01       2.908355854928e+02 
       5.586070464571e-01       2.671061878532e+02 
       5.816885094930e-01       2.448097855609e+02 
       6.065870144995e-01       2.235676590813e+02 
       6.336266468475e-01       2.032108085124e+02 
       6.632156059511e-01       1.838790719417e+02 
       6.958678639263e-01       1.653544627105e+02 
       7.322247985589e-01       1.476953064253e+02 
       7.730680195114e-01       1.308337411060e+02 
       8.193049553677e-01       1.148311251216e+02 
       8.718988016039e-01       9.976276876231e+01 
       9.317218031082e-01       8.577800151575e+01 
       9.993660908989e-01       7.305453046862e+01 
       1.075037110174e+00       6.173595159527e+01 
       1.158653485707e+00       5.187900924938e+01 
       1.250099157308e+00       4.344019285606e+01 
       1.349432401273e+00       3.628918893744e+01 
       1.456947457397e+00       3.026780428326e+01 
       1.573135111331e+00       2.521431469117e+01 
       1.698621895592e+00       2.098179716515e+01 
       1.834127512934e+00       1.744216028084e+01 
       1.980444934528e+00       1.448549036634e+01 
       2.138435191726e+00       1.201865974945e+01 
       2.309029199186e+00       9.962908884130e+00 
       2.493232377687e+00       8.251555163560e+00 
       2.692130395285e+00       6.828298417612e+00 
       2.906895534573e+00       5.645940373018e+00 
       3.138793597714e+00       4.664596590105e+00 
       3.389191366484e+00       3.850801689181e+00 
       3.659564657905e+00       3.176609388814e+00 
       3.951507022538e+00       2.618550562297e+00 
       4.266739136701e+00       2.157023187642e+00 
       4.607118943941e+00       1.775593074820e+00 
       4.974652605557e+00       1.460655051049e+00 
       5.371506324689e+00       1.200790023836e+00 
       5.800019113685e+00       9.865338575366e-01 
       6.262716579983e+00       8.100025240167e-01 
       6.762325811764e+00       6.646584896035e-01 
       7.301791451110e+00       5.450699330969e-01 
       7.884293049406e+00       4.467442415877e-01 
       8.513263807261e+00       3.659387132237e-01 
       9.192410809424e+00       2.995836518292e-01 
       9.925736873929e+00       2.451211961568e-01 
       1.071756414427e+01       2.004505629083e-01 
       1.157255956364e+01       1.638276863204e-01 
       1.249576238137e+01       1.338192134738e-01 
       1.349261385375e+01       1.092457746806e-01 
       1.456898931416e+01       8.913230169189e-02 
       1.573123280165e+01       7.267710722200e-02 
       1.698619445202e+01       5.922226965957e-02 
       1.834127087176e+01       4.822615703639e-02 
       1.980444873285e+01       3.924313954412e-02 
       2.138435184532e+01       3.190860822031e-02 
       2.309029198506e+01       2.592278877241e-02 
       2.493232377636e+01       2.103947138269e-02 
       2.692130395282e+01       1.705803261577e-02 
       2.906895534573e+01       1.381298082480e-02 
       3.138793597714e+01       1.116978646716e-02 
       3.389191366484e+01       9.017664249042e-03 
       3.659564657905e+01       7.266431752167e-03 
       3.951507022538e+01       5.842388743319e-03 
       4.266739136701e+01       4.685144276690e-03 
       4.607118943941e+01       3.745372755169e-03 
       4.974652605557e+01       2.983242377928e-03 
       5.371506324689e+01       2.365663265262e-03 
       5.800019113685e+01       1.866039902367e-03 
       6.262716579983e+01       1.462629208058e-03 
       6.762325811764e+01       1.137712731639e-03 
