# Matter power spectrum P(k) at redshift z=0
# for k=1.04775e-05 to 67.6233 h/Mpc,
# number of wavenumbers equal to 246
#    1:k (h/Mpc)              2:P (Mpc/h)^3        
       1.047750691338e-05       5.020964806755e+01 
       1.131335172818e-05       5.407048206554e+01 
       1.221587619877e-05       5.822819063737e+01 
       1.319039970550e-05       6.270562589676e+01 
       1.424266598317e-05       6.752731788102e+01 
       1.537887697396e-05       7.271977200258e+01 
       1.660572938097e-05       7.831147241542e+01 
       1.793045413791e-05       8.433311815128e+01 
       1.936085902737e-05       9.081778242446e+01 
       2.090537469909e-05       9.780108061341e+01 
       2.257310435923e-05       1.053213197032e+02 
       2.437387742372e-05       1.134197377001e+02 
       2.631830745176e-05       1.221408202816e+02 
       2.841785470091e-05       1.315324720916e+02 
       3.068489367268e-05       1.416462093730e+02 
       3.313278604643e-05       1.525374500691e+02 
       3.577595943165e-05       1.642660687078e+02 
       3.862999240274e-05       1.768963504868e+02 
       4.171170631739e-05       1.904975992460e+02 
       4.503926445983e-05       2.051444490305e+02 
       4.863227909323e-05       2.209171463752e+02 
       5.251192705226e-05       2.379022222314e+02 
       5.670107455699e-05       2.561927925677e+02 
       6.122441198393e-05       2.758890441791e+02 
       6.610859938837e-05       2.970989225466e+02 
       7.138242363583e-05       3.199385558200e+02 
       7.707696806873e-05       3.445329780878e+02 
       8.322579570814e-05       3.710167315928e+02 
       8.986514707061e-05       3.995346440954e+02 
       9.703415376577e-05       4.302425403884e+02 
       1.047750691338e-04       4.633080762974e+02 
       1.131335172818e-04       4.989116267507e+02 
       1.221587619877e-04       5.372471946561e+02 
       1.319039970550e-04       5.785234124624e+02 
       1.424266598317e-04       6.229645930980e+02 
       1.537887697396e-04       6.708118484951e+02 
       1.660572938097e-04       7.223242660220e+02 
       1.793045413791e-04       7.777801553370e+02 
       1.936085902737e-04       8.374783607333e+02 
       2.090537469909e-04       9.017396264495e+02 
       2.257310435923e-04       9.709080260152e+02 
       2.437387742372e-04       1.045352448644e+03 
       2.631830745176e-04       1.125468122836e+03 
       2.841785470091e-04       1.211678179511e+03 
       3.068489367268e-04       1.304435249091e+03 
       3.313278604643e-04       1.404223052541e+03 
       3.577595943165e-04       1.511558013390e+03 
       3.862999240274e-04       1.626990836430e+03 
       4.171170631739e-04       1.751108027371e+03 
       4.503926445983e-04       1.884533381345e+03 
       4.863227909323e-04       2.027929376470e+03 
       5.251192705226e-04       2.181998446367e+03 
       5.670107455699e-04       2.347484100857e+03 
       6.122441198393e-04       2.525171869337e+03 
       6.610859938837e-04       2.715889981400e+03 
       7.138242363583e-04       2.920509686089e+03 
       7.707696806873e-04       3.139945097711e+03 
       8.322579570814e-04       3.375152334397e+03 
       8.986514707061e-04       3.627127828231e+03 
       9.703415376577e-04       3.896905450016e+03 
       1.047750691338e-03       4.185552170958e+03 
       1.131335172818e-03       4.494162426791e+03 
       1.221587619877e-03       4.823850702664e+03 
       1.319039970550e-03       5.175742734767e+03 
       1.424266598317e-03       5.551019592517e+03 
       1.537887697396e-03       5.950788335884e+03 
       1.660572938097e-03       6.376123046807e+03 
       1.793045413791e-03       6.828073896130e+03 
       1.936085902737e-03       7.307625375387e+03 
       2.090537469909e-03       7.815671860090e+03 
       2.257310435923e-03       8.352990369403e+03 
       2.437387742372e-03       8.920211057523e+03 
       2.631830745176e-03       9.517783061890e+03 
       2.841785470091e-03       1.014593703671e+04 
       3.068489367268e-03       1.080464505734e+04 
       3.313278604643e-03       1.149357459549e+04 
       3.577595943165e-03       1.221203620827e+04 
       3.862999240274e-03       1.295892538505e+04 
       4.171170631739e-03       1.373266002387e+04 
       4.503926445983e-03       1.453111834595e+04 
       4.863227909323e-03       1.535154984227e+04 
       5.251192705226e-03       1.619063613436e+04 
       5.670107455699e-03       1.704431256589e+04 
       6.122441198393e-03       1.790755938456e+04 
       6.610859938837e-03       1.877460420039e+04 
       7.138242363583e-03       1.963872429096e+04 
       7.707696806873e-03       2.049215712292e+04 
       8.322579570814e-03       2.132607108317e+04 
       8.986514707061e-03       2.213055229887e+04 
       9.703415376577e-03       2.289445470791e+04 
       1.047750691338e-02       2.360547941452e+04 
       1.131335172818e-02       2.425022856816e+04 
       1.221587619877e-02       2.481423922382e+04 
       1.319039970550e-02       2.528218645776e+04 
       1.424266598317e-02       2.563814322731e+04 
       1.537887697392e-02       2.586606794054e+04 
       1.660572938023e-02       2.595028679295e+04 
       1.793045412706e-02       2.587633552785e+04 
       1.936085890181e-02       2.563220402238e+04 
       2.090537352463e-02       2.520935618421e+04 
       2.257309535333e-02       2.460446916466e+04 
       2.437382002918e-02       2.382083954578e+04 
       2.631799944462e-02       2.287043664471e+04 
       2.841644545389e-02       2.177454770173e+04 
       3.067933355377e-02       2.056557750301e+04 
       3.311368470740e-02       1.928731091634e+04 
       3.571840443502e-02       1.799399912336e+04 
       3.847720348444e-02       1.674685255888e+04 
       4.135335538431e-02       1.560463150515e+04 
       4.429361667738e-02       1.461036714962e+04 
       4.724366439141e-02       1.378055123690e+04 
       5.016480835311e-02       1.310513418446e+04 
       5.303989620246e-02       1.255716211412e+04 
       5.586870669566e-02       1.210426435800e+04 
       5.866042680613e-02       1.171462631031e+04 
       6.142798932958e-02       1.136045288101e+04 
       6.418496440164e-02       1.101858551212e+04 
       6.694418833788e-02       1.067068664873e+04 
       6.971731106057e-02       1.030359272626e+04 
       7.251476155766e-02       9.909001087996e+03 
       7.534587671527e-02       9.483777873513e+03 
       7.821907666265e-02       9.029483051760e+03 
       8.114203772912e-02       8.552346197242e+03 
       8.412184535029e-02       8.061980053995e+03 
       8.716512279304e-02       7.570775867675e+03 
       9.027813695930e-02       7.092496985949e+03 
       9.346688431697e-02       6.640520478691e+03 
       9.673716028276e-02       6.226727693186e+03 
       1.000946150830e-01       5.859932647423e+03 
       1.035447986537e-01       5.545240123374e+03 
       1.070931966762e-01       5.283132741591e+03 
       1.107452594425e-01       5.069424317617e+03 
       1.145064249153e-01       4.895252521310e+03 
       1.183821370918e-01       4.747846358823e+03 
       1.223778605862e-01       4.611735059196e+03 
       1.264990921987e-01       4.470626362860e+03 
       1.307513701367e-01       4.310270798783e+03 
       1.351402814784e-01       4.121391127312e+03 
       1.396714684203e-01       3.902067980459e+03 
       1.443506338194e-01       3.658635861657e+03 
       1.491835465229e-01       3.404485312358e+03 
       1.541760469708e-01       3.156676793245e+03 
       1.593340535561e-01       2.931977356707e+03 
       1.646635702297e-01       2.742368738006e+03 
       1.701706958456e-01       2.592260276592e+03 
       1.758616357459e-01       2.477242866203e+03 
       1.817427160982e-01       2.385183109556e+03 
       1.878204015065e-01       2.300359568968e+03 
       1.941013164283e-01       2.205763690855e+03 
       2.005922709503e-01       2.090812884807e+03 
       2.073002914972e-01       1.956469077458e+03 
       2.142326570816e-01       1.814193297098e+03 
       2.213969417533e-01       1.679294546459e+03 
       2.288010639706e-01       1.563849742427e+03 
       2.364533437147e-01       1.472687251149e+03 
       2.443625682930e-01       1.401515368100e+03 
       2.525380679504e-01       1.338411381614e+03 
       2.609898026346e-01       1.270905326228e+03 
       2.697284615565e-01       1.193384245144e+03 
       2.787655775689e-01       1.109337678984e+03 
       2.881136588829e-01       1.028772031357e+03 
       2.977863412677e-01       9.604822855869e+02 
       3.077985646929e-01       9.050240674908e+02 
       3.181667794071e-01       8.561455615497e+02 
       3.289091877812e-01       8.061905781366e+02 
       3.400460299658e-01       7.523900766456e+02 
       3.515999236474e-01       6.989259313896e+02 
       3.635962711085e-01       6.510633228556e+02 
       3.760637506334e-01       6.101223727589e+02 
       3.890349143879e-01       5.721326863194e+02 
       4.025469216825e-01       5.337809881840e+02 
       4.166424456376e-01       4.956311718726e+02 
       4.313708035863e-01       4.604701008303e+02 
       4.467893782977e-01       4.287783735942e+02 
       4.629654199664e-01       3.987741272805e+02 
       4.799783501994e-01       3.692422682967e+02 
       4.979227319373e-01       3.412405578456e+02 
       5.169121270864e-01       3.154829557319e+02 
       5.370841404489e-01       2.908362412775e+02 
       5.586070464571e-01       2.671068383949e+02 
       5.816885094930e-01       2.448097506909e+02 
       6.065870144995e-01       2.235683039486e+02 
       6.336266468475e-01       2.032113398343e+02 
       6.632156059511e-01       1.838791172121e+02 
       6.958678639263e-01       1.653547840363e+02 
       7.322247985589e-01       1.476961435038e+02 
       7.730680195114e-01       1.308339625487e+02 
       8.193049553677e-01       1.148313886443e+02 
       8.718988016039e-01       9.976278804663e+01 
       9.317218031082e-01       8.577811715105e+01 
       9.993660908989e-01       7.305491481288e+01 
       1.075037110174e+00       6.173621348674e+01 
       1.158653485707e+00       5.187954941813e+01 
       1.250099157308e+00       4.344054967922e+01 
       1.349432401273e+00       3.628948249995e+01 
       1.456947457397e+00       3.026820648787e+01 
       1.573135111331e+00       2.521466332891e+01 
       1.698621895592e+00       2.098203404430e+01 
       1.834127512934e+00       1.744246334342e+01 
       1.980444934528e+00       1.448573993022e+01 
       2.138435191726e+00       1.201899358882e+01 
       2.309029199186e+00       9.963202855237e+00 
       2.493232377687e+00       8.251866749417e+00 
       2.692130395285e+00       6.828632277764e+00 
       2.906895534573e+00       5.646258199933e+00 
       3.138793597714e+00       4.664908065451e+00 
       3.389191366484e+00       3.851126004239e+00 
       3.659564657905e+00       3.176965207781e+00 
       3.951507022538e+00       2.618901483837e+00 
       4.266739136701e+00       2.157366288246e+00 
       4.607118943941e+00       1.775952170020e+00 
       4.974652605557e+00       1.460984540185e+00 
       5.371506324689e+00       1.201139831931e+00 
       5.800019113685e+00       9.868860271106e-01 
       6.262716579983e+00       8.103566471234e-01 
       6.762325811764e+00       6.650144279907e-01 
       7.301791451110e+00       5.454234255463e-01 
       7.884293049406e+00       4.470997155348e-01 
       8.513263807261e+00       3.662974823877e-01 
       9.192410809424e+00       2.999434991356e-01 
       9.925736873929e+00       2.454823314312e-01 
       1.071756414427e+01       2.008088106449e-01 
       1.157255956364e+01       1.641850708916e-01 
       1.249576238137e+01       1.341776570717e-01 
       1.349261385375e+01       1.096028345501e-01 
       1.456898931416e+01       8.949006043432e-02 
       1.573123280165e+01       7.303340163229e-02 
       1.698619445202e+01       5.957793404017e-02 
       1.834127087176e+01       4.858128042165e-02 
       1.980444873285e+01       3.959705379557e-02 
       2.138435184532e+01       3.226101422900e-02 
       2.309029198506e+01       2.627347697539e-02 
       2.493232377636e+01       2.138856548366e-02 
       2.692130395282e+01       1.740470771769e-02 
       2.906895534573e+01       1.415758269322e-02 
       3.138793597714e+01       1.151137818498e-02 
       3.389191366484e+01       9.356037429117e-03 
       3.659564657905e+01       7.601337660834e-03 
       3.951507022538e+01       6.173129801094e-03 
       4.266739136701e+01       5.011136956923e-03 
       4.607118943941e+01       4.066175989001e-03 
       4.974652605557e+01       3.297993255717e-03 
       5.371506324689e+01       2.673734214955e-03 
       5.800019113685e+01       2.166587291068e-03 
       6.262716579983e+01       1.754770999118e-03 
       6.762325811764e+01       1.420464458586e-03 
