# Matter power spectrum P(k) at redshift z=0
# for k=1.04775e-05 to 67.6233 h/Mpc,
# number of wavenumbers equal to 246
#    1:k (h/Mpc)              2:P (Mpc/h)^3        
       1.047750691338e-05       5.020964806754e+01 
       1.131335172818e-05       5.407048206553e+01 
       1.221587619877e-05       5.822819063893e+01 
       1.319039970550e-05       6.270562589675e+01 
       1.424266598317e-05       6.752731788102e+01 
       1.537887697396e-05       7.271977200258e+01 
       1.660572938097e-05       7.831147241542e+01 
       1.793045413791e-05       8.433311815128e+01 
       1.936085902737e-05       9.081778242446e+01 
       2.090537469909e-05       9.780108061339e+01 
       2.257310435923e-05       1.053213197032e+02 
       2.437387742372e-05       1.134197377001e+02 
       2.631830745176e-05       1.221408202816e+02 
       2.841785470091e-05       1.315324720916e+02 
       3.068489367268e-05       1.416462093730e+02 
       3.313278604643e-05       1.525374500691e+02 
       3.577595943165e-05       1.642660687078e+02 
       3.862999240274e-05       1.768963504868e+02 
       4.171170631739e-05       1.904975992460e+02 
       4.503926445983e-05       2.051444490305e+02 
       4.863227909323e-05       2.209171463752e+02 
       5.251192705226e-05       2.379022222314e+02 
       5.670107455699e-05       2.561927925573e+02 
       6.122441198393e-05       2.758890441791e+02 
       6.610859938837e-05       2.970989225466e+02 
       7.138242363583e-05       3.199385558200e+02 
       7.707696806873e-05       3.445329780878e+02 
       8.322579570814e-05       3.710167315928e+02 
       8.986514707061e-05       3.995346440954e+02 
       9.703415376577e-05       4.302425403884e+02 
       1.047750691338e-04       4.633080762974e+02 
       1.131335172818e-04       4.989116267507e+02 
       1.221587619877e-04       5.372471946560e+02 
       1.319039970550e-04       5.785234124631e+02 
       1.424266598317e-04       6.229645930980e+02 
       1.537887697396e-04       6.708118484951e+02 
       1.660572938097e-04       7.223242660219e+02 
       1.793045413791e-04       7.777801552857e+02 
       1.936085902737e-04       8.374783607333e+02 
       2.090537469909e-04       9.017396264494e+02 
       2.257310435923e-04       9.709080260151e+02 
       2.437387742372e-04       1.045352448644e+03 
       2.631830745176e-04       1.125468122835e+03 
       2.841785470091e-04       1.211678179510e+03 
       3.068489367268e-04       1.304435249091e+03 
       3.313278604643e-04       1.404223052541e+03 
       3.577595943165e-04       1.511558013389e+03 
       3.862999240274e-04       1.626990836506e+03 
       4.171170631739e-04       1.751108027369e+03 
       4.503926445983e-04       1.884533381344e+03 
       4.863227909323e-04       2.027929376469e+03 
       5.251192705226e-04       2.181998446366e+03 
       5.670107455699e-04       2.347484100855e+03 
       6.122441198393e-04       2.525171869334e+03 
       6.610859938837e-04       2.715889981397e+03 
       7.138242363583e-04       2.920509686083e+03 
       7.707696806873e-04       3.139945097705e+03 
       8.322579570814e-04       3.375152334390e+03 
       8.986514707061e-04       3.627127828223e+03 
       9.703415376577e-04       3.896905450006e+03 
       1.047750691338e-03       4.185552170929e+03 
       1.131335172818e-03       4.494162426775e+03 
       1.221587619877e-03       4.823850702648e+03 
       1.319039970550e-03       5.175742738593e+03 
       1.424266598317e-03       5.551019592478e+03 
       1.537887697396e-03       5.950788335832e+03 
       1.660572938097e-03       6.376123046681e+03 
       1.793045413791e-03       6.828073896052e+03 
       1.936085902737e-03       7.307625375301e+03 
       2.090537469909e-03       7.815671899012e+03 
       2.257310435923e-03       8.352990369250e+03 
       2.437387742372e-03       8.920211057360e+03 
       2.631830745176e-03       9.517783061664e+03 
       2.841785470091e-03       1.014593703643e+04 
       3.068489367268e-03       1.080464505708e+04 
       3.313278604643e-03       1.149357459498e+04 
       3.577595943165e-03       1.221203620768e+04 
       3.862999240274e-03       1.295892538432e+04 
       4.171170631739e-03       1.373266002071e+04 
       4.503926445983e-03       1.453111834479e+04 
       4.863227909323e-03       1.535154980102e+04 
       5.251192705226e-03       1.619063588985e+04 
       5.670107455699e-03       1.704431255192e+04 
       6.122441198393e-03       1.790755952545e+04 
       6.610859938837e-03       1.877460424970e+04 
       7.138242363583e-03       1.963872474172e+04 
       7.707696806873e-03       2.049215710326e+04 
       8.322579570814e-03       2.132610938239e+04 
       8.986514707061e-03       2.213054975095e+04 
       9.703415376577e-03       2.289445620953e+04 
       1.047750691338e-02       2.360548482243e+04 
       1.131335172818e-02       2.425022479824e+04 
       1.221587619877e-02       2.481423727452e+04 
       1.319039970550e-02       2.528219486097e+04 
       1.424266598317e-02       2.563816015326e+04 
       1.537887697392e-02       2.586608259859e+04 
       1.660572938023e-02       2.595028180480e+04 
       1.793045412706e-02       2.587642497151e+04 
       1.936085890181e-02       2.563224691015e+04 
       2.090537352463e-02       2.520936314675e+04 
       2.257309535333e-02       2.460447622565e+04 
       2.437382002918e-02       2.382083999323e+04 
       2.631799944462e-02       2.287038892083e+04 
       2.841644545389e-02       2.177446074761e+04 
       3.067933355377e-02       2.056552129486e+04 
       3.311368470740e-02       1.928720960994e+04 
       3.571840443502e-02       1.799399062874e+04 
       3.847720348444e-02       1.674677830481e+04 
       4.135335538431e-02       1.560457496315e+04 
       4.429361667738e-02       1.461030177061e+04 
       4.724366439141e-02       1.378053622796e+04 
       5.016480835311e-02       1.310498763720e+04 
       5.303989620246e-02       1.255718761887e+04 
       5.586870669566e-02       1.210426257164e+04 
       5.866042680613e-02       1.171470117811e+04 
       6.142798932958e-02       1.136047533392e+04 
       6.418496440164e-02       1.101857910872e+04 
       6.694418833788e-02       1.067071292525e+04 
       6.971731106057e-02       1.030358121453e+04 
       7.251476155766e-02       9.909028943849e+03 
       7.534587671527e-02       9.483758093187e+03 
       7.821907666265e-02       9.029478940777e+03 
       8.114203772912e-02       8.552315029416e+03 
       8.412184535029e-02       8.061928095288e+03 
       8.716512279304e-02       7.570739062748e+03 
       9.027813695930e-02       7.092493561168e+03 
       9.346688431697e-02       6.640483916206e+03 
       9.673716028276e-02       6.226648353782e+03 
       1.000946150830e-01       5.859872949024e+03 
       1.035447986537e-01       5.545187578258e+03 
       1.070931966762e-01       5.283074064056e+03 
       1.107452594425e-01       5.069338148119e+03 
       1.145064249153e-01       4.895138040542e+03 
       1.183821370918e-01       4.747738642348e+03 
       1.223778605862e-01       4.611614533597e+03 
       1.264990921987e-01       4.470485798298e+03 
       1.307513701367e-01       4.310111967827e+03 
       1.351402814784e-01       4.121198150451e+03 
       1.396714684203e-01       3.901901802682e+03 
       1.443506338194e-01       3.658459924499e+03 
       1.491835465229e-01       3.404280355094e+03 
       1.541760469708e-01       3.156446787064e+03 
       1.593340535561e-01       2.931723753784e+03 
       1.646635702297e-01       2.742120656189e+03 
       1.701706958456e-01       2.591980681128e+03 
       1.758616357459e-01       2.476955986605e+03 
       1.817427160982e-01       2.384874360799e+03 
       1.878204015065e-01       2.300032595314e+03 
       1.941013164283e-01       2.205407990782e+03 
       2.005922709503e-01       2.090439978731e+03 
       2.073002914972e-01       1.956071662970e+03 
       2.142326570816e-01       1.813779436494e+03 
       2.213969417533e-01       1.678843450993e+03 
       2.288010639706e-01       1.563385429845e+03 
       2.364533437147e-01       1.472200320322e+03 
       2.443625682930e-01       1.400997907220e+03 
       2.525380679504e-01       1.337862555687e+03 
       2.609898026346e-01       1.270320589287e+03 
       2.697284615565e-01       1.192767039656e+03 
       2.787655775689e-01       1.108690682719e+03 
       2.881136588829e-01       1.028088856948e+03 
       2.977863412677e-01       9.597643175710e+02 
       3.077985646929e-01       9.042685712554e+02 
       3.181667794071e-01       8.553425583715e+02 
       3.289091877812e-01       8.053414972771e+02 
       3.400460299658e-01       7.515038972719e+02 
       3.515999236474e-01       6.979892779646e+02 
       3.635962711085e-01       6.500790111875e+02 
       3.760637506334e-01       6.090872434434e+02 
       3.890349143879e-01       5.710399985555e+02 
       4.025469216825e-01       5.326324151133e+02 
       4.166424456376e-01       4.944219872978e+02 
       4.313708035863e-01       4.591974232520e+02 
       4.467893782977e-01       4.274372088160e+02 
       4.629654199664e-01       3.973604029988e+02 
       4.799783501994e-01       3.677547804220e+02 
       4.979227319373e-01       3.396752102269e+02 
       5.169121270864e-01       3.138317507067e+02 
       5.370841404489e-01       2.890924583163e+02 
       5.586070464571e-01       2.652667664283e+02 
       5.816885094930e-01       2.428655408916e+02 
       6.065870144995e-01       2.215096346420e+02 
       6.336266468475e-01       2.010302053638e+02 
       6.632156059511e-01       1.815630771486e+02 
       6.958678639263e-01       1.628904135442e+02 
       7.322247985589e-01       1.450654883657e+02 
       7.730680195114e-01       1.280194794563e+02 
       8.193049553677e-01       1.118088515909e+02 
       8.718988016039e-01       9.650787354072e+01 
       9.317218031082e-01       8.226337874875e+01 
       9.993660908989e-01       6.925485633419e+01 
       1.075037110174e+00       5.762809192937e+01 
       1.158653485707e+00       4.744806184021e+01 
       1.250099157308e+00       3.867849638749e+01 
       1.349432401273e+00       3.119886524408e+01 
       1.456947457397e+00       2.486092994084e+01 
       1.573135111331e+00       1.951507665160e+01 
       1.698621895592e+00       1.502800222451e+01 
       1.834127512934e+00       1.128793089795e+01 
       1.980444934528e+00       8.203318307294e+00 
       2.138435191726e+00       5.700445526682e+00 
       2.309029199186e+00       3.720092499301e+00 
       2.493232377687e+00       2.212951607945e+00 
       2.692130395285e+00       1.134866243523e+00 
       2.906895534573e+00       4.417896140178e-01 
       3.138793597714e+00       8.423562711973e-02 
       3.389191366484e+00       2.666711745365e-03 
       3.659564657905e+00       1.245486347740e-01 
       3.951507022538e+00       3.650835960618e-01 
       4.266739136701e+00       6.328372904355e-01 
       4.607118943941e+00       8.414386958585e-01 
       4.974652605557e+00       9.255703367633e-01 
       5.371506324689e+00       8.579811155895e-01 
       5.800019113685e+00       6.601480005583e-01 
       6.262716579983e+00       3.985812531212e-01 
       6.762325811764e+00       1.620675204270e-01 
       7.301791451110e+00       2.400297494765e-02 
       7.884293049406e+00       5.865389571175e-03 
       8.513263807261e+00       6.544883865949e-02 
       9.192410809424e+00       1.247554944319e-01 
       9.925736873929e+00       1.256203820063e-01 
       1.071756414427e+01       7.161143980986e-02 
       1.157255956364e+01       1.564167526130e-02 
       1.249576238137e+01       5.413858135448e-04 
       1.349261385375e+01       1.583100530311e-02 
       1.456898931416e+01       2.258002954525e-02 
       1.573123280165e+01       9.997548644541e-03 
       1.698619445202e+01       2.119762433460e-04 
       1.834127087176e+01       2.638236424671e-03 
       1.980444873285e+01       3.866347438046e-03 
       2.138435184532e+01       6.456334969374e-04 
       2.309029198506e+01       2.853695896789e-04 
       2.493232377636e+01       7.437230834973e-04 
       2.692130395282e+01       5.229152258356e-05 
       2.906895534573e+01       1.239105025034e-04 
       3.138793597714e+01       6.124145829863e-05 
       3.389191366484e+01       1.277073314534e-05 
       3.659564657905e+01       1.625695560393e-05 
       3.951507022538e+01       2.590291017626e-06 
       4.266739136701e+01       1.790810785750e-06 
       4.607118943941e+01       1.042662802898e-06 
       4.974652605557e+01       5.565859370012e-09 
       5.371506324689e+01       1.073984267934e-07 
       5.800019113685e+01       4.312208055293e-08 
       6.262716579983e+01       1.441630749415e-09 
       6.762325811764e+01       1.907077270514e-11 
