# Matter power spectrum P(k) at redshift z=0
# for k=1.04775e-05 to 67.6233 h/Mpc,
# number of wavenumbers equal to 246
#    1:k (h/Mpc)              2:P (Mpc/h)^3        
       1.047750691338e-05       5.020964806751e+01 
       1.131335172818e-05       5.407048206554e+01 
       1.221587619877e-05       5.822819064365e+01 
       1.319039970550e-05       6.270562589679e+01 
       1.424266598317e-05       6.752731788103e+01 
       1.537887697396e-05       7.271977200258e+01 
       1.660572938097e-05       7.831147241542e+01 
       1.793045413791e-05       8.433311815128e+01 
       1.936085902737e-05       9.081778242446e+01 
       2.090537469909e-05       9.780108061340e+01 
       2.257310435923e-05       1.053213197032e+02 
       2.437387742372e-05       1.134197377001e+02 
       2.631830745176e-05       1.221408202816e+02 
       2.841785470091e-05       1.315324720916e+02 
       3.068489367268e-05       1.416462093729e+02 
       3.313278604643e-05       1.525374500691e+02 
       3.577595943165e-05       1.642660687077e+02 
       3.862999240274e-05       1.768963504868e+02 
       4.171170631739e-05       1.904975992461e+02 
       4.503926445983e-05       2.051444490305e+02 
       4.863227909323e-05       2.209171463751e+02 
       5.251192705226e-05       2.379022222311e+02 
       5.670107455699e-05       2.561927925424e+02 
       6.122441198393e-05       2.758890441790e+02 
       6.610859938837e-05       2.970989225465e+02 
       7.138242363583e-05       3.199385558199e+02 
       7.707696806873e-05       3.445329780873e+02 
       8.322579570814e-05       3.710167315926e+02 
       8.986514707061e-05       3.995346440951e+02 
       9.703415376577e-05       4.302425403881e+02 
       1.047750691338e-04       4.633080762970e+02 
       1.131335172818e-04       4.989116267503e+02 
       1.221587619877e-04       5.372471946555e+02 
       1.319039970550e-04       5.785234124620e+02 
       1.424266598317e-04       6.229645930971e+02 
       1.537887697396e-04       6.708118484939e+02 
       1.660572938097e-04       7.223242660205e+02 
       1.793045413791e-04       7.777801552636e+02 
       1.936085902737e-04       8.374783607309e+02 
       2.090537469909e-04       9.017396264465e+02 
       2.257310435923e-04       9.709080260114e+02 
       2.437387742372e-04       1.045352448639e+03 
       2.631830745176e-04       1.125468122830e+03 
       2.841785470091e-04       1.211678179503e+03 
       3.068489367268e-04       1.304435249081e+03 
       3.313278604643e-04       1.404223052529e+03 
       3.577595943165e-04       1.511558013375e+03 
       3.862999240274e-04       1.626990836426e+03 
       4.171170631739e-04       1.751108027347e+03 
       4.503926445983e-04       1.884533381315e+03 
       4.863227909323e-04       2.027929376432e+03 
       5.251192705226e-04       2.181998446320e+03 
       5.670107455699e-04       2.347484100798e+03 
       6.122441198393e-04       2.525171869262e+03 
       6.610859938837e-04       2.715889981308e+03 
       7.138242363583e-04       2.920509685965e+03 
       7.707696806873e-04       3.139945097562e+03 
       8.322579570814e-04       3.375152334210e+03 
       8.986514707061e-04       3.627127827998e+03 
       9.703415376577e-04       3.896905449723e+03 
       1.047750691338e-03       4.185552170567e+03 
       1.131335172818e-03       4.494162426330e+03 
       1.221587619877e-03       4.823850702093e+03 
       1.319039970550e-03       5.175742739817e+03 
       1.424266598317e-03       5.551019591612e+03 
       1.537887697396e-03       5.950788334660e+03 
       1.660572938097e-03       6.376123045188e+03 
       1.793045413791e-03       6.828073894126e+03 
       1.936085902737e-03       7.307625372819e+03 
       2.090537469909e-03       7.815671856964e+03 
       2.257310435923e-03       8.352990365197e+03 
       2.437387742372e-03       8.920211052188e+03 
       2.631830745176e-03       9.517783055079e+03 
       2.841785470091e-03       1.014593702807e+04 
       3.068489367268e-03       1.080464504642e+04 
       3.313278604643e-03       1.149357458159e+04 
       3.577595943165e-03       1.221203619078e+04 
       3.862999240274e-03       1.295892536303e+04 
       4.171170631739e-03       1.373265999593e+04 
       4.503926445983e-03       1.453111831118e+04 
       4.863227909323e-03       1.535154857935e+04 
       5.251192705226e-03       1.619062807745e+04 
       5.670107455699e-03       1.704431149996e+04 
       6.122441198393e-03       1.790756291658e+04 
       6.610859938837e-03       1.877459668257e+04 
       7.138242363583e-03       1.963872807753e+04 
       7.707696806873e-03       2.049214181799e+04 
       8.322579570814e-03       2.132611126851e+04 
       8.986514707061e-03       2.213053817537e+04 
       9.703415376577e-03       2.289442468144e+04 
       1.047750691338e-02       2.360546011480e+04 
       1.131335172818e-02       2.425021092811e+04 
       1.221587619877e-02       2.481411962125e+04 
       1.319039970550e-02       2.528217339311e+04 
       1.424266598317e-02       2.563822635565e+04 
       1.537887697392e-02       2.586592132730e+04 
       1.660572938023e-02       2.594998885715e+04 
       1.793045412706e-02       2.587604684210e+04 
       1.936085890181e-02       2.563225933492e+04 
       2.090537352463e-02       2.520920867183e+04 
       2.257309535333e-02       2.460430271502e+04 
       2.437382002918e-02       2.382073681429e+04 
       2.631799944462e-02       2.287022198456e+04 
       2.841644545389e-02       2.177433083045e+04 
       3.067933355377e-02       2.056536616847e+04 
       3.311368470740e-02       1.928714341541e+04 
       3.571840443502e-02       1.799396711429e+04 
       3.847720348444e-02       1.674679553574e+04 
       4.135335538431e-02       1.560447538842e+04 
       4.429361667738e-02       1.461027841510e+04 
       4.724366439141e-02       1.378049348609e+04 
       5.016480835311e-02       1.310498815030e+04 
       5.303989620246e-02       1.255715882808e+04 
       5.586870669566e-02       1.210422588241e+04 
       5.866042680613e-02       1.171433706564e+04 
       6.142798932958e-02       1.136013807440e+04 
       6.418496440164e-02       1.101858756960e+04 
       6.694418833788e-02       1.067066392522e+04 
       6.971731106057e-02       1.030361592693e+04 
       7.251476155766e-02       9.909058153944e+03 
       7.534587671527e-02       9.483609088290e+03 
       7.821907666265e-02       9.029282628644e+03 
       8.114203772912e-02       8.552106059895e+03 
       8.412184535029e-02       8.061926206625e+03 
       8.716512279304e-02       7.570731503006e+03 
       9.027813695930e-02       7.092430500906e+03 
       9.346688431697e-02       6.640502290836e+03 
       9.673716028276e-02       6.226683760532e+03 
       1.000946150830e-01       5.859899707002e+03 
       1.035447986537e-01       5.545213724753e+03 
       1.070931966762e-01       5.283107929644e+03 
       1.107452594425e-01       5.069405498116e+03 
       1.145064249153e-01       4.895227190797e+03 
       1.183821370918e-01       4.747791737097e+03 
       1.223778605862e-01       4.611665305916e+03 
       1.264990921987e-01       4.470552936532e+03 
       1.307513701367e-01       4.310218020317e+03 
       1.351402814784e-01       4.121330611929e+03 
       1.396714684203e-01       3.901983987572e+03 
       1.443506338194e-01       3.658577232284e+03 
       1.491835465229e-01       3.404402208849e+03 
       1.541760469708e-01       3.156559825481e+03 
       1.593340535561e-01       2.931852713583e+03 
       1.646635702297e-01       2.742267360050e+03 
       1.701706958456e-01       2.592143479044e+03 
       1.758616357459e-01       2.477119554133e+03 
       1.817427160982e-01       2.385062315105e+03 
       1.878204015065e-01       2.300238094557e+03 
       1.941013164283e-01       2.205665951600e+03 
       2.005922709503e-01       2.090722926913e+03 
       2.073002914972e-01       1.956339693118e+03 
       2.142326570816e-01       1.814043368869e+03 
       2.213969417533e-01       1.679133523443e+03 
       2.288010639706e-01       1.563692981558e+03 
       2.364533437147e-01       1.472520939306e+03 
       2.443625682930e-01       1.401356285333e+03 
       2.525380679504e-01       1.338255945971e+03 
       2.609898026346e-01       1.270726445497e+03 
       2.697284615565e-01       1.193179011872e+03 
       2.787655775689e-01       1.109143396002e+03 
       2.881136588829e-01       1.028566970357e+03 
       2.977863412677e-01       9.602707930739e+02 
       3.077985646929e-01       9.048039054427e+02 
       3.181667794071e-01       8.559124981384e+02 
       3.289091877812e-01       8.059467342837e+02 
       3.400460299658e-01       7.521391563805e+02 
       3.515999236474e-01       6.986603658924e+02 
       3.635962711085e-01       6.507883367292e+02 
       3.760637506334e-01       6.098426907905e+02 
       3.890349143879e-01       5.718358796834e+02 
       4.025469216825e-01       5.334710133102e+02 
       4.166424456376e-01       4.953069041714e+02 
       4.313708035863e-01       4.601356107799e+02 
       4.467893782977e-01       4.284282948774e+02 
       4.629654199664e-01       3.984059185691e+02 
       4.799783501994e-01       3.688565503916e+02 
       4.979227319373e-01       3.408393497375e+02 
       5.169121270864e-01       3.150646032510e+02 
       5.370841404489e-01       2.903954247940e+02 
       5.586070464571e-01       2.666474195538e+02 
       5.816885094930e-01       2.443260172199e+02 
       6.065870144995e-01       2.230586341282e+02 
       6.336266468475e-01       2.026744346380e+02 
       6.632156059511e-01       1.833127544363e+02 
       6.958678639263e-01       1.647547175358e+02 
       7.322247985589e-01       1.470581646865e+02 
       7.730680195114e-01       1.301530599439e+02 
       8.193049553677e-01       1.141025225742e+02 
       8.718988016039e-01       9.897894634880e+01 
       9.317218031082e-01       8.493192854059e+01 
       9.993660908989e-01       7.213812514167e+01 
       1.075037110174e+00       6.074063470833e+01 
       1.158653485707e+00       5.079825240755e+01 
       1.250099157308e+00       4.226683350605e+01 
       1.349432401273e+00       3.501802401020e+01 
       1.456947457397e+00       2.889319304677e+01 
       1.573135111331e+00       2.373277825330e+01 
       1.698621895592e+00       1.939026127207e+01 
       1.834127512934e+00       1.573933766300e+01 
       1.980444934528e+00       1.267227824398e+01 
       2.138435191726e+00       1.009893576544e+01 
       2.309029199186e+00       7.943859302913e+00 
       2.493232377687e+00       6.144828643013e+00 
       2.692130395285e+00       4.650725114123e+00 
       2.906895534573e+00       3.420145835931e+00 
       3.138793597714e+00       2.419843551615e+00 
       3.389191366484e+00       1.623094834803e+00 
       3.659564657905e+00       1.008140378751e+00 
       3.951507022538e+00       5.564655573060e-01 
       4.266739136701e+00       2.508255135925e-01 
       4.607118943941e+00       7.330146064939e-02 
       4.974652605557e+00       3.472530328709e-03 
       5.371506324689e+00       1.699703432751e-02 
       5.800019113685e+00       8.526835550900e-02 
       6.262716579983e+00       1.766253528997e-01 
       6.762325811764e+00       2.595331501282e-01 
       7.301791451110e+00       3.076669297146e-01 
       7.884293049406e+00       3.058324390147e-01 
       8.513263807261e+00       2.547259122966e-01 
       9.192410809424e+00       1.716598488419e-01 
       9.925736873929e+00       8.509524193162e-02 
       1.071756414427e+01       2.312091002716e-02 
       1.157255956364e+01       2.177447477380e-04 
       1.249576238137e+01       9.851437171090e-03 
       1.349261385375e+01       2.946931953640e-02 
       1.456898931416e+01       3.679223079969e-02 
       1.573123280165e+01       2.593219645474e-02 
       1.698619445202e+01       8.894490769506e-03 
       1.834127087176e+01       2.960305878461e-04 
       1.980444873285e+01       1.798105635476e-03 
       2.138435184532e+01       4.302950970648e-03 
       2.309029198506e+01       2.639300080312e-03 
       2.493232377636e+01       2.927007746564e-04 
       2.692130395282e+01       1.483620333988e-04 
       2.906895534573e+01       4.139259843742e-04 
       3.138793597714e+01       1.043717455078e-04 
       3.389191366484e+01       5.289437073041e-06 
       3.659564657905e+01       2.825582414676e-05 
       3.951507022538e+01       1.408024101657e-06 
       4.266739136701e+01       1.664521029996e-06 
       4.607118943941e+01       2.409368750089e-08 
       4.974652605557e+01       1.851380325093e-07 
       5.371506324689e+01       7.382257470840e-08 
       5.800019113685e+01       1.523566965881e-08 
       6.262716579983e+01       4.169577652099e-08 
       6.762325811764e+01       2.151782240848e-09 
