# Matter power spectrum P(k) at redshift z=0
# for k=1.04775e-05 to 67.6233 h/Mpc,
# number of wavenumbers equal to 246
#    1:k (h/Mpc)              2:P (Mpc/h)^3        
       1.047750691338e-05       5.020964806751e+01 
       1.131335172818e-05       5.407048206554e+01 
       1.221587619877e-05       5.822819064136e+01 
       1.319039970550e-05       6.270562589674e+01 
       1.424266598317e-05       6.752731788102e+01 
       1.537887697396e-05       7.271977200258e+01 
       1.660572938097e-05       7.831147241542e+01 
       1.793045413791e-05       8.433311815128e+01 
       1.936085902737e-05       9.081778242446e+01 
       2.090537469909e-05       9.780108061338e+01 
       2.257310435923e-05       1.053213197032e+02 
       2.437387742372e-05       1.134197377001e+02 
       2.631830745176e-05       1.221408202816e+02 
       2.841785470091e-05       1.315324720916e+02 
       3.068489367268e-05       1.416462093728e+02 
       3.313278604643e-05       1.525374500691e+02 
       3.577595943165e-05       1.642660687078e+02 
       3.862999240274e-05       1.768963504868e+02 
       4.171170631739e-05       1.904975992460e+02 
       4.503926445983e-05       2.051444490305e+02 
       4.863227909323e-05       2.209171463752e+02 
       5.251192705226e-05       2.379022222312e+02 
       5.670107455699e-05       2.561927925564e+02 
       6.122441198393e-05       2.758890441791e+02 
       6.610859938837e-05       2.970989225464e+02 
       7.138242363583e-05       3.199385558199e+02 
       7.707696806873e-05       3.445329780876e+02 
       8.322579570814e-05       3.710167315927e+02 
       8.986514707061e-05       3.995346440953e+02 
       9.703415376577e-05       4.302425403882e+02 
       1.047750691338e-04       4.633080762972e+02 
       1.131335172818e-04       4.989116267505e+02 
       1.221587619877e-04       5.372471946558e+02 
       1.319039970550e-04       5.785234124627e+02 
       1.424266598317e-04       6.229645930976e+02 
       1.537887697396e-04       6.708118484945e+02 
       1.660572938097e-04       7.223242660212e+02 
       1.793045413791e-04       7.777801553013e+02 
       1.936085902737e-04       8.374783607322e+02 
       2.090537469909e-04       9.017396264481e+02 
       2.257310435923e-04       9.709080260134e+02 
       2.437387742372e-04       1.045352448642e+03 
       2.631830745176e-04       1.125468122833e+03 
       2.841785470091e-04       1.211678179507e+03 
       3.068489367268e-04       1.304435249086e+03 
       3.313278604643e-04       1.404223052536e+03 
       3.577595943165e-04       1.511558013383e+03 
       3.862999240274e-04       1.626990836405e+03 
       4.171170631739e-04       1.751108027359e+03 
       4.503926445983e-04       1.884533381331e+03 
       4.863227909323e-04       2.027929376453e+03 
       5.251192705226e-04       2.181998446345e+03 
       5.670107455699e-04       2.347484100829e+03 
       6.122441198393e-04       2.525171869301e+03 
       6.610859938837e-04       2.715889981357e+03 
       7.138242363583e-04       2.920509686027e+03 
       7.707696806873e-04       3.139945097640e+03 
       8.322579570814e-04       3.375152334309e+03 
       8.986514707061e-04       3.627127828121e+03 
       9.703415376577e-04       3.896905449878e+03 
       1.047750691338e-03       4.185552170796e+03 
       1.131335172818e-03       4.494162426574e+03 
       1.221587619877e-03       4.823850702390e+03 
       1.319039970550e-03       5.175742734852e+03 
       1.424266598317e-03       5.551019592111e+03 
       1.537887697396e-03       5.950788335298e+03 
       1.660572938097e-03       6.376123046034e+03 
       1.793045413791e-03       6.828073895183e+03 
       1.936085902737e-03       7.307625374175e+03 
       2.090537469909e-03       7.815671860851e+03 
       2.257310435923e-03       8.352990367410e+03 
       2.437387742372e-03       8.920211055015e+03 
       2.631830745176e-03       9.517783058678e+03 
       2.841785470091e-03       1.014593703263e+04 
       3.068489367268e-03       1.080464505217e+04 
       3.313278604643e-03       1.149357458786e+04 
       3.577595943165e-03       1.221203620002e+04 
       3.862999240274e-03       1.295892537467e+04 
       4.171170631739e-03       1.373266000862e+04 
       4.503926445983e-03       1.453111832955e+04 
       4.863227909323e-03       1.535154925150e+04 
       5.251192705226e-03       1.619063251354e+04 
       5.670107455699e-03       1.704431222922e+04 
       6.122441198393e-03       1.790756122633e+04 
       6.610859938837e-03       1.877460502913e+04 
       7.138242363583e-03       1.963872816446e+04 
       7.707696806873e-03       2.049215468476e+04 
       8.322579570814e-03       2.132609280998e+04 
       8.986514707061e-03       2.213055402092e+04 
       9.703415376577e-03       2.289442010972e+04 
       1.047750691338e-02       2.360545597690e+04 
       1.131335172818e-02       2.425021707426e+04 
       1.221587619877e-02       2.481419649469e+04 
       1.319039970550e-02       2.528228402751e+04 
       1.424266598317e-02       2.563808433394e+04 
       1.537887697392e-02       2.586600888093e+04 
       1.660572938023e-02       2.595021281728e+04 
       1.793045412706e-02       2.587607918880e+04 
       1.936085890181e-02       2.563226891653e+04 
       2.090537352463e-02       2.520931633655e+04 
       2.257309535333e-02       2.460434214848e+04 
       2.437382002918e-02       2.382075957391e+04 
       2.631799944462e-02       2.287027345142e+04 
       2.841644545389e-02       2.177441431479e+04 
       3.067933355377e-02       2.056539312732e+04 
       3.311368470740e-02       1.928716333052e+04 
       3.571840443502e-02       1.799387219821e+04 
       3.847720348444e-02       1.674673101676e+04 
       4.135335538431e-02       1.560448373690e+04 
       4.429361667738e-02       1.461031375720e+04 
       4.724366439141e-02       1.378045577581e+04 
       5.016480835311e-02       1.310498399619e+04 
       5.303989620246e-02       1.255714787097e+04 
       5.586870669566e-02       1.210424247861e+04 
       5.866042680613e-02       1.171465723810e+04 
       6.142798932958e-02       1.136014088452e+04 
       6.418496440164e-02       1.101859382717e+04 
       6.694418833788e-02       1.067067230751e+04 
       6.971731106057e-02       1.030365556430e+04 
       7.251476155766e-02       9.909060061546e+03 
       7.534587671527e-02       9.483608695548e+03 
       7.821907666265e-02       9.029297990510e+03 
       8.114203772912e-02       8.552106652384e+03 
       8.412184535029e-02       8.061936283664e+03 
       8.716512279304e-02       7.570750513924e+03 
       9.027813695930e-02       7.092465994268e+03 
       9.346688431697e-02       6.640524216821e+03 
       9.673716028276e-02       6.226705251249e+03 
       1.000946150830e-01       5.859934734358e+03 
       1.035447986537e-01       5.545254841086e+03 
       1.070931966762e-01       5.283145330260e+03 
       1.107452594425e-01       5.069446996152e+03 
       1.145064249153e-01       4.895251021197e+03 
       1.183821370918e-01       4.747823151715e+03 
       1.223778605862e-01       4.611709321119e+03 
       1.264990921987e-01       4.470598898873e+03 
       1.307513701367e-01       4.310269412069e+03 
       1.351402814784e-01       4.121372886731e+03 
       1.396714684203e-01       3.902043882451e+03 
       1.443506338194e-01       3.658631594250e+03 
       1.491835465229e-01       3.404450637738e+03 
       1.541760469708e-01       3.156619642465e+03 
       1.593340535561e-01       2.931910265557e+03 
       1.646635702297e-01       2.742335180251e+03 
       1.701706958456e-01       2.592212284824e+03 
       1.758616357459e-01       2.477184709694e+03 
       1.817427160982e-01       2.385145193308e+03 
       1.878204015065e-01       2.300323343905e+03 
       1.941013164283e-01       2.205750192866e+03 
       2.005922709503e-01       2.090816447229e+03 
       2.073002914972e-01       1.956436139266e+03 
       2.142326570816e-01       1.814147454773e+03 
       2.213969417533e-01       1.679239610007e+03 
       2.288010639706e-01       1.563820276594e+03 
       2.364533437147e-01       1.472641283687e+03 
       2.443625682930e-01       1.401483025135e+03 
       2.525380679504e-01       1.338388493543e+03 
       2.609898026346e-01       1.270868464358e+03 
       2.697284615565e-01       1.193326576382e+03 
       2.787655775689e-01       1.109294263126e+03 
       2.881136588829e-01       1.028729914835e+03 
       2.977863412677e-01       9.604388157047e+02 
       3.077985646929e-01       9.049788271979e+02 
       3.181667794071e-01       8.560987180139e+02 
       3.289091877812e-01       8.061400321103e+02 
       3.400460299658e-01       7.523409559630e+02 
       3.515999236474e-01       6.988739374014e+02 
       3.635962711085e-01       6.510142535552e+02 
       3.760637506334e-01       6.100746272252e+02 
       3.890349143879e-01       5.720819734730e+02 
       4.025469216825e-01       5.337292956316e+02 
       4.166424456376e-01       4.955742864063e+02 
       4.313708035863e-01       4.604150048028e+02 
       4.467893782977e-01       4.287189136259e+02 
       4.629654199664e-01       3.987155953078e+02 
       4.799783501994e-01       3.691825603238e+02 
       4.979227319373e-01       3.411811507847e+02 
       5.169121270864e-01       3.154213549024e+02 
       5.370841404489e-01       2.907709434728e+02 
       5.586070464571e-01       2.670391515218e+02 
       5.816885094930e-01       2.447432004979e+02 
       6.065870144995e-01       2.235014427011e+02 
       6.336266468475e-01       2.031409595962e+02 
       6.632156059511e-01       1.838078579567e+02 
       6.958678639263e-01       1.652811894369e+02 
       7.322247985589e-01       1.476192381329e+02 
       7.730680195114e-01       1.307556936734e+02 
       8.193049553677e-01       1.147487658285e+02 
       8.718988016039e-01       9.967629429509e+01 
       9.317218031082e-01       8.568649013614e+01 
       9.993660908989e-01       7.295822923931e+01 
       1.075037110174e+00       6.163382188979e+01 
       1.158653485707e+00       5.177079709430e+01 
       1.250099157308e+00       4.332486386683e+01 
       1.349432401273e+00       3.616664522252e+01 
       1.456947457397e+00       3.013699726692e+01 
       1.573135111331e+00       2.507487916188e+01 
       1.698621895592e+00       2.083289916279e+01 
       1.834127512934e+00       1.728330035243e+01 
       1.980444934528e+00       1.431577565973e+01 
       2.138435191726e+00       1.183738910059e+01 
       2.309029199186e+00       9.769526785419e+00 
       2.493232377687e+00       8.045109633871e+00 
       2.692130395285e+00       6.608238536942e+00 
       2.906895534573e+00       5.411582488940e+00 
       3.138793597714e+00       4.415460702053e+00 
       3.389191366484e+00       3.586596146291e+00 
       3.659564657905e+00       2.897149707948e+00 
       3.951507022538e+00       2.324033177602e+00 
       4.266739136701e+00       1.847922197022e+00 
       4.607118943941e+00       1.452997264829e+00 
       4.974652605557e+00       1.126131281222e+00 
       5.371506324689e+00       8.566660885013e-01 
       5.800019113685e+00       6.359237198521e-01 
       6.262716579983e+00       4.569423086546e-01 
       6.762325811764e+00       3.141097850427e-01 
       7.301791451110e+00       2.029208231049e-01 
       7.884293049406e+00       1.196110323927e-01 
       8.513263807261e+00       6.090946092546e-02 
       9.192410809424e+00       2.367686218221e-02 
       9.925736873929e+00       4.630400031196e-03 
       1.071756414427e+01       8.657459867180e-05 
       1.157255956364e+01       5.844745975812e-03 
       1.249576238137e+01       1.726566189115e-02 
       1.349261385375e+01       2.961732622616e-02 
       1.456898931416e+01       3.869544566828e-02 
       1.573123280165e+01       4.162126490830e-02 
       1.698619445202e+01       3.756338073001e-02 
       1.834127087176e+01       2.802794248142e-02 
       1.980444873285e+01       1.637455576345e-02 
       2.138435184532e+01       6.483698435102e-03 
       2.309029198506e+01       1.006866717234e-03 
       2.493232377636e+01       1.223471938759e-04 
       2.692130395282e+01       1.700210598605e-03 
       2.906895534573e+01       2.983664490943e-03 
       3.138793597714e+01       2.604284334647e-03 
       3.389191366484e+01       1.211026690339e-03 
       3.659564657905e+01       1.891481739872e-04 
       3.951507022538e+01       1.270386084868e-05 
       4.266739136701e+01       1.323394830962e-04 
       4.607118943941e+01       9.771570144343e-05 
       4.974652605557e+01       1.283317749798e-05 
       5.371506324689e+01       1.480330186852e-06 
       5.800019113685e+01       2.687683872203e-06 
       6.262716579983e+01       1.191567113182e-07 
       6.762325811764e+01       1.338361012754e-06 
