# Matter power spectrum P(k) at redshift z=0
# for k=1.04775e-05 to 67.6233 h/Mpc,
# number of wavenumbers equal to 246
#    1:k (h/Mpc)              2:P (Mpc/h)^3        
       1.047750691338e-05       5.020964806751e+01 
       1.131335172818e-05       5.407048206554e+01 
       1.221587619877e-05       5.822819063844e+01 
       1.319039970550e-05       6.270562589677e+01 
       1.424266598317e-05       6.752731788102e+01 
       1.537887697396e-05       7.271977200258e+01 
       1.660572938097e-05       7.831147241542e+01 
       1.793045413791e-05       8.433311815128e+01 
       1.936085902737e-05       9.081778242446e+01 
       2.090537469909e-05       9.780108061339e+01 
       2.257310435923e-05       1.053213197032e+02 
       2.437387742372e-05       1.134197377001e+02 
       2.631830745176e-05       1.221408202815e+02 
       2.841785470091e-05       1.315324720916e+02 
       3.068489367268e-05       1.416462093730e+02 
       3.313278604643e-05       1.525374500691e+02 
       3.577595943165e-05       1.642660687078e+02 
       3.862999240274e-05       1.768963504868e+02 
       4.171170631739e-05       1.904975992460e+02 
       4.503926445983e-05       2.051444490305e+02 
       4.863227909323e-05       2.209171463752e+02 
       5.251192705226e-05       2.379022222314e+02 
       5.670107455699e-05       2.561927925820e+02 
       6.122441198393e-05       2.758890441791e+02 
       6.610859938837e-05       2.970989225465e+02 
       7.138242363583e-05       3.199385558200e+02 
       7.707696806873e-05       3.445329780878e+02 
       8.322579570814e-05       3.710167315928e+02 
       8.986514707061e-05       3.995346440954e+02 
       9.703415376577e-05       4.302425403884e+02 
       1.047750691338e-04       4.633080762974e+02 
       1.131335172818e-04       4.989116267507e+02 
       1.221587619877e-04       5.372471946561e+02 
       1.319039970550e-04       5.785234124634e+02 
       1.424266598317e-04       6.229645930980e+02 
       1.537887697396e-04       6.708118484951e+02 
       1.660572938097e-04       7.223242660219e+02 
       1.793045413791e-04       7.777801554034e+02 
       1.936085902737e-04       8.374783607333e+02 
       2.090537469909e-04       9.017396264495e+02 
       2.257310435923e-04       9.709080260151e+02 
       2.437387742372e-04       1.045352448644e+03 
       2.631830745176e-04       1.125468122836e+03 
       2.841785470091e-04       1.211678179510e+03 
       3.068489367268e-04       1.304435249091e+03 
       3.313278604643e-04       1.404223052541e+03 
       3.577595943165e-04       1.511558013390e+03 
       3.862999240274e-04       1.626990836454e+03 
       4.171170631739e-04       1.751108027370e+03 
       4.503926445983e-04       1.884533381344e+03 
       4.863227909323e-04       2.027929376470e+03 
       5.251192705226e-04       2.181998446366e+03 
       5.670107455699e-04       2.347484100856e+03 
       6.122441198393e-04       2.525171869335e+03 
       6.610859938837e-04       2.715889981399e+03 
       7.138242363583e-04       2.920509686080e+03 
       7.707696806873e-04       3.139945097707e+03 
       8.322579570814e-04       3.375152334391e+03 
       8.986514707061e-04       3.627127828226e+03 
       9.703415376577e-04       3.896905450009e+03 
       1.047750691338e-03       4.185552170954e+03 
       1.131335172818e-03       4.494162426780e+03 
       1.221587619877e-03       4.823850702656e+03 
       1.319039970550e-03       5.175742738675e+03 
       1.424266598317e-03       5.551019592489e+03 
       1.537887697396e-03       5.950788335852e+03 
       1.660572938097e-03       6.376123046750e+03 
       1.793045413791e-03       6.828073896075e+03 
       1.936085902737e-03       7.307625375326e+03 
       2.090537469909e-03       7.815671862292e+03 
       2.257310435923e-03       8.352990369300e+03 
       2.437387742372e-03       8.920211057410e+03 
       2.631830745176e-03       9.517783061729e+03 
       2.841785470091e-03       1.014593703651e+04 
       3.068489367268e-03       1.080464505705e+04 
       3.313278604643e-03       1.149357459453e+04 
       3.577595943165e-03       1.221203620785e+04 
       3.862999240274e-03       1.295892538453e+04 
       4.171170631739e-03       1.373266002505e+04 
       4.503926445983e-03       1.453111834513e+04 
       4.863227909323e-03       1.535154981278e+04 
       5.251192705226e-03       1.619063595966e+04 
       5.670107455699e-03       1.704431255631e+04 
       6.122441198393e-03       1.790755948552e+04 
       6.610859938837e-03       1.877460427784e+04 
       7.138242363583e-03       1.963872461677e+04 
       7.707696806873e-03       2.049215711952e+04 
       8.322579570814e-03       2.132611156582e+04 
       8.986514707061e-03       2.213054846881e+04 
       9.703415376577e-03       2.289445585741e+04 
       1.047750691338e-02       2.360549016628e+04 
       1.131335172818e-02       2.425023023171e+04 
       1.221587619877e-02       2.481423927955e+04 
       1.319039970550e-02       2.528219320045e+04 
       1.424266598317e-02       2.563814264541e+04 
       1.537887697392e-02       2.586606886366e+04 
       1.660572938023e-02       2.595026536751e+04 
       1.793045412706e-02       2.587636275211e+04 
       1.936085890181e-02       2.563219456855e+04 
       2.090537352463e-02       2.520938145903e+04 
       2.257309535333e-02       2.460462004371e+04 
       2.437382002918e-02       2.382088931798e+04 
       2.631799944462e-02       2.287040127596e+04 
       2.841644545389e-02       2.177443186914e+04 
       3.067933355377e-02       2.056550074142e+04 
       3.311368470740e-02       1.928722214187e+04 
       3.571840443502e-02       1.799395228117e+04 
       3.847720348444e-02       1.674675562369e+04 
       4.135335538431e-02       1.560460236986e+04 
       4.429361667738e-02       1.461032945863e+04 
       4.724366439141e-02       1.378053787757e+04 
       5.016480835311e-02       1.310502423234e+04 
       5.303989620246e-02       1.255712976199e+04 
       5.586870669566e-02       1.210423538985e+04 
       5.866042680613e-02       1.171465304547e+04 
       6.142798932958e-02       1.136049731630e+04 
       6.418496440164e-02       1.101860816713e+04 
       6.694418833788e-02       1.067068529866e+04 
       6.971731106057e-02       1.030354138735e+04 
       7.251476155766e-02       9.909057401966e+03 
       7.534587671527e-02       9.483696694440e+03 
       7.821907666265e-02       9.029416950588e+03 
       8.114203772912e-02       8.552334009393e+03 
       8.412184535029e-02       8.061987376726e+03 
       8.716512279304e-02       7.570776631049e+03 
       9.027813695930e-02       7.092472819252e+03 
       9.346688431697e-02       6.640530547795e+03 
       9.673716028276e-02       6.226719533873e+03 
       1.000946150830e-01       5.859964041367e+03 
       1.035447986537e-01       5.545256039348e+03 
       1.070931966762e-01       5.283141669491e+03 
       1.107452594425e-01       5.069393356290e+03 
       1.145064249153e-01       4.895229422647e+03 
       1.183821370918e-01       4.747831328259e+03 
       1.223778605862e-01       4.611691527012e+03 
       1.264990921987e-01       4.470580139610e+03 
       1.307513701367e-01       4.310227559054e+03 
       1.351402814784e-01       4.121327965368e+03 
       1.396714684203e-01       3.902012285512e+03 
       1.443506338194e-01       3.658600113810e+03 
       1.491835465229e-01       3.404421079677e+03 
       1.541760469708e-01       3.156608732374e+03 
       1.593340535561e-01       2.931877060752e+03 
       1.646635702297e-01       2.742298765903e+03 
       1.701706958456e-01       2.592178979683e+03 
       1.758616357459e-01       2.477152832926e+03 
       1.817427160982e-01       2.385108524222e+03 
       1.878204015065e-01       2.300246063685e+03 
       1.941013164283e-01       2.205639206207e+03 
       2.005922709503e-01       2.090701844569e+03 
       2.073002914972e-01       1.956345314734e+03 
       2.142326570816e-01       1.814062815112e+03 
       2.213969417533e-01       1.679160562885e+03 
       2.288010639706e-01       1.563706702431e+03 
       2.364533437147e-01       1.472542688404e+03 
       2.443625682930e-01       1.401368902224e+03 
       2.525380679504e-01       1.338252382746e+03 
       2.609898026346e-01       1.270727603632e+03 
       2.697284615565e-01       1.193194031527e+03 
       2.787655775689e-01       1.109145169657e+03 
       2.881136588829e-01       1.028568969509e+03 
       2.977863412677e-01       9.602663353902e+02 
       3.077985646929e-01       9.047980968999e+02 
       3.181667794071e-01       8.559091601736e+02 
       3.289091877812e-01       8.059359319750e+02 
       3.400460299658e-01       7.521271416408e+02 
       3.515999236474e-01       6.986445409146e+02 
       3.635962711085e-01       6.507714406930e+02 
       3.760637506334e-01       6.098154268406e+02 
       3.890349143879e-01       5.718069359085e+02 
       4.025469216825e-01       5.334413288328e+02 
       4.166424456376e-01       4.952711222117e+02 
       4.313708035863e-01       4.600900336065e+02 
       4.467893782977e-01       4.283772294321e+02 
       4.629654199664e-01       3.983503380171e+02 
       4.799783501994e-01       3.687987132635e+02 
       4.979227319373e-01       3.407716530445e+02 
       5.169121270864e-01       3.149887820805e+02 
       5.370841404489e-01       2.903117112851e+02 
       5.586070464571e-01       2.665528256164e+02 
       5.816885094930e-01       2.442233251630e+02 
       6.065870144995e-01       2.229464979642e+02 
       6.336266468475e-01       2.025503008913e+02 
       6.632156059511e-01       1.831757696997e+02 
       6.958678639263e-01       1.646046509282e+02 
       7.322247985589e-01       1.468923121794e+02 
       7.730680195114e-01       1.299705836162e+02 
       8.193049553677e-01       1.139003936957e+02 
       8.718988016039e-01       9.875445018422e+01 
       9.317218031082e-01       8.468232422936e+01 
       9.993660908989e-01       7.186060945224e+01 
       1.075037110174e+00       6.043215396364e+01 
       1.158653485707e+00       5.045592144832e+01 
       1.250099157308e+00       4.188936763382e+01 
       1.349432401273e+00       3.460378579343e+01 
       1.456947457397e+00       2.844251196846e+01 
       1.573135111331e+00       2.324535680770e+01 
       1.698621895592e+00       1.886774407669e+01 
       1.834127512934e+00       1.518448960936e+01 
       1.980444934528e+00       1.208945321701e+01 
       2.138435191726e+00       9.494244217610e+00 
       2.309029199186e+00       7.325694810178e+00 
       2.493232377687e+00       5.524019182613e+00 
       2.692130395285e+00       4.040680910096e+00 
       2.906895534573e+00       2.836725265552e+00 
       3.138793597714e+00       1.880938258675e+00 
       3.389191366484e+00       1.147710416235e+00 
       3.659564657905e+00       6.149473734898e-01 
       3.951507022538e+00       2.616688023599e-01 
       4.266739136701e+00       6.549769514607e-02 
       4.607118943941e+00       4.466316428021e-04 
       4.974652605557e+00       3.530071588657e-02 
       5.371506324689e+00       1.333802725012e-01 
       5.800019113685e+00       2.543669273390e-01 
       6.262716579983e+00       3.585944631349e-01 
       6.762325811764e+00       4.137596338643e-01 
       7.301791451110e+00       4.024176708941e-01 
       7.884293049406e+00       3.278962076886e-01 
       8.513263807261e+00       2.147183019417e-01 
       9.192410809424e+00       1.010992292547e-01 
       9.925736873929e+00       2.364813011536e-02 
       1.071756414427e+01       4.719139732773e-05 
       1.157255956364e+01       1.952080154708e-02 
       1.249576238137e+01       4.979863796260e-02 
       1.349261385375e+01       5.952536861145e-02 
       1.456898931416e+01       4.106322390683e-02 
       1.573123280165e+01       1.342228482339e-02 
       1.698619445202e+01       1.976634183029e-04 
       1.834127087176e+01       4.532100228846e-03 
       1.980444873285e+01       1.025118723513e-02 
       2.138435184532e+01       6.686513788877e-03 
       2.309029198506e+01       8.073827764777e-04 
       2.493232377636e+01       5.463364274564e-04 
       2.692130395282e+01       1.885163926435e-03 
       2.906895534573e+01       7.227884639164e-04 
       3.138793597714e+01       1.255464661197e-05 
       3.389191366484e+01       3.505849802610e-04 
       3.659564657905e+01       1.042350982588e-04 
       3.951507022538e+01       2.261578243008e-05 
       4.266739136701e+01       5.286466863074e-05 
       4.607118943941e+01       8.904675977844e-08 
       4.974652605557e+01       1.204080781089e-05 
       5.371506324689e+01       1.136524999766e-09 
       5.800019113685e+01       1.949857430323e-06 
       6.262716579983e+01       1.411322414613e-07 
       6.762325811764e+01       1.397928665164e-07 
