# Matter power spectrum P(k) at redshift z=0
# for k=1.04775e-05 to 67.6233 h/Mpc,
# number of wavenumbers equal to 246
#    1:k (h/Mpc)              2:P (Mpc/h)^3        
       1.047750691338e-05       5.020964806748e+01 
       1.131335172818e-05       5.407048206553e+01 
       1.221587619877e-05       5.822819063671e+01 
       1.319039970550e-05       6.270562589686e+01 
       1.424266598317e-05       6.752731788102e+01 
       1.537887697396e-05       7.271977200257e+01 
       1.660572938097e-05       7.831147241542e+01 
       1.793045413791e-05       8.433311815128e+01 
       1.936085902737e-05       9.081778242446e+01 
       2.090537469909e-05       9.780108061339e+01 
       2.257310435923e-05       1.053213197032e+02 
       2.437387742372e-05       1.134197377001e+02 
       2.631830745176e-05       1.221408202816e+02 
       2.841785470091e-05       1.315324720916e+02 
       3.068489367268e-05       1.416462093730e+02 
       3.313278604643e-05       1.525374500691e+02 
       3.577595943165e-05       1.642660687078e+02 
       3.862999240274e-05       1.768963504868e+02 
       4.171170631739e-05       1.904975992460e+02 
       4.503926445983e-05       2.051444490305e+02 
       4.863227909323e-05       2.209171463752e+02 
       5.251192705226e-05       2.379022222314e+02 
       5.670107455699e-05       2.561927925453e+02 
       6.122441198393e-05       2.758890441791e+02 
       6.610859938837e-05       2.970989225465e+02 
       7.138242363583e-05       3.199385558200e+02 
       7.707696806873e-05       3.445329780878e+02 
       8.322579570814e-05       3.710167315928e+02 
       8.986514707061e-05       3.995346440954e+02 
       9.703415376577e-05       4.302425403884e+02 
       1.047750691338e-04       4.633080762974e+02 
       1.131335172818e-04       4.989116267507e+02 
       1.221587619877e-04       5.372471946561e+02 
       1.319039970550e-04       5.785234124631e+02 
       1.424266598317e-04       6.229645930980e+02 
       1.537887697396e-04       6.708118484951e+02 
       1.660572938097e-04       7.223242660220e+02 
       1.793045413791e-04       7.777801554147e+02 
       1.936085902737e-04       8.374783607334e+02 
       2.090537469909e-04       9.017396264495e+02 
       2.257310435923e-04       9.709080260152e+02 
       2.437387742372e-04       1.045352448644e+03 
       2.631830745176e-04       1.125468122836e+03 
       2.841785470091e-04       1.211678179511e+03 
       3.068489367268e-04       1.304435249091e+03 
       3.313278604643e-04       1.404223052541e+03 
       3.577595943165e-04       1.511558013390e+03 
       3.862999240274e-04       1.626990836500e+03 
       4.171170631739e-04       1.751108027371e+03 
       4.503926445983e-04       1.884533381345e+03 
       4.863227909323e-04       2.027929376471e+03 
       5.251192705226e-04       2.181998446367e+03 
       5.670107455699e-04       2.347484100857e+03 
       6.122441198393e-04       2.525171869336e+03 
       6.610859938837e-04       2.715889981400e+03 
       7.138242363583e-04       2.920509686094e+03 
       7.707696806873e-04       3.139945097711e+03 
       8.322579570814e-04       3.375152334394e+03 
       8.986514707061e-04       3.627127828230e+03 
       9.703415376577e-04       3.896905450015e+03 
       1.047750691338e-03       4.185552170949e+03 
       1.131335172818e-03       4.494162426790e+03 
       1.221587619877e-03       4.823850702655e+03 
       1.319039970550e-03       5.175742736691e+03 
       1.424266598317e-03       5.551019592516e+03 
       1.537887697396e-03       5.950788335875e+03 
       1.660572938097e-03       6.376123046799e+03 
       1.793045413791e-03       6.828073896118e+03 
       1.936085902737e-03       7.307625375384e+03 
       2.090537469909e-03       7.815671858994e+03 
       2.257310435923e-03       8.352990369395e+03 
       2.437387742372e-03       8.920211057521e+03 
       2.631830745176e-03       9.517783061882e+03 
       2.841785470091e-03       1.014593703670e+04 
       3.068489367268e-03       1.080464505729e+04 
       3.313278604643e-03       1.149357459434e+04 
       3.577595943165e-03       1.221203620824e+04 
       3.862999240274e-03       1.295892538503e+04 
       4.171170631739e-03       1.373266002015e+04 
       4.503926445983e-03       1.453111834591e+04 
       4.863227909323e-03       1.535154984083e+04 
       5.251192705226e-03       1.619063612585e+04 
       5.670107455699e-03       1.704431256565e+04 
       6.122441198393e-03       1.790755938950e+04 
       6.610859938837e-03       1.877460413747e+04 
       7.138242363583e-03       1.963872430726e+04 
       7.707696806873e-03       2.049215713338e+04 
       8.322579570814e-03       2.132607237168e+04 
       8.986514707061e-03       2.213055098112e+04 
       9.703415376577e-03       2.289445477332e+04 
       1.047750691338e-02       2.360548219949e+04 
       1.131335172818e-02       2.425023088346e+04 
       1.221587619877e-02       2.481423926003e+04 
       1.319039970550e-02       2.528218661751e+04 
       1.424266598317e-02       2.563814323215e+04 
       1.537887697392e-02       2.586606148190e+04 
       1.660572938023e-02       2.595026980303e+04 
       1.793045412706e-02       2.587635557399e+04 
       1.936085890181e-02       2.563219255675e+04 
       2.090537352463e-02       2.520937313199e+04 
       2.257309535333e-02       2.460447087445e+04 
       2.437382002918e-02       2.382091057766e+04 
       2.631799944462e-02       2.287042600113e+04 
       2.841644545389e-02       2.177451425511e+04 
       3.067933355377e-02       2.056553440033e+04 
       3.311368470740e-02       1.928728151014e+04 
       3.571840443502e-02       1.799401546651e+04 
       3.847720348444e-02       1.674682959292e+04 
       4.135335538431e-02       1.560458892930e+04 
       4.429361667738e-02       1.461041184803e+04 
       4.724366439141e-02       1.378054035378e+04 
       5.016480835311e-02       1.310504954294e+04 
       5.303989620246e-02       1.255713812162e+04 
       5.586870669566e-02       1.210428044525e+04 
       5.866042680613e-02       1.171466446051e+04 
       6.142798932958e-02       1.136051612859e+04 
       6.418496440164e-02       1.101861081220e+04 
       6.694418833788e-02       1.067075401510e+04 
       6.971731106057e-02       1.030363997680e+04 
       7.251476155766e-02       9.909085981658e+03 
       7.534587671527e-02       9.483795520983e+03 
       7.821907666265e-02       9.029530433623e+03 
       8.114203772912e-02       8.552349776035e+03 
       8.412184535029e-02       8.062009549804e+03 
       8.716512279304e-02       7.570809678100e+03 
       9.027813695930e-02       7.092535789265e+03 
       9.346688431697e-02       6.640554062008e+03 
       9.673716028276e-02       6.226718594346e+03 
       1.000946150830e-01       5.859963014098e+03 
       1.035447986537e-01       5.545272426771e+03 
       1.070931966762e-01       5.283152091502e+03 
       1.107452594425e-01       5.069440329731e+03 
       1.145064249153e-01       4.895239688521e+03 
       1.183821370918e-01       4.747861719723e+03 
       1.223778605862e-01       4.611735304074e+03 
       1.264990921987e-01       4.470603725296e+03 
       1.307513701367e-01       4.310264785708e+03 
       1.351402814784e-01       4.121385499704e+03 
       1.396714684203e-01       3.902070599466e+03 
       1.443506338194e-01       3.658645529482e+03 
       1.491835465229e-01       3.404468582876e+03 
       1.541760469708e-01       3.156674089566e+03 
       1.593340535561e-01       2.931944013777e+03 
       1.646635702297e-01       2.742364541408e+03 
       1.701706958456e-01       2.592254504866e+03 
       1.758616357459e-01       2.477225162371e+03 
       1.817427160982e-01       2.385167612373e+03 
       1.878204015065e-01       2.300344434947e+03 
       1.941013164283e-01       2.205748700913e+03 
       2.005922709503e-01       2.090800544638e+03 
       2.073002914972e-01       1.956472239435e+03 
       2.142326570816e-01       1.814187309694e+03 
       2.213969417533e-01       1.679268809504e+03 
       2.288010639706e-01       1.563838495729e+03 
       2.364533437147e-01       1.472675859914e+03 
       2.443625682930e-01       1.401509950184e+03 
       2.525380679504e-01       1.338424368593e+03 
       2.609898026346e-01       1.270915661987e+03 
       2.697284615565e-01       1.193374937487e+03 
       2.787655775689e-01       1.109332460710e+03 
       2.881136588829e-01       1.028764804765e+03 
       2.977863412677e-01       9.604787004767e+02 
       3.077985646929e-01       9.050130095191e+02 
       3.181667794071e-01       8.561327583257e+02 
       3.289091877812e-01       8.061788303520e+02 
       3.400460299658e-01       7.523813764765e+02 
       3.515999236474e-01       6.989164006361e+02 
       3.635962711085e-01       6.510524637036e+02 
       3.760637506334e-01       6.101181433139e+02 
       3.890349143879e-01       5.721287338554e+02 
       4.025469216825e-01       5.337760186879e+02 
       4.166424456376e-01       4.956243603345e+02 
       4.313708035863e-01       4.604651162808e+02 
       4.467893782977e-01       4.287704355358e+02 
       4.629654199664e-01       3.987693466261e+02 
       4.799783501994e-01       3.692359584442e+02 
       4.979227319373e-01       3.412373418310e+02 
       5.169121270864e-01       3.154795268536e+02 
       5.370841404489e-01       2.908311012554e+02 
       5.586070464571e-01       2.671022427892e+02 
       5.816885094930e-01       2.448056958252e+02 
       6.065870144995e-01       2.235656321357e+02 
       6.336266468475e-01       2.032091184494e+02 
       6.632156059511e-01       1.838775606477e+02 
       6.958678639263e-01       1.653530720100e+02 
       7.322247985589e-01       1.476945952351e+02 
       7.730680195114e-01       1.308331562483e+02 
       8.193049553677e-01       1.148306375545e+02 
       8.718988016039e-01       9.976273786800e+01 
       9.317218031082e-01       8.577749303266e+01 
       9.993660908989e-01       7.305419502283e+01 
       1.075037110174e+00       6.173552455788e+01 
       1.158653485707e+00       5.187877556914e+01 
       1.250099157308e+00       4.343981589926e+01 
       1.349432401273e+00       3.628876095475e+01 
       1.456947457397e+00       3.026770837987e+01 
       1.573135111331e+00       2.521433237867e+01 
       1.698621895592e+00       2.098178060994e+01 
       1.834127512934e+00       1.744214618546e+01 
       1.980444934528e+00       1.448544361495e+01 
       2.138435191726e+00       1.201874120831e+01 
       2.309029199186e+00       9.962995875233e+00 
       2.493232377687e+00       8.251680477196e+00 
       2.692130395285e+00       6.828389699108e+00 
       2.906895534573e+00       5.646077153722e+00 
       3.138793597714e+00       4.664676894118e+00 
       3.389191366484e+00       3.850917783262e+00 
       3.659564657905e+00       3.176756083877e+00 
       3.951507022538e+00       2.618603246656e+00 
       4.266739136701e+00       2.157084512907e+00 
       4.607118943941e+00       1.775729838159e+00 
       4.974652605557e+00       1.460789144380e+00 
       5.371506324689e+00       1.200908734175e+00 
       5.800019113685e+00       9.866436567123e-01 
       6.262716579983e+00       8.101025219888e-01 
       6.762325811764e+00       6.647540565870e-01 
       7.301791451110e+00       5.451535098537e-01 
       7.884293049406e+00       4.468133261948e-01 
       8.513263807261e+00       3.659948793688e-01 
       9.192410809424e+00       2.996206061642e-01 
       9.925736873929e+00       2.451399970033e-01 
       1.071756414427e+01       2.004438792680e-01 
       1.157255956364e+01       1.637982987147e-01 
       1.249576238137e+01       1.337643104717e-01 
       1.349261385375e+01       1.091635463920e-01 
       1.456898931416e+01       8.902011871691e-02 
       1.573123280165e+01       7.253230363018e-02 
       1.698619445202e+01       5.904340271788e-02 
       1.834127087176e+01       4.800954153998e-02 
       1.980444873285e+01       3.898655505176e-02 
       2.138435184532e+01       3.160986343578e-02 
       2.309029198506e+01       2.557957398276e-02 
       2.493232377636e+01       2.064979137633e-02 
       2.692130395282e+01       1.662025943110e-02 
       2.906895534573e+01       1.332646036968e-02 
       3.138793597714e+01       1.063360382864e-02 
       3.389191366484e+01       8.432255886080e-03 
       3.659564657905e+01       6.633562806506e-03 
       3.951507022538e+01       5.164964149717e-03 
       4.266739136701e+01       3.967807232308e-03 
       4.607118943941e+01       2.995022147514e-03 
       4.974652605557e+01       2.208839514227e-03 
       5.371506324689e+01       1.579147991743e-03 
       5.800019113685e+01       1.081960408993e-03 
       6.262716579983e+01       6.982237794823e-04 
       6.762325811764e+01       4.124601291234e-04 
