# Matter power spectrum P(k) at redshift z=0
# for k=1.04775e-05 to 67.6233 h/Mpc,
# number of wavenumbers equal to 246
#    1:k (h/Mpc)              2:P (Mpc/h)^3        
       1.047750691338e-05       5.020964806753e+01 
       1.131335172818e-05       5.407048206554e+01 
       1.221587619877e-05       5.822819063917e+01 
       1.319039970550e-05       6.270562589684e+01 
       1.424266598317e-05       6.752731788102e+01 
       1.537887697396e-05       7.271977200258e+01 
       1.660572938097e-05       7.831147241542e+01 
       1.793045413791e-05       8.433311815128e+01 
       1.936085902737e-05       9.081778242446e+01 
       2.090537469909e-05       9.780108061342e+01 
       2.257310435923e-05       1.053213197032e+02 
       2.437387742372e-05       1.134197377001e+02 
       2.631830745176e-05       1.221408202816e+02 
       2.841785470091e-05       1.315324720916e+02 
       3.068489367268e-05       1.416462093729e+02 
       3.313278604643e-05       1.525374500691e+02 
       3.577595943165e-05       1.642660687078e+02 
       3.862999240274e-05       1.768963504868e+02 
       4.171170631739e-05       1.904975992460e+02 
       4.503926445983e-05       2.051444490305e+02 
       4.863227909323e-05       2.209171463752e+02 
       5.251192705226e-05       2.379022222314e+02 
       5.670107455699e-05       2.561927925425e+02 
       6.122441198393e-05       2.758890441790e+02 
       6.610859938837e-05       2.970989225465e+02 
       7.138242363583e-05       3.199385558200e+02 
       7.707696806873e-05       3.445329780878e+02 
       8.322579570814e-05       3.710167315928e+02 
       8.986514707061e-05       3.995346440954e+02 
       9.703415376577e-05       4.302425403884e+02 
       1.047750691338e-04       4.633080762974e+02 
       1.131335172818e-04       4.989116267507e+02 
       1.221587619877e-04       5.372471946561e+02 
       1.319039970550e-04       5.785234124635e+02 
       1.424266598317e-04       6.229645930980e+02 
       1.537887697396e-04       6.708118484951e+02 
       1.660572938097e-04       7.223242660220e+02 
       1.793045413791e-04       7.777801554266e+02 
       1.936085902737e-04       8.374783607333e+02 
       2.090537469909e-04       9.017396264495e+02 
       2.257310435923e-04       9.709080260152e+02 
       2.437387742372e-04       1.045352448644e+03 
       2.631830745176e-04       1.125468122836e+03 
       2.841785470091e-04       1.211678179511e+03 
       3.068489367268e-04       1.304435249091e+03 
       3.313278604643e-04       1.404223052541e+03 
       3.577595943165e-04       1.511558013390e+03 
       3.862999240274e-04       1.626990836494e+03 
       4.171170631739e-04       1.751108027370e+03 
       4.503926445983e-04       1.884533381345e+03 
       4.863227909323e-04       2.027929376470e+03 
       5.251192705226e-04       2.181998446367e+03 
       5.670107455699e-04       2.347484100857e+03 
       6.122441198393e-04       2.525171869337e+03 
       6.610859938837e-04       2.715889981400e+03 
       7.138242363583e-04       2.920509686085e+03 
       7.707696806873e-04       3.139945097709e+03 
       8.322579570814e-04       3.375152334395e+03 
       8.986514707061e-04       3.627127828230e+03 
       9.703415376577e-04       3.896905450015e+03 
       1.047750691338e-03       4.185552170975e+03 
       1.131335172818e-03       4.494162426789e+03 
       1.221587619877e-03       4.823850702668e+03 
       1.319039970550e-03       5.175742734787e+03 
       1.424266598317e-03       5.551019592522e+03 
       1.537887697396e-03       5.950788335872e+03 
       1.660572938097e-03       6.376123046790e+03 
       1.793045413791e-03       6.828073896117e+03 
       1.936085902737e-03       7.307625375378e+03 
       2.090537469909e-03       7.815671862376e+03 
       2.257310435923e-03       8.352990369385e+03 
       2.437387742372e-03       8.920211057548e+03 
       2.631830745176e-03       9.517783061868e+03 
       2.841785470091e-03       1.014593703669e+04 
       3.068489367268e-03       1.080464505731e+04 
       3.313278604643e-03       1.149357459456e+04 
       3.577595943165e-03       1.221203620821e+04 
       3.862999240274e-03       1.295892538498e+04 
       4.171170631739e-03       1.373266002117e+04 
       4.503926445983e-03       1.453111834584e+04 
       4.863227909323e-03       1.535154983833e+04 
       5.251192705226e-03       1.619063611107e+04 
       5.670107455699e-03       1.704431256443e+04 
       6.122441198393e-03       1.790755939802e+04 
       6.610859938837e-03       1.877460414737e+04 
       7.138242363583e-03       1.963872433546e+04 
       7.707696806873e-03       2.049215713151e+04 
       8.322579570814e-03       2.132607215246e+04 
       8.986514707061e-03       2.213055006895e+04 
       9.703415376577e-03       2.289445488455e+04 
       1.047750691338e-02       2.360548524048e+04 
       1.131335172818e-02       2.425023232431e+04 
       1.221587619877e-02       2.481423929781e+04 
       1.319039970550e-02       2.528218764843e+04 
       1.424266598317e-02       2.563814209243e+04 
       1.537887697392e-02       2.586608274516e+04 
       1.660572938023e-02       2.595026753616e+04 
       1.793045412706e-02       2.587633553195e+04 
       1.936085890181e-02       2.563220669549e+04 
       2.090537352463e-02       2.520942417582e+04 
       2.257309535333e-02       2.460445786707e+04 
       2.437382002918e-02       2.382090841717e+04 
       2.631799944462e-02       2.287044298976e+04 
       2.841644545389e-02       2.177450276100e+04 
       3.067933355377e-02       2.056552916272e+04 
       3.311368470740e-02       1.928734233164e+04 
       3.571840443502e-02       1.799409062632e+04 
       3.847720348444e-02       1.674682335142e+04 
       4.135335538431e-02       1.560454934704e+04 
       4.429361667738e-02       1.461039545570e+04 
       4.724366439141e-02       1.378052501509e+04 
       5.016480835311e-02       1.310497481045e+04 
       5.303989620246e-02       1.255716894077e+04 
       5.586870669566e-02       1.210430377775e+04 
       5.866042680613e-02       1.171470320392e+04 
       6.142798932958e-02       1.136056057874e+04 
       6.418496440164e-02       1.101864080370e+04 
       6.694418833788e-02       1.067074281488e+04 
       6.971731106057e-02       1.030360556416e+04 
       7.251476155766e-02       9.909044544908e+03 
       7.534587671527e-02       9.483796795572e+03 
       7.821907666265e-02       9.029510476244e+03 
       8.114203772912e-02       8.552360657102e+03 
       8.412184535029e-02       8.061956813618e+03 
       8.716512279304e-02       7.570788131624e+03 
       9.027813695930e-02       7.092489060085e+03 
       9.346688431697e-02       6.640546979352e+03 
       9.673716028276e-02       6.226746537446e+03 
       1.000946150830e-01       5.859987673455e+03 
       1.035447986537e-01       5.545287790923e+03 
       1.070931966762e-01       5.283178758292e+03 
       1.107452594425e-01       5.069432929041e+03 
       1.145064249153e-01       4.895266566596e+03 
       1.183821370918e-01       4.747862601895e+03 
       1.223778605862e-01       4.611743974764e+03 
       1.264990921987e-01       4.470618831474e+03 
       1.307513701367e-01       4.310266582869e+03 
       1.351402814784e-01       4.121388048082e+03 
       1.396714684203e-01       3.901982203637e+03 
       1.443506338194e-01       3.658666097372e+03 
       1.491835465229e-01       3.404478824691e+03 
       1.541760469708e-01       3.156663834841e+03 
       1.593340535561e-01       2.931935493172e+03 
       1.646635702297e-01       2.742360653634e+03 
       1.701706958456e-01       2.592243891205e+03 
       1.758616357459e-01       2.477226117115e+03 
       1.817427160982e-01       2.385167089051e+03 
       1.878204015065e-01       2.300366053351e+03 
       1.941013164283e-01       2.205765632171e+03 
       2.005922709503e-01       2.090823391433e+03 
       2.073002914972e-01       1.956465401041e+03 
       2.142326570816e-01       1.814152513342e+03 
       2.213969417533e-01       1.679266664520e+03 
       2.288010639706e-01       1.563837811538e+03 
       2.364533437147e-01       1.472675918198e+03 
       2.443625682930e-01       1.401507085912e+03 
       2.525380679504e-01       1.338423444033e+03 
       2.609898026346e-01       1.270900731612e+03 
       2.697284615565e-01       1.193358276297e+03 
       2.787655775689e-01       1.109331737544e+03 
       2.881136588829e-01       1.028760527844e+03 
       2.977863412677e-01       9.604761183861e+02 
       3.077985646929e-01       9.050162002924e+02 
       3.181667794071e-01       8.561358209792e+02 
       3.289091877812e-01       8.061811181432e+02 
       3.400460299658e-01       7.523812317403e+02 
       3.515999236474e-01       6.989131136527e+02 
       3.635962711085e-01       6.510528619835e+02 
       3.760637506334e-01       6.101187162137e+02 
       3.890349143879e-01       5.721275773146e+02 
       4.025469216825e-01       5.337754765124e+02 
       4.166424456376e-01       4.956223591126e+02 
       4.313708035863e-01       4.604665990708e+02 
       4.467893782977e-01       4.287702811998e+02 
       4.629654199664e-01       3.987691680032e+02 
       4.799783501994e-01       3.692360820131e+02 
       4.979227319373e-01       3.412359423635e+02 
       5.169121270864e-01       3.154792346647e+02 
       5.370841404489e-01       2.908305858444e+02 
       5.586070464571e-01       2.671019125506e+02 
       5.816885094930e-01       2.448056531903e+02 
       6.065870144995e-01       2.235657101926e+02 
       6.336266468475e-01       2.032087305954e+02 
       6.632156059511e-01       1.838774400678e+02 
       6.958678639263e-01       1.653532388521e+02 
       7.322247985589e-01       1.476937446894e+02 
       7.730680195114e-01       1.308324232959e+02 
       8.193049553677e-01       1.148303311759e+02 
       8.718988016039e-01       9.976211040998e+01 
       9.317218031082e-01       8.577656650272e+01 
       9.993660908989e-01       7.305354106665e+01 
       1.075037110174e+00       6.173491614066e+01 
       1.158653485707e+00       5.187783348950e+01 
       1.250099157308e+00       4.343910169738e+01 
       1.349432401273e+00       3.628808261827e+01 
       1.456947457397e+00       3.026645320056e+01 
       1.573135111331e+00       2.521289091510e+01 
       1.698621895592e+00       2.098036870616e+01 
       1.834127512934e+00       1.744045826596e+01 
       1.980444934528e+00       1.448364753310e+01 
       2.138435191726e+00       1.201673542410e+01 
       2.309029199186e+00       9.960821013065e+00 
       2.493232377687e+00       8.249248443292e+00 
       2.692130395285e+00       6.825774398326e+00 
       2.906895534573e+00       5.643207318826e+00 
       3.138793597714e+00       4.661590274729e+00 
       3.389191366484e+00       3.847522654544e+00 
       3.659564657905e+00       3.173021904013e+00 
       3.951507022538e+00       2.614635305028e+00 
       4.266739136701e+00       2.152710352512e+00 
       4.607118943941e+00       1.770891880062e+00 
       4.974652605557e+00       1.455511280637e+00 
       5.371506324689e+00       1.195190779773e+00 
       5.800019113685e+00       9.804448089526e-01 
       6.262716579983e+00       8.033722766785e-01 
       6.762325811764e+00       6.574579971955e-01 
       7.301791451110e+00       5.372634918635e-01 
       7.884293049406e+00       4.382902872155e-01 
       8.513263807261e+00       3.568172260044e-01 
       9.192410809424e+00       2.897531328369e-01 
       9.925736873929e+00       2.345639260658e-01 
       1.071756414427e+01       1.891448979318e-01 
       1.157255956364e+01       1.517667679502e-01 
       1.249576238137e+01       1.210139421993e-01 
       1.349261385375e+01       9.571726672446e-02 
       1.456898931416e+01       7.492648670597e-02 
       1.573123280165e+01       5.786683124238e-02 
       1.698619445202e+01       4.391133535190e-02 
       1.834127087176e+01       3.255745811641e-02 
       1.980444873285e+01       2.340058836519e-02 
       2.138435184532e+01       1.611999927315e-02 
       2.309029198506e+01       1.046019236094e-02 
       2.493232377636e+01       6.213704318281e-03 
       2.692130395282e+01       3.205535026889e-03 
       2.906895534573e+01       1.276218584231e-03 
       3.138793597714e+01       2.661311619196e-04 
       3.389191366484e+01       1.836528646989e-06 
       3.659564657905e+01       2.868842290711e-04 
       3.951507022538e+01       9.006543655193e-04 
       4.266739136701e+01       1.609438200827e-03 
       4.607118943941e+01       2.190870416806e-03 
       4.974652605557e+01       2.470671035475e-03 
       5.371506324689e+01       2.363420658599e-03 
       5.800019113685e+01       1.901505929293e-03 
       6.262716579983e+01       1.233362002955e-03 
       6.762325811764e+01       5.774966380624e-04 
