# Matter power spectrum P(k) at redshift z=0
# for k=1.04775e-05 to 67.6233 h/Mpc,
# number of wavenumbers equal to 246
#    1:k (h/Mpc)              2:P (Mpc/h)^3        
       1.047750691338e-05       5.020964806750e+01 
       1.131335172818e-05       5.407048206553e+01 
       1.221587619877e-05       5.822819063717e+01 
       1.319039970550e-05       6.270562589684e+01 
       1.424266598317e-05       6.752731788102e+01 
       1.537887697396e-05       7.271977200258e+01 
       1.660572938097e-05       7.831147241541e+01 
       1.793045413791e-05       8.433311815128e+01 
       1.936085902737e-05       9.081778242446e+01 
       2.090537469909e-05       9.780108061342e+01 
       2.257310435923e-05       1.053213197032e+02 
       2.437387742372e-05       1.134197377001e+02 
       2.631830745176e-05       1.221408202815e+02 
       2.841785470091e-05       1.315324720916e+02 
       3.068489367268e-05       1.416462093728e+02 
       3.313278604643e-05       1.525374500691e+02 
       3.577595943165e-05       1.642660687078e+02 
       3.862999240274e-05       1.768963504868e+02 
       4.171170631739e-05       1.904975992460e+02 
       4.503926445983e-05       2.051444490305e+02 
       4.863227909323e-05       2.209171463752e+02 
       5.251192705226e-05       2.379022222314e+02 
       5.670107455699e-05       2.561927925590e+02 
       6.122441198393e-05       2.758890441792e+02 
       6.610859938837e-05       2.970989225466e+02 
       7.138242363583e-05       3.199385558200e+02 
       7.707696806873e-05       3.445329780878e+02 
       8.322579570814e-05       3.710167315928e+02 
       8.986514707061e-05       3.995346440954e+02 
       9.703415376577e-05       4.302425403884e+02 
       1.047750691338e-04       4.633080762974e+02 
       1.131335172818e-04       4.989116267507e+02 
       1.221587619877e-04       5.372471946561e+02 
       1.319039970550e-04       5.785234124635e+02 
       1.424266598317e-04       6.229645930980e+02 
       1.537887697396e-04       6.708118484951e+02 
       1.660572938097e-04       7.223242660220e+02 
       1.793045413791e-04       7.777801552650e+02 
       1.936085902737e-04       8.374783607333e+02 
       2.090537469909e-04       9.017396264495e+02 
       2.257310435923e-04       9.709080260152e+02 
       2.437387742372e-04       1.045352448644e+03 
       2.631830745176e-04       1.125468122836e+03 
       2.841785470091e-04       1.211678179511e+03 
       3.068489367268e-04       1.304435249091e+03 
       3.313278604643e-04       1.404223052541e+03 
       3.577595943165e-04       1.511558013390e+03 
       3.862999240274e-04       1.626990836465e+03 
       4.171170631739e-04       1.751108027371e+03 
       4.503926445983e-04       1.884533381345e+03 
       4.863227909323e-04       2.027929376470e+03 
       5.251192705226e-04       2.181998446367e+03 
       5.670107455699e-04       2.347484100857e+03 
       6.122441198393e-04       2.525171869335e+03 
       6.610859938837e-04       2.715889981400e+03 
       7.138242363583e-04       2.920509686089e+03 
       7.707696806873e-04       3.139945097711e+03 
       8.322579570814e-04       3.375152334397e+03 
       8.986514707061e-04       3.627127828231e+03 
       9.703415376577e-04       3.896905450016e+03 
       1.047750691338e-03       4.185552170958e+03 
       1.131335172818e-03       4.494162426791e+03 
       1.221587619877e-03       4.823850702662e+03 
       1.319039970550e-03       5.175742734978e+03 
       1.424266598317e-03       5.551019592532e+03 
       1.537887697396e-03       5.950788335885e+03 
       1.660572938097e-03       6.376123046805e+03 
       1.793045413791e-03       6.828073896120e+03 
       1.936085902737e-03       7.307625375386e+03 
       2.090537469909e-03       7.815671860216e+03 
       2.257310435923e-03       8.352990369400e+03 
       2.437387742372e-03       8.920211057532e+03 
       2.631830745176e-03       9.517783061890e+03 
       2.841785470091e-03       1.014593703671e+04 
       3.068489367268e-03       1.080464505738e+04 
       3.313278604643e-03       1.149357459544e+04 
       3.577595943165e-03       1.221203620826e+04 
       3.862999240274e-03       1.295892538505e+04 
       4.171170631739e-03       1.373266002146e+04 
       4.503926445983e-03       1.453111834595e+04 
       4.863227909323e-03       1.535154984226e+04 
       5.251192705226e-03       1.619063613427e+04 
       5.670107455699e-03       1.704431256552e+04 
       6.122441198393e-03       1.790755938459e+04 
       6.610859938837e-03       1.877460413616e+04 
       7.138242363583e-03       1.963872429113e+04 
       7.707696806873e-03       2.049215713306e+04 
       8.322579570814e-03       2.132607050081e+04 
       8.986514707061e-03       2.213055025910e+04 
       9.703415376577e-03       2.289445470848e+04 
       1.047750691338e-02       2.360548659759e+04 
       1.131335172818e-02       2.425023371539e+04 
       1.221587619877e-02       2.481423923045e+04 
       1.319039970550e-02       2.528218682245e+04 
       1.424266598317e-02       2.563813038173e+04 
       1.537887697392e-02       2.586605891018e+04 
       1.660572938023e-02       2.595028059116e+04 
       1.793045412706e-02       2.587634691827e+04 
       1.936085890181e-02       2.563218504871e+04 
       2.090537352463e-02       2.520933844180e+04 
       2.257309535333e-02       2.460444594326e+04 
       2.437382002918e-02       2.382091177765e+04 
       2.631799944462e-02       2.287046561605e+04 
       2.841644545389e-02       2.177451767164e+04 
       3.067933355377e-02       2.056553018734e+04 
       3.311368470740e-02       1.928723604426e+04 
       3.571840443502e-02       1.799404266435e+04 
       3.847720348444e-02       1.674686693873e+04 
       4.135335538431e-02       1.560458162649e+04 
       4.429361667738e-02       1.461042147098e+04 
       4.724366439141e-02       1.378055871804e+04 
       5.016480835311e-02       1.310508807315e+04 
       5.303989620246e-02       1.255713589661e+04 
       5.586870669566e-02       1.210426885091e+04 
       5.866042680613e-02       1.171466435842e+04 
       6.142798932958e-02       1.136046773877e+04 
       6.418496440164e-02       1.101856358759e+04 
       6.694418833788e-02       1.067067380790e+04 
       6.971731106057e-02       1.030356051080e+04 
       7.251476155766e-02       9.909007676879e+03 
       7.534587671527e-02       9.483784748730e+03 
       7.821907666265e-02       9.029490579766e+03 
       8.114203772912e-02       8.552314828339e+03 
       8.412184535029e-02       8.061953151379e+03 
       8.716512279304e-02       7.570771155828e+03 
       9.027813695930e-02       7.092516673048e+03 
       9.346688431697e-02       6.640529219670e+03 
       9.673716028276e-02       6.226722747716e+03 
       1.000946150830e-01       5.859948203967e+03 
       1.035447986537e-01       5.545231214532e+03 
       1.070931966762e-01       5.283140884025e+03 
       1.107452594425e-01       5.069427805809e+03 
       1.145064249153e-01       4.895242546788e+03 
       1.183821370918e-01       4.747874540261e+03 
       1.223778605862e-01       4.611745972016e+03 
       1.264990921987e-01       4.470616571461e+03 
       1.307513701367e-01       4.310235151532e+03 
       1.351402814784e-01       4.121381608885e+03 
       1.396714684203e-01       3.902057387805e+03 
       1.443506338194e-01       3.658638790570e+03 
       1.491835465229e-01       3.404475246629e+03 
       1.541760469708e-01       3.156671911298e+03 
       1.593340535561e-01       2.931983435283e+03 
       1.646635702297e-01       2.742363583361e+03 
       1.701706958456e-01       2.592254967778e+03 
       1.758616357459e-01       2.477241324216e+03 
       1.817427160982e-01       2.385178521847e+03 
       1.878204015065e-01       2.300363011774e+03 
       1.941013164283e-01       2.205760246632e+03 
       2.005922709503e-01       2.090818666760e+03 
       2.073002914972e-01       1.956470805949e+03 
       2.142326570816e-01       1.814192918288e+03 
       2.213969417533e-01       1.679293814028e+03 
       2.288010639706e-01       1.563846651900e+03 
       2.364533437147e-01       1.472689772850e+03 
       2.443625682930e-01       1.401514405274e+03 
       2.525380679504e-01       1.338414268667e+03 
       2.609898026346e-01       1.270904285563e+03 
       2.697284615565e-01       1.193382398555e+03 
       2.787655775689e-01       1.109336680874e+03 
       2.881136588829e-01       1.028771681706e+03 
       2.977863412677e-01       9.604846303984e+02 
       3.077985646929e-01       9.050218880919e+02 
       3.181667794071e-01       8.561476002863e+02 
       3.289091877812e-01       8.061887284441e+02 
       3.400460299658e-01       7.523952365012e+02 
       3.515999236474e-01       6.989241900089e+02 
       3.635962711085e-01       6.510620687315e+02 
       3.760637506334e-01       6.101229470640e+02 
       3.890349143879e-01       5.721333116430e+02 
       4.025469216825e-01       5.337819529472e+02 
       4.166424456376e-01       4.956318905904e+02 
       4.313708035863e-01       4.604684984258e+02 
       4.467893782977e-01       4.287768213969e+02 
       4.629654199664e-01       3.987719653740e+02 
       4.799783501994e-01       3.692418510168e+02 
       4.979227319373e-01       3.412397737098e+02 
       5.169121270864e-01       3.154834746316e+02 
       5.370841404489e-01       2.908357982562e+02 
       5.586070464571e-01       2.671064263134e+02 
       5.816885094930e-01       2.448094630344e+02 
       6.065870144995e-01       2.235679948326e+02 
       6.336266468475e-01       2.032095835882e+02 
       6.632156059511e-01       1.838785008497e+02 
       6.958678639263e-01       1.653544332469e+02 
       7.322247985589e-01       1.476953870244e+02 
       7.730680195114e-01       1.308336164000e+02 
       8.193049553677e-01       1.148311804026e+02 
       8.718988016039e-01       9.976276687659e+01 
       9.317218031082e-01       8.577819861992e+01 
       9.993660908989e-01       7.305463987809e+01 
       1.075037110174e+00       6.173573954780e+01 
       1.158653485707e+00       5.187918698897e+01 
       1.250099157308e+00       4.344008553124e+01 
       1.349432401273e+00       3.628936208430e+01 
       1.456947457397e+00       3.026784410258e+01 
       1.573135111331e+00       2.521448362051e+01 
       1.698621895592e+00       2.098191893397e+01 
       1.834127512934e+00       1.744240304101e+01 
       1.980444934528e+00       1.448567919536e+01 
       2.138435191726e+00       1.201892225449e+01 
       2.309029199186e+00       9.963124559634e+00 
       2.493232377687e+00       8.251808237910e+00 
       2.692130395285e+00       6.828552475901e+00 
       2.906895534573e+00       5.646232639238e+00 
       3.138793597714e+00       4.664868041821e+00 
       3.389191366484e+00       3.851113141184e+00 
       3.659564657905e+00       3.176944674671e+00 
       3.951507022538e+00       2.618878451282e+00 
       4.266739136701e+00       2.157335505921e+00 
       4.607118943941e+00       1.775923253818e+00 
       4.974652605557e+00       1.460976493728e+00 
       5.371506324689e+00       1.201109561721e+00 
       5.800019113685e+00       9.868699836870e-01 
       6.262716579983e+00       8.103327869608e-01 
       6.762325811764e+00       6.649953452570e-01 
       7.301791451110e+00       5.454078975821e-01 
       7.884293049406e+00       4.470756599584e-01 
       8.513263807261e+00       3.662734885315e-01 
       9.192410809424e+00       2.999132980044e-01 
       9.925736873929e+00       2.454495171885e-01 
       1.071756414427e+01       2.007757909211e-01 
       1.157255956364e+01       1.641485540337e-01 
       1.249576238137e+01       1.341378779726e-01 
       1.349261385375e+01       1.095599057735e-01 
       1.456898931416e+01       8.944179211737e-02 
       1.573123280165e+01       7.298196559030e-02 
       1.698619445202e+01       5.952244962055e-02 
       1.834127087176e+01       4.851986940640e-02 
       1.980444873285e+01       3.953091969833e-02 
       2.138435184532e+01       3.218938019455e-02 
       2.309029198506e+01       2.619580897600e-02 
       2.493232377636e+01       2.130446184148e-02 
       2.692130395282e+01       1.731418000715e-02 
       2.906895534573e+01       1.405953053095e-02 
       3.138793597714e+01       1.140612962322e-02 
       3.389191366484e+01       9.242846296929e-03 
       3.659564657905e+01       7.479777389397e-03 
       3.951507022538e+01       6.042944310008e-03 
       4.266739136701e+01       4.872109879629e-03 
       4.607118943941e+01       3.917933154307e-03 
       4.974652605557e+01       3.140446135323e-03 
       5.371506324689e+01       2.506905328096e-03 
       5.800019113685e+01       1.990602217451e-03 
       6.262716579983e+01       1.570010418358e-03 
       6.762325811764e+01       1.227625314644e-03 
