# Matter power spectrum P(k) at redshift z=99
# for k=1.04775e-05 to 67.6233 h/Mpc,
# number of wavenumbers equal to 246
#    1:k (h/Mpc)              2:P (Mpc/h)^3        
       1.047750691046e-05       7.262736593205e-03 
       1.131335172503e-05       7.821202884948e-03 
       1.221587619537e-05       8.422614160045e-03 
       1.319039970183e-05       9.070268667436e-03 
       1.424266597921e-05       9.767725548210e-03 
       1.537887696968e-05       1.051881342302e-02 
       1.660572937635e-05       1.132765454275e-02 
       1.793045413292e-05       1.219869111156e-02 
       1.936085902198e-05       1.313670295801e-02 
       2.090537469327e-05       1.414684714872e-02 
       2.257310435294e-05       1.523466066114e-02 
       2.437387741694e-05       1.640612407302e-02 
       2.631830744443e-05       1.766766327141e-02 
       2.841785469300e-05       1.902620457064e-02 
       3.068489366414e-05       2.048921003291e-02 
       3.313278603720e-05       2.206471183348e-02 
       3.577595942169e-05       2.376135470979e-02 
       3.862999239199e-05       2.558845563196e-02 
       4.171170630578e-05       2.755604553807e-02 
       4.503926444729e-05       2.967492332582e-02 
       4.863227907969e-05       3.195672233609e-02 
       5.251192703764e-05       3.441396553027e-02 
       5.670107454120e-05       3.706014369393e-02 
       6.122441196689e-05       3.990977673146e-02 
       6.610859936996e-05       4.297850448438e-02 
       7.138242361596e-05       4.628317119026e-02 
       7.707696804727e-05       4.984190617117e-02 
       8.322579568497e-05       5.367423839885e-02 
       8.986514704559e-05       5.780119066517e-02 
       9.703415373875e-05       6.224540180573e-02 
       1.047750691046e-04       6.703124605638e-02 
       1.131335172503e-04       7.218496764136e-02 
       1.221587619537e-04       7.773481975488e-02 
       1.319039970183e-04       8.371122109335e-02 
       1.424266597921e-04       9.014691860758e-02 
       1.537887696968e-04       9.707716418869e-02 
       1.660572937635e-04       1.045399036405e-01 
       1.793045413292e-04       1.125759771721e-01 
       1.936085902198e-04       1.212293418056e-01 
       2.090537469327e-04       1.305472998394e-01 
       2.257310435294e-04       1.405807490495e-01 
       2.437387741694e-04       1.513844478738e-01 
       2.631830744443e-04       1.630173011706e-01 
       2.841785469300e-04       1.755426583350e-01 
       3.068489366414e-04       1.890286367352e-01 
       3.313278603720e-04       2.035484621434e-01 
       3.577595942169e-04       2.191808267461e-01 
       3.862999239199e-04       2.360102680495e-01 
       4.171170630578e-04       2.541275664157e-01 
       4.503926444729e-04       2.736301612810e-01 
       4.863227907969e-04       2.946225778992e-01 
       5.251192703764e-04       3.172168743001e-01 
       5.670107454121e-04       3.415330854102e-01 
       6.122441196689e-04       3.676996828056e-01 
       6.610859936996e-04       3.958540174368e-01 
       7.138242361596e-04       4.261427534476e-01 
       7.707696804727e-04       4.587222709516e-01 
       8.322579568497e-04       4.937590195743e-01 
       8.986514704559e-04       5.314298069818e-01 
       9.703415373875e-04       5.719219893587e-01 
       1.047750691046e-03       6.154335272184e-01 
       1.131335172503e-03       6.621728634761e-01 
       1.221587619537e-03       7.123585760027e-01 
       1.319039970183e-03       7.662187255812e-01 
       1.424266597921e-03       8.239975249920e-01 
       1.537887696968e-03       8.859377630551e-01 
       1.660572937635e-03       9.522858999988e-01 
       1.793045413292e-03       1.023293302058e+00 
       1.936085902198e-03       1.099209905302e+00 
       2.090537469327e-03       1.180279434910e+00 
       2.257310435294e-03       1.266733485597e+00 
       2.437387741694e-03       1.358783996416e+00 
       2.631830744443e-03       1.456614211744e+00 
       2.841785469300e-03       1.560367700060e+00 
       3.068489366414e-03       1.670135451166e+00 
       3.313278603720e-03       1.785940944021e+00 
       3.577595942169e-03       1.907723248126e+00 
       3.862999239199e-03       2.035318307919e+00 
       4.171170630578e-03       2.168439705256e+00 
       4.503926444729e-03       2.306657817145e+00 
       4.863227907969e-03       2.449381353737e+00 
       5.251192703764e-03       2.595839707373e+00 
       5.670107454120e-03       2.745070172365e+00 
       6.122441196689e-03       2.895910139937e+00 
       6.610859936996e-03       3.046995267264e+00 
       7.138242361596e-03       3.196763845256e+00 
       7.707696804727e-03       3.343465306106e+00 
       8.322579568496e-03       3.485168300277e+00 
       8.986514704559e-03       3.619759251569e+00 
       9.703415373875e-03       3.744932451617e+00 
       1.047750691046e-02       3.858155672643e+00 
       1.131335172503e-02       3.956617514228e+00 
       1.221587619537e-02       4.037173518998e+00 
       1.319039970183e-02       4.096307732982e+00 
       1.424266597920e-02       4.130149307399e+00 
       1.537887696964e-02       4.134550024183e+00 
       1.660572937560e-02       4.105268928357e+00 
       1.793045412207e-02       4.038184042831e+00 
       1.936085889642e-02       3.929545981447e+00 
       2.090537351881e-02       3.776265258614e+00 
       2.257309534705e-02       3.576333306227e+00 
       2.437382002240e-02       3.329327621238e+00 
       2.631799943729e-02       3.037096198986e+00 
       2.841644544598e-02       2.704495944721e+00 
       3.067933354524e-02       2.340031985031e+00 
       3.311368469821e-02       1.956446689873e+00 
       3.571840442514e-02       1.570909442464e+00 
       3.847720347390e-02       1.203946758494e+00 
       4.135335537314e-02       8.762296164629e-01 
       4.429361666563e-02       6.033453771060e-01 
       4.724366437916e-02       3.915624404124e-01 
       5.016480834039e-02       2.377550753441e-01 
       5.303989618930e-02       1.329125408123e-01 
       5.586870668205e-02       6.619171739140e-02 
       5.866042679206e-02       2.734964733662e-02 
       6.142798931504e-02       7.766501719233e-03 
       6.418496438662e-02       6.049860765212e-04 
       6.694418832236e-02       6.862484093362e-04 
       6.971731104453e-02       4.259982815437e-03 
       7.251476154108e-02       8.773916748948e-03 
       7.534587669814e-02       1.265412873979e-02 
       7.821907664495e-02       1.509882092294e-02 
       8.114203771084e-02       1.587994024406e-02 
       8.412184533139e-02       1.516114606441e-02 
       8.716512277352e-02       1.333429785735e-02 
       9.027813693913e-02       1.087553520319e-02 
       9.346688429613e-02       8.238097275920e-03 
       9.673716026122e-02       5.780672276186e-03 
       1.000946150608e-01       3.731594618764e-03 
       1.035447986307e-01       2.188205475699e-03 
       1.070931966524e-01       1.139897088697e-03 
       1.107452594180e-01       5.058094520549e-04 
       1.145064248899e-01       1.742397705529e-04 
       1.183821370656e-01       3.511588770737e-05 
       1.223778605591e-01       2.790503863264e-07 
       1.264990921707e-01       1.065484925193e-05 
       1.307513701078e-01       3.358686091458e-05 
       1.351402814485e-01       5.507837566493e-05 
       1.396714683894e-01       7.148121318354e-05 
       1.443506337875e-01       8.319808314942e-05 
       1.491835464900e-01       9.105106612585e-05 
       1.541760469368e-01       9.470289677703e-05 
       1.593340535209e-01       9.269514079472e-05 
       1.646635701934e-01       8.347698274583e-05 
       1.701706958081e-01       6.700290164687e-05 
       1.758616357070e-01       4.590329748008e-05 
       1.817427160581e-01       2.498129996530e-05 
       1.878204014651e-01       9.133408999823e-06 
       1.941013163855e-01       1.302606547207e-06 
       2.005922709060e-01       2.271375801643e-07 
       2.073002914514e-01       2.825665664247e-06 
       2.142326570343e-01       5.420287539826e-06 
       2.213969417044e-01       6.051556006413e-06 
       2.288010639201e-01       5.180212353557e-06 
       2.364533436625e-01       3.654188955405e-06 
       2.443625682390e-01       2.113904007949e-06 
       2.525380678946e-01       1.104154898461e-06 
       2.609898025770e-01       5.408739486867e-07 
       2.697284614969e-01       1.740819234380e-07 
       2.787655775073e-01       1.661009473654e-08 
       2.881136588192e-01       1.068331627786e-08 
       2.977863412019e-01       8.791010651003e-08 
       3.077985646248e-01       1.294524058106e-07 
       3.181667793367e-01       1.071820535298e-07 
       3.289091877084e-01       5.916043437294e-08 
       3.400460298905e-01       1.543967267000e-08 
       3.515999235695e-01       2.872665636055e-09 
       3.635962710278e-01       1.909432909154e-10 
       3.760637505499e-01       2.005777008838e-09 
       3.890349143014e-01       7.250397311513e-09 
       4.025469215929e-01       8.603893261787e-09 
       4.166424455447e-01       9.291070675148e-09 
       4.313708034899e-01       4.573218724399e-09 
       4.467893781976e-01       2.133085518332e-09 
       4.629654198623e-01       7.714672793742e-10 
       4.799783500912e-01       1.943022950539e-10 
       4.979227318246e-01       1.323520979293e-10 
       5.169121269689e-01       8.902394174767e-11 
       5.370841403262e-01       4.972233471615e-11 
       5.586070463286e-01       4.330244155476e-11 
       5.816885093582e-01       4.924738472525e-11 
       6.065870143577e-01       5.584981128222e-11 
       6.336266466978e-01       5.867785001344e-11 
       6.632156057925e-01       7.219902168047e-11 
       6.958678637575e-01       1.141591598004e-10 
       7.322247983784e-01       7.099555523625e-11 
       7.730680193171e-01       4.867840613897e-11 
       8.193049551574e-01       7.851164553154e-12 
       8.718988013754e-01       3.110151177944e-12 
       9.317218028590e-01       1.429076722653e-11 
       9.993660906273e-01       1.864114770827e-11 
       1.075037109879e+00       2.911988229228e-12 
       1.158653485387e+00       1.603712417614e-12 
       1.250099156961e+00       3.514783842021e-12 
       1.349432400897e+00       1.938296451300e-13 
       1.456947456991e+00       2.265783544383e-13 
       1.573135110893e+00       7.363318735856e-13 
       1.698621895119e+00       3.619785794480e-13 
       1.834127512423e+00       3.067351544156e-13 
       1.980444933977e+00       1.220301782871e-13 
       2.138435191130e+00       2.019918342130e-14 
       2.309029198543e+00       1.173965099971e-13 
       2.493232376993e+00       1.011889735637e-13 
       2.692130394536e+00       1.485006615484e-14 
       2.906895533764e+00       5.676998534345e-15 
       3.138793596840e+00       3.137662994563e-14 
       3.389191365541e+00       7.969222354808e-16 
       3.659564656886e+00       1.020978017850e-14 
       3.951507021438e+00       4.907734068670e-15 
       4.266739135513e+00       6.627445272721e-16 
       4.607118942658e+00       2.301278502034e-15 
       4.974652604172e+00       2.924846757085e-15 
       5.371506323193e+00       2.933869342714e-16 
       5.800019112071e+00       4.597821205247e-15 
       6.262716578240e+00       6.231749446061e-17 
       6.762325809881e+00       3.171360686955e-16 
       7.301791449077e+00       7.858622354764e-17 
       7.884293047211e+00       7.196883233949e-16 
       8.513263804891e+00       6.544056049084e-16 
       9.192410806865e+00       4.935002829929e-16 
       9.925736871166e+00       3.238517860173e-17 
       1.071756414128e+01       5.890006803911e-17 
       1.157255956041e+01       2.084141169212e-17 
       1.249576237789e+01       8.475758919194e-17 
       1.349261385000e+01       6.999828383396e-19 
       1.456898931011e+01       7.239061207709e-18 
       1.573123279727e+01       1.312342203282e-17 
       1.698619444729e+01       6.368203824745e-18 
       1.834127086665e+01       3.434400335952e-18 
       1.980444872733e+01       1.129894929294e-18 
       2.138435183937e+01       6.429007147807e-19 
       2.309029197863e+01       1.013422298379e-18 
       2.493232376942e+01       7.335638303962e-19 
       2.692130394533e+01       3.344973108340e-19 
       2.906895533764e+01       1.850111537438e-19 
       3.138793596840e+01       1.643525115205e-19 
       3.389191365541e+01       1.426998775766e-19 
       3.659564656886e+01       8.025926382103e-20 
       3.951507021438e+01       6.201952070603e-20 
       4.266739135513e+01       5.340610904909e-20 
       4.607118942658e+01       3.180529209544e-20 
       4.974652604172e+01       1.440585198259e-20 
       5.371506323193e+01       1.077181122585e-20 
       5.800019112071e+01       1.042109504536e-20 
       6.262716578240e+01       5.705608744279e-21 
       6.762325809881e+01       2.467357875735e-21 
