# Matter power spectrum P(k) at redshift z=99
# for k=1.04775e-05 to 66.1767 h/Mpc,
# number of wavenumbers equal to 130
#    1:k (h/Mpc)              2:P (Mpc/h)^3        
       1.047750691046e-05       7.261927682373e-03 
       1.319039970183e-05       9.069258203746e-03 
       1.660572937635e-05       1.132639106961e-02 
       2.090537469327e-05       1.414527123693e-02 
       2.631830744443e-05       1.766569584426e-02 
       3.313278603720e-05       2.206225516400e-02 
       4.171170630578e-05       2.755297766846e-02 
       5.251192703764e-05       3.441013523669e-02 
       6.610859936996e-05       4.297372173670e-02 
       8.322579568497e-05       5.366826854054e-02 
       1.047750691046e-04       6.702379874164e-02 
       1.319039970183e-04       8.370193443020e-02 
       1.660572937635e-04       1.045283355600e-01 
       2.090537469327e-04       1.305329134372e-01 
       2.631830744443e-04       1.629994506936e-01 
       3.313278603720e-04       2.035264005013e-01 
       4.171170630578e-04       2.541004744749e-01 
       5.251192703764e-04       3.171839529173e-01 
       6.610859936996e-04       3.958147257245e-01 
       8.322579568497e-04       4.937136007123e-01 
       1.047750691046e-03       6.153841636960e-01 
       1.319039970183e-03       7.661720593409e-01 
       1.660572937635e-03       9.522588016970e-01 
       2.090537469327e-03       1.180312991613e+00 
       2.631830744443e-03       1.456802684228e+00 
       3.313278603720e-03       1.786503852645e+00 
       4.171170630578e-03       2.169896158448e+00 
       5.251192703764e-03       2.599430621425e+00 
       6.610859936996e-03       3.055668682229e+00 
       8.322579568497e-03       3.505725542621e+00 
       1.047750691046e-02       3.905491722555e+00 
       1.319039970183e-02       4.200914971688e+00 
       1.660572937633e-02       4.325062478594e+00 
       2.090537453514e-02       4.210207718684e+00 
       2.631818545635e-02       3.825150734976e+00 
       3.311571692125e-02       3.229067067998e+00 
       4.113809243311e-02       2.627720565914e+00 
       4.792590854610e-02       2.280784342430e+00 
       5.284436902701e-02       2.110073980884e+00 
       5.689644391095e-02       2.003527982995e+00 
       6.051252627066e-02       1.923045803175e+00 
       6.388413457411e-02       1.852718164722e+00 
       6.711249296401e-02       1.784547713518e+00 
       7.025823437965e-02       1.714256147189e+00 
       7.336115587705e-02       1.639794238593e+00 
       7.644928796912e-02       1.560644201772e+00 
       7.954353299775e-02       1.477436715649e+00 
       8.266024078725e-02       1.391677210885e+00 
       8.581273398637e-02       1.305443815829e+00 
       8.901225918437e-02       1.221103798603e+00 
       9.226860540985e-02       1.141056360427e+00 
       9.559052048996e-02       1.067427996837e+00 
       9.898599946599e-02       1.001866341404e+00 
       1.024624891378e-01       9.453591767382e-01 
       1.060270359164e-01       8.981262556805e-01 
       1.096863943056e-01       8.595883773013e-01 
       1.134471073830e-01       8.283802858023e-01 
       1.173155669539e-01       8.024422858634e-01 
       1.212980586983e-01       7.792029421837e-01 
       1.254007961065e-01       7.558922732913e-01 
       1.296299459934e-01       7.299539148386e-01 
       1.339916477160e-01       6.995648724062e-01 
       1.384920277736e-01       6.640491003313e-01 
       1.431372111762e-01       6.241180598082e-01 
       1.479333307714e-01       5.817350211955e-01 
       1.528865355934e-01       5.396622326521e-01 
       1.580029992204e-01       5.007857544173e-01 
       1.632889290723e-01       4.673703188079e-01 
       1.687505775527e-01       4.405053919598e-01 
       1.743942559171e-01       4.198377390474e-01 
       1.802263517371e-01       4.036311880412e-01 
       1.862533508214e-01       3.893306301840e-01 
       1.924818644494e-01       3.741056745366e-01 
       1.989186627765e-01       3.557718299728e-01 
       2.055707152847e-01       3.339707697095e-01 
       2.124452391818e-01       3.102362271107e-01 
       2.195497567139e-01       2.870932832105e-01 
       2.268921624510e-01       2.667777312261e-01 
       2.344808017550e-01       2.504537050028e-01 
       2.423245618548e-01       2.378039521375e-01 
       2.504329772620e-01       2.270828684918e-01 
       2.588163516754e-01       2.160874265198e-01 
       2.674858990930e-01       2.035162286808e-01 
       2.764539076010e-01       1.895681884448e-01 
       2.857339303080e-01       1.757280871912e-01 
       2.953410092148e-01       1.636700688575e-01 
       3.052919395542e-01       1.538775394270e-01 
       3.156055844677e-01       1.455025353923e-01 
       3.263032530092e-01       1.372216487106e-01 
       3.374091587054e-01       1.282736308636e-01 
       3.489509817175e-01       1.191431319213e-01 
       3.609605657343e-01       1.107795434378e-01 
       3.734747921333e-01       1.036176832847e-01 
       3.865366902904e-01       9.711460473595e-02 
       4.001968667448e-01       9.058862610493e-02 
       4.145153713076e-01       8.401030528133e-02 
       4.295641718077e-01       7.786505181258e-02 
       4.454304922144e-01       7.231607508719e-02 
       4.622214006969e-01       6.706848069768e-02 
       4.800702491654e-01       6.186688454887e-02 
       4.991459272112e-01       5.690175676353e-02 
       5.196665217302e-01       5.229174500727e-02 
       5.419201087032e-01       4.780882715065e-02 
       5.662975451962e-01       4.346370593491e-02 
       5.933463737275e-01       3.930832755820e-02 
       6.238638458458e-01       3.523117134097e-02 
       6.590669257916e-01       3.124133945352e-02 
       7.009246080454e-01       2.726643889885e-02 
       7.528593308799e-01       2.325840360247e-02 
       8.213469537518e-01       1.912916452829e-02 
       9.196980813302e-01       1.479922300086e-02 
       1.075112183810e+00       1.033485003446e-02 
       1.322697471132e+00       6.365612496995e-03 
       1.662328205042e+00       3.694016609056e-03 
       2.092692408506e+00       2.114870939931e-03 
       2.634543445090e+00       1.200023874837e-03 
       3.316693691389e+00       6.752517162292e-04 
       4.175469971226e+00       3.769115524952e-04 
       5.256605252960e+00       2.087053969681e-04 
       6.617673932723e+00       1.146089887248e-04 
       8.331157880872e+00       6.237369622180e-05 
       1.048830636590e+01       3.359970821816e-05 
       1.320399541071e+01       1.787802192019e-05 
       1.662284535976e+01       9.366403995313e-06 
       2.092692243973e+01       4.808635294546e-06 
       2.634543445002e+01       2.402037396887e-06 
       3.316693691389e+01       1.155186831608e-06 
       4.175469971226e+01       5.264552781999e-07 
       5.256605252960e+01       2.218961462355e-07 
       6.617673932723e+01       8.315876352907e-08 
