# Matter power spectrum P(k) at redshift z=0
# for k=1.04775e-05 to 66.1767 h/Mpc,
# number of wavenumbers equal to 130
#    1:k (h/Mpc)              2:P (Mpc/h)^3        
       1.047750691046e-05       5.020964811308e+01 
       1.319039970183e-05       6.270562594774e+01 
       1.660572937635e-05       7.831147247912e+01 
       2.090537469327e-05       9.780108069301e+01 
       2.631830744443e-05       1.221408203809e+02 
       3.313278603720e-05       1.525374501932e+02 
       4.171170630578e-05       1.904975994009e+02 
       5.251192703764e-05       2.379022224249e+02 
       6.610859936996e-05       2.970989227881e+02 
       8.322579568497e-05       3.710167318946e+02 
       1.047750691046e-04       4.633080766742e+02 
       1.319039970183e-04       5.785234129336e+02 
       1.660572937635e-04       7.223242666092e+02 
       2.090537469327e-04       9.017396271824e+02 
       2.631830744443e-04       1.125468123750e+03 
       3.313278603720e-04       1.404223053681e+03 
       4.171170630578e-04       1.751108028791e+03 
       5.251192703764e-04       2.181998448133e+03 
       6.610859936996e-04       2.715889983592e+03 
       8.322579568497e-04       3.375152337133e+03 
       1.047750691046e-03       4.185552174305e+03 
       1.319039970183e-03       5.175742740932e+03 
       1.660572937635e-03       6.376123051776e+03 
       2.090537469327e-03       7.815671893841e+03 
       2.631830744443e-03       9.517783069094e+03 
       3.313278603720e-03       1.149357460341e+04 
       4.171170630578e-03       1.373266009554e+04 
       5.251192703764e-03       1.619063614518e+04 
       6.610859936996e-03       1.877460419062e+04 
       8.322579568497e-03       2.132607231619e+04 
       1.047750691046e-02       2.360548597299e+04 
       1.319039970183e-02       2.528218651463e+04 
       1.660572937633e-02       2.595026797630e+04 
       2.090537453514e-02       2.520935329317e+04 
       2.631818545635e-02       2.287034369121e+04 
       3.311571692125e-02       1.928625578424e+04 
       4.113809243311e-02       1.568424548811e+04 
       4.792590854610e-02       1.361061436714e+04 
       5.284436902701e-02       1.259131067662e+04 
       5.689644391095e-02       1.195555336569e+04 
       6.051252627066e-02       1.147546936641e+04 
       6.388413457411e-02       1.105588952936e+04 
       6.711249296401e-02       1.064897627812e+04 
       7.025823437965e-02       1.022933250310e+04 
       7.336115587705e-02       9.784518570391e+03 
       7.644928796912e-02       9.311676183281e+03 
       7.954353299775e-02       8.814552390112e+03 
       8.266024078725e-02       8.302155503088e+03 
       8.581273398637e-02       7.786933082476e+03 
       8.901225918437e-02       7.283163361583e+03 
       9.226860540985e-02       6.805165748688e+03 
       9.559052048996e-02       6.365631436231e+03 
       9.898599946599e-02       5.974383966217e+03 
       1.024624891378e-01       5.637342778624e+03 
       1.060270359164e-01       5.355787441400e+03 
       1.096863943056e-01       5.126272603936e+03 
       1.134471073830e-01       4.940495595174e+03 
       1.173155669539e-01       4.786180673634e+03 
       1.212980586983e-01       4.647931359314e+03 
       1.254007961065e-01       4.509141290717e+03 
       1.296299459934e-01       4.354550965160e+03 
       1.339916477160e-01       4.173224631071e+03 
       1.384920277736e-01       3.961187159467e+03 
       1.431372111762e-01       3.722681485405e+03 
       1.479333307714e-01       3.469544293791e+03 
       1.528865355934e-01       3.218361958842e+03 
       1.580029992204e-01       2.986284383775e+03 
       1.632889290723e-01       2.786967994948e+03 
       1.687505775527e-01       2.626819643884e+03 
       1.743942559171e-01       2.503765927149e+03 
       1.802263517371e-01       2.407327349098e+03 
       1.862533508214e-01       2.322251535384e+03 
       1.924818644494e-01       2.231551017773e+03 
       1.989186627765e-01       2.122184669798e+03 
       2.055707152847e-01       1.992031897812e+03 
       2.124452391818e-01       1.850322282114e+03 
       2.195497567139e-01       1.712172342607e+03 
       2.268921624510e-01       1.590982541292e+03 
       2.344808017550e-01       1.493666572040e+03 
       2.423245618548e-01       1.418304848408e+03 
       2.504329772620e-01       1.354465630795e+03 
       2.588163516754e-01       1.288930680593e+03 
       2.674858990930e-01       1.213935298635e+03 
       2.764539076010e-01       1.130689491948e+03 
       2.857339303080e-01       1.048098467278e+03 
       2.953410092148e-01       9.761813040973e+02 
       3.052919395542e-01       9.178079065420e+02 
       3.156055844677e-01       8.678975868461e+02 
       3.263032530092e-01       8.185245679146e+02 
       3.374091587054e-01       7.651475452799e+02 
       3.489509817175e-01       7.106720208961e+02 
       3.609605657343e-01       6.607856383906e+02 
       3.734747921333e-01       6.180836048646e+02 
       3.865366902904e-01       5.793105069428e+02 
       4.001968667448e-01       5.403898139596e+02 
       4.145153713076e-01       5.011506726675e+02 
       4.295641718077e-01       4.644979525603e+02 
       4.454304922144e-01       4.314065081618e+02 
       4.622214006969e-01       4.001145923380e+02 
       4.800702491654e-01       3.690882933242e+02 
       4.991459272112e-01       3.394755682418e+02 
       5.196665217302e-01       3.119854357605e+02 
       5.419201087032e-01       2.852462830463e+02 
       5.662975451962e-01       2.593301057556e+02 
       5.933463737275e-01       2.345474894852e+02 
       6.238638458458e-01       2.102298243282e+02 
       6.590669257916e-01       1.864322593712e+02 
       7.009246080454e-01       1.627246801778e+02 
       7.528593308799e-01       1.388179344796e+02 
       8.213469537518e-01       1.141874355430e+02 
       9.196980813302e-01       8.835864835866e+01 
       1.075112183810e+00       6.172553103124e+01 
       1.322697471132e+00       3.804230797605e+01 
       1.662328205042e+00       2.209751016718e+01 
       2.092692408506e+00       1.266883876325e+01 
       2.634543445090e+00       7.203029790798e+00 
       3.316693691389e+00       4.064874815147e+00 
       4.175469971226e+00       2.278400877345e+00 
       5.256605252960e+00       1.269187813305e+00 
       6.617673932723e+00       7.029986676301e-01 
       8.331157880872e+00       3.873697280214e-01 
       1.048830636590e+01       2.124268145331e-01 
       1.320399541071e+01       1.159701643231e-01 
       1.662284535976e+01       6.304698627046e-02 
       2.092692243973e+01       3.413953141196e-02 
       2.634543445002e+01       1.841495118146e-02 
       3.316693691389e+01       9.895126247664e-03 
       4.175469971226e+01       5.296064380954e-03 
       5.256605252960e+01       2.822383463535e-03 
       6.617673932723e+01       1.496731266764e-03 
