# Matter power spectrum P(k) at redshift z=0
# for k=1.04775e-05 to 67.6233 h/Mpc,
# number of wavenumbers equal to 246
#    1:k (h/Mpc)              2:P (Mpc/h)^3        
       1.047750691046e-05       5.020965940545e+01 
       1.131335172503e-05       5.407049930234e+01 
       1.221587619537e-05       5.822820861090e+01 
       1.319039970183e-05       6.270560884851e+01 
       1.424266597921e-05       6.752730398821e+01 
       1.537887696968e-05       7.271975172358e+01 
       1.660572937635e-05       7.831148440853e+01 
       1.793045413292e-05       8.433312453886e+01 
       1.936085902198e-05       9.081780888408e+01 
       2.090537469327e-05       9.780108150422e+01 
       2.257310435294e-05       1.053213092461e+02 
       2.437387741694e-05       1.134197321440e+02 
       2.631830744443e-05       1.221408333097e+02 
       2.841785469300e-05       1.315324816400e+02 
       3.068489366414e-05       1.416461546330e+02 
       3.313278603720e-05       1.525374384028e+02 
       3.577595942169e-05       1.642660441434e+02 
       3.862999239199e-05       1.768963444654e+02 
       4.171170630578e-05       1.904975928183e+02 
       4.503926444729e-05       2.051444260082e+02 
       4.863227907969e-05       2.209171344990e+02 
       5.251192703764e-05       2.379022255973e+02 
       5.670107454120e-05       2.561927790146e+02 
       6.122441196689e-05       2.758890523473e+02 
       6.610859936996e-05       2.970989229551e+02 
       7.138242361596e-05       3.199385566345e+02 
       7.707696804727e-05       3.445329725587e+02 
       8.322579568497e-05       3.710167335336e+02 
       8.986514704559e-05       3.995346446095e+02 
       9.703415373875e-05       4.302425397503e+02 
       1.047750691046e-04       4.633080763309e+02 
       1.131335172503e-04       4.989116271498e+02 
       1.221587619537e-04       5.372471941247e+02 
       1.319039970183e-04       5.785234120083e+02 
       1.424266597921e-04       6.229645927510e+02 
       1.537887696968e-04       6.708118476289e+02 
       1.660572937635e-04       7.223242651244e+02 
       1.793045413292e-04       7.777801555591e+02 
       1.936085902198e-04       8.374783603114e+02 
       2.090537469327e-04       9.017396253854e+02 
       2.257310435294e-04       9.709080231229e+02 
       2.437387741694e-04       1.045352444959e+03 
       2.631830744443e-04       1.125468115967e+03 
       2.841785469300e-04       1.211678168664e+03 
       3.068489366414e-04       1.304435232376e+03 
       3.313278603720e-04       1.404223028141e+03 
       3.577595942169e-04       1.511557980776e+03 
       3.862999239199e-04       1.626990788123e+03 
       4.171170630578e-04       1.751107953080e+03 
       4.503926444729e-04       1.884533274001e+03 
       4.863227907969e-04       2.027929220511e+03 
       5.251192703764e-04       2.181998221797e+03 
       5.670107454121e-04       2.347483774822e+03 
       6.122441196689e-04       2.525171397520e+03 
       6.610859936996e-04       2.715889304708e+03 
       7.138242361596e-04       2.920508711081e+03 
       7.707696804727e-04       3.139943686242e+03 
       8.322579568497e-04       3.375150312763e+03 
       8.986514704559e-04       3.627124931974e+03 
       9.703415373875e-04       3.896901285080e+03 
       1.047750691046e-03       4.185546208541e+03 
       1.131335172503e-03       4.494153907766e+03 
       1.221587619537e-03       4.823838553662e+03 
       1.319039970183e-03       5.175725401498e+03 
       1.424266597921e-03       5.550994487896e+03 
       1.537887696968e-03       5.950751860831e+03 
       1.660572937635e-03       6.376070490234e+03 
       1.793045413292e-03       6.827998517135e+03 
       1.936085902198e-03       7.307517757460e+03 
       2.090537469327e-03       7.815518978539e+03 
       2.257310435294e-03       8.352773956945e+03 
       2.437387741694e-03       8.919905802491e+03 
       2.631830744443e-03       9.517353909216e+03 
       2.841785469300e-03       1.014533575657e+04 
       3.068489366414e-03       1.080380507259e+04 
       3.313278603720e-03       1.149240486813e+04 
       3.577595942169e-03       1.221041253422e+04 
       3.862999239199e-03       1.295667802514e+04 
       4.171170630578e-03       1.372956009686e+04 
       4.503926444729e-03       1.452685508938e+04 
       4.863227907969e-03       1.534570636302e+04 
       5.251192703764e-03       1.618265328916e+04 
       5.670107454120e-03       1.703344537259e+04 
       6.122441196689e-03       1.789281380781e+04 
       6.610859936996e-03       1.875467212346e+04 
       7.138242361596e-03       1.961187863946e+04 
       7.707696804727e-03       2.045613632445e+04 
       8.322579568496e-03       2.127794317816e+04 
       8.986514704559e-03       2.206647385766e+04 
       9.703415373875e-03       2.280948834989e+04 
       1.047750691046e-02       2.349333634169e+04 
       1.131335172503e-02       2.410286165098e+04 
       1.221587619537e-02       2.462146227076e+04 
       1.319039970183e-02       2.503124699047e+04 
       1.424266597920e-02       2.531305720713e+04 
       1.537887696964e-02       2.544724469049e+04 
       1.660572937560e-02       2.541374948950e+04 
       1.793045412207e-02       2.519332626404e+04 
       1.936085889642e-02       2.476828517633e+04 
       2.090537351881e-02       2.412456549517e+04 
       2.257309534705e-02       2.325300440851e+04 
       2.437382002240e-02       2.215166449740e+04 
       2.631799943729e-02       2.082805365969e+04 
       2.841644544598e-02       1.930163925718e+04 
       3.067933354524e-02       1.760562882623e+04 
       3.311368469821e-02       1.578938788196e+04 
       3.571840442514e-02       1.391875772650e+04 
       3.847720347390e-02       1.207345681682e+04 
       4.135335537314e-02       1.033670324789e+04 
       4.429361666563e-02       8.777036561496e+03 
       4.724366437916e-02       7.431318611967e+03 
       5.016480834039e-02       6.301561740867e+03 
       5.303989618930e-02       5.365829276125e+03 
       5.586870668205e-02       4.592418309297e+03 
       5.866042679206e-02       3.949384598927e+03 
       6.142798931504e-02       3.408902334455e+03 
       6.418496438662e-02       2.948179761112e+03 
       6.694418832236e-02       2.549269216578e+03 
       6.971731104453e-02       2.198402218898e+03 
       7.251476154108e-02       1.885409524980e+03 
       7.534587669814e-02       1.603056741131e+03 
       7.821907664495e-02       1.346702225565e+03 
       8.114203771084e-02       1.113748864238e+03 
       8.412184533139e-02       9.032846697051e+02 
       8.716512277352e-02       7.154661876382e+02 
       9.027813693913e-02       5.510572997837e+02 
       9.346688429613e-02       4.108218284746e+02 
       9.673716026122e-02       2.950389100023e+02 
       1.000946150608e-01       2.030640875586e+02 
       1.035447986307e-01       1.332289128533e+02 
       1.070931966524e-01       8.283906150973e+01 
       1.107452594180e-01       4.848728842339e+01 
       1.145064248899e-01       2.648028862030e+01 
       1.183821370656e-01       1.329181570608e+01 
       1.223778605591e-01       5.937559884703e+00 
       1.264990921707e-01       2.162707486352e+00 
       1.307513701078e-01       4.679123835739e-01 
       1.351402814485e-01       6.481450352718e-05 
       1.396714683894e-01       3.844701133043e-01 
       1.443506337875e-01       1.548852997693e+00 
       1.491835464900e-01       3.542129089399e+00 
       1.541760469368e-01       6.338819554202e+00 
       1.593340535209e-01       9.663406466194e+00 
       1.646635701934e-01       1.292328778449e+01 
       1.701706958081e-01       1.534304077429e+01 
       1.758616357070e-01       1.628438947880e+01 
       1.817427160581e-01       1.556936725583e+01 
       1.878204014651e-01       1.353927271982e+01 
       1.941013163855e-01       1.094135583120e+01 
       2.005922709060e-01       8.538879275049e+00 
       2.073002914514e-01       6.716610344365e+00 
       2.142326570343e-01       5.472217490314e+00 
       2.213969417044e-01       4.616962738023e+00 
       2.288010639201e-01       3.912455477618e+00 
       2.364533436625e-01       3.137397724313e+00 
       2.443625682390e-01       2.224954027599e+00 
       2.525380678946e-01       1.329365320278e+00 
       2.609898025770e-01       6.486905756844e-01 
       2.697284614969e-01       2.547946275511e-01 
       2.787655775073e-01       8.559126825704e-02 
       2.881136588192e-01       2.651725611918e-02 
       2.977863412019e-01       4.673980377345e-03 
       3.077985646248e-01       8.183234736235e-04 
       3.181667793367e-01       1.970996242735e-02 
       3.289091877084e-01       5.907667527632e-02 
       3.400460298905e-01       9.024619726473e-02 
       3.515999235695e-01       9.443921114484e-02 
       3.635962710278e-01       7.995391772279e-02 
       3.760637505499e-01       6.798372982721e-02 
       3.890349143014e-01       6.002706281744e-02 
       4.025469215929e-01       4.984724222168e-02 
       4.166424455447e-01       3.325226738100e-02 
       4.313708034899e-01       1.802257830464e-02 
       4.467893781976e-01       8.535656743016e-03 
       4.629654198623e-01       3.757868902265e-03 
       4.799783500912e-01       1.056883858784e-03 
       4.979227318246e-01       1.289913276412e-05 
       5.169121269689e-01       2.501453555253e-04 
       5.370841403262e-01       6.727188765120e-04 
       5.586070463286e-01       1.061086442831e-03 
       5.816885093582e-01       1.159024585962e-03 
       6.065870143577e-01       9.139678168825e-04 
       6.336266466978e-01       6.052049654136e-04 
       6.632156057925e-01       3.011030775207e-04 
       6.958678637575e-01       1.051408315401e-04 
       7.322247983784e-01       1.687587310318e-05 
       7.730680193171e-01       1.983502083056e-08 
       8.193049551574e-01       2.910753626577e-06 
       8.718988013754e-01       2.214612965817e-06 
       9.317218028590e-01       8.076980355466e-08 
       9.993660906273e-01       5.138051931047e-07 
       1.075037109879e+00       1.239325850164e-06 
       1.158653485387e+00       1.178896017426e-06 
       1.250099156961e+00       4.931468620537e-07 
       1.349432400897e+00       2.000269302723e-07 
       1.456947456991e+00       1.244241106132e-07 
       1.573135110893e+00       9.135708086678e-08 
       1.698621895119e+00       7.600966152424e-08 
       1.834127512423e+00       4.423085701759e-08 
       1.980444933977e+00       3.241735628477e-08 
       2.138435191130e+00       2.054346870517e-08 
       2.309029198543e+00       1.496677074838e-08 
       2.493232376993e+00       1.006401595961e-08 
       2.692130394536e+00       7.357890853179e-09 
       2.906895533764e+00       4.732399636052e-09 
       3.138793596840e+00       3.215950004927e-09 
       3.389191365541e+00       2.399189139146e-09 
       3.659564656886e+00       1.489506796593e-09 
       3.951507021438e+00       1.053102136605e-09 
       4.266739135513e+00       6.653541613905e-10 
       4.607118942658e+00       5.786148611382e-10 
       4.974652604172e+00       4.518620245332e-10 
       5.371506323193e+00       2.589322749110e-10 
       5.800019112071e+00       1.500557652250e-10 
       6.262716578240e+00       1.197949002519e-10 
       6.762325809881e+00       1.252156207653e-10 
       7.301791449077e+00       6.808745546645e-11 
       7.884293047211e+00       3.734100199827e-11 
       8.513263804891e+00       4.188821523605e-11 
       9.192410806865e+00       2.182100227535e-11 
       9.925736871166e+00       1.330367318304e-11 
       1.071756414128e+01       1.477928184751e-11 
       1.157255956041e+01       5.153527895850e-12 
       1.249576237789e+01       9.178494729609e-12 
       1.349261385000e+01       2.554236106472e-12 
       1.456898931011e+01       3.385679122722e-12 
       1.573123279727e+01       2.748744170950e-12 
       1.698619444729e+01       3.989442141145e-13 
       1.834127086665e+01       8.099722710261e-13 
       1.980444872733e+01       1.354354771086e-12 
       2.138435183937e+01       9.595355716034e-13 
       2.309029197863e+01       5.870524203421e-13 
       2.493232376942e+01       4.285477609028e-13 
       2.692130394533e+01       3.764336573982e-13 
       2.906895533764e+01       2.176534150299e-13 
       3.138793596840e+01       1.937903074636e-14 
       3.389191365541e+01       5.647713147719e-14 
       3.659564656886e+01       3.676064528369e-14 
       3.951507021438e+01       4.235945203107e-14 
       4.266739135513e+01       4.410938200006e-15 
       4.607118942658e+01       3.351693331584e-15 
       4.974652604172e+01       2.174409409144e-15 
       5.371506323193e+01       2.948606268143e-15 
       5.800019112071e+01       6.818715163522e-15 
       6.262716578240e+01       1.343414749772e-15 
       6.762325809881e+01       1.428597867082e-15 
