# Matter power spectrum P(k) at redshift z=99
# for k=1.04775e-05 to 66.1767 h/Mpc,
# number of wavenumbers equal to 130
#    1:k (h/Mpc)              2:P (Mpc/h)^3        
       1.047750691046e-05       7.261927896546e-03 
       1.319039970183e-05       9.069258472210e-03 
       1.660572937635e-05       1.132639226931e-02 
       2.090537469327e-05       1.414527165339e-02 
       2.631830744443e-05       1.766569621397e-02 
       3.313278603720e-05       2.206225581260e-02 
       4.171170630578e-05       2.755297847544e-02 
       5.251192703764e-05       3.441013625257e-02 
       6.610859936996e-05       4.297372300169e-02 
       8.322579568497e-05       5.366827011663e-02 
       1.047750691046e-04       6.702380071283e-02 
       1.319039970183e-04       8.370193699063e-02 
       1.660572937635e-04       1.045283386213e-01 
       2.090537469327e-04       1.305329172407e-01 
       2.631830744443e-04       1.629994553839e-01 
       3.313278603720e-04       2.035264063341e-01 
       4.171170630578e-04       2.541004816367e-01 
       5.251192703764e-04       3.171839616188e-01 
       6.610859936996e-04       3.958147360726e-01 
       8.322579568497e-04       4.937136126382e-01 
       1.047750691046e-03       6.153841765758e-01 
       1.319039970183e-03       7.661720712774e-01 
       1.660572937635e-03       9.522588070736e-01 
       2.090537469327e-03       1.180312976112e+00 
       2.631830744443e-03       1.456802606596e+00 
       3.313278603720e-03       1.786503614744e+00 
       4.171170630578e-03       2.169895583172e+00 
       5.251192703764e-03       2.599428958647e+00 
       6.610859936996e-03       3.055664365413e+00 
       8.322579568497e-03       3.505714291299e+00 
       1.047750691046e-02       3.905465287375e+00 
       1.319039970183e-02       4.200854729401e+00 
       1.660572937633e-02       4.324927447754e+00 
       2.090537453514e-02       4.209911401341e+00 
       2.631818545635e-02       3.824552199534e+00 
       3.311571692125e-02       3.227945631525e+00 
       4.113809243311e-02       2.625853135294e+00 
       4.792590854610e-02       2.278208014732e+00 
       5.284436902701e-02       2.106965827471e+00 
       5.689644391095e-02       1.999980288250e+00 
       6.051252627066e-02       1.919106431732e+00 
       6.388413457411e-02       1.848433412181e+00 
       6.711249296401e-02       1.779948347116e+00 
       7.025823437965e-02       1.709360741254e+00 
       7.336115587705e-02       1.634630875334e+00 
       7.644928796912e-02       1.555223963803e+00 
       7.954353299775e-02       1.471787033806e+00 
       8.266024078725e-02       1.385806880247e+00 
       8.581273398637e-02       1.299357681036e+00 
       8.901225918437e-02       1.214813012085e+00 
       9.226860540985e-02       1.134554293670e+00 
       9.559052048996e-02       1.060708612278e+00 
       9.898599946599e-02       9.949158637716e-01 
       1.024624891378e-01       9.381604061109e-01 
       1.060270359164e-01       8.906509960572e-01 
       1.096863943056e-01       8.518172031263e-01 
       1.134471073830e-01       8.202943593553e-01 
       1.173155669539e-01       7.940269524247e-01 
       1.212980586983e-01       7.704577867860e-01 
       1.254007961065e-01       7.468277545048e-01 
       1.296299459934e-01       7.206059391313e-01 
       1.339916477160e-01       6.899665817129e-01 
       1.384920277736e-01       6.542521886969e-01 
       1.431372111762e-01       6.141629281762e-01 
       1.479333307714e-01       5.716542577844e-01 
       1.528865355934e-01       5.294724906941e-01 
       1.580029992204e-01       4.904684031721e-01 
       1.632889290723e-01       4.568916395593e-01 
       1.687505775527e-01       4.298140776701e-01 
       1.743942559171e-01       4.088860357188e-01 
       1.802263517371e-01       3.923732185402e-01 
       1.862533508214e-01       3.777670455357e-01 
       1.924818644494e-01       3.622753030366e-01 
       1.989186627765e-01       3.437472460488e-01 
       2.055707152847e-01       3.218322878115e-01 
       2.124452391818e-01       2.980460070556e-01 
       2.195497567139e-01       2.748650681919e-01 
       2.268921624510e-01       2.544809879418e-01 
       2.344808017550e-01       2.380227781892e-01 
       2.423245618548e-01       2.251790993832e-01 
       2.504329772620e-01       2.142430974836e-01 
       2.588163516754e-01       2.030750133948e-01 
       2.674858990930e-01       1.904082441242e-01 
       2.764539076010e-01       1.764429969986e-01 
       2.857339303080e-01       1.626135593078e-01 
       2.953410092148e-01       1.505339196548e-01 
       3.052919395542e-01       1.406620192073e-01 
       3.156055844677e-01       1.321814111705e-01 
       3.263032530092e-01       1.238270109143e-01 
       3.374091587054e-01       1.148760667005e-01 
       3.489509817175e-01       1.057888517005e-01 
       3.609605657343e-01       9.746209666173e-02 
       3.734747921333e-01       9.030035027618e-02 
       3.865366902904e-01       8.379262561439e-02 
       4.001968667448e-01       7.730497926856e-02 
       4.145153713076e-01       7.080849808500e-02 
       4.295641718077e-01       6.474981344062e-02 
       4.454304922144e-01       5.927696030911e-02 
       4.622214006969e-01       5.412019348004e-02 
       4.800702491654e-01       4.904899347346e-02 
       4.991459272112e-01       4.423299501861e-02 
       5.196665217302e-01       3.977758375176e-02 
       5.419201087032e-01       3.548150471276e-02 
       5.662975451962e-01       3.135546992266e-02 
       5.933463737275e-01       2.744584527908e-02 
       6.238638458458e-01       2.366128039118e-02 
       6.590669257916e-01       2.001482746870e-02 
       7.009246080454e-01       1.645787459696e-02 
       7.528593308799e-01       1.297128130491e-02 
       8.213469537518e-01       9.525634199985e-03 
       9.196980813302e-01       6.147504649193e-03 
       1.075112183810e+00       3.071405042054e-03 
       1.322697471132e+00       9.562185306366e-04 
       1.662328205042e+00       1.329601883728e-04 
       2.092692408506e+00       1.380415413222e-07 
       2.634543445090e+00       3.043175287635e-05 
       3.316693691389e+00       3.134014167839e-05 
       4.175469971226e+00       9.529658981585e-06 
       5.256605252960e+00       2.942199450882e-07 
       6.617673932723e+00       2.873619060233e-07 
       8.331157880872e+00       1.200924037635e-07 
       1.048830636590e+01       3.623515639035e-10 
       1.320399541071e+01       2.282113165361e-09 
       1.662284535976e+01       3.555706652788e-11 
       2.092692243973e+01       4.951849537697e-13 
       2.634543445002e+01       5.080423414521e-13 
       3.316693691389e+01       1.402210402048e-14 
       4.175469971226e+01       7.701260835057e-15 
       5.256605252960e+01       1.187724465499e-15 
       6.617673932723e+01       7.052981576239e-17 
