# Matter power spectrum P(k) at redshift z=0
# for k=1.04775e-05 to 66.1767 h/Mpc,
# number of wavenumbers equal to 130
#    1:k (h/Mpc)              2:P (Mpc/h)^3        
       1.047750691046e-05       5.020963909000e+01 
       1.319039970183e-05       6.270562522233e+01 
       1.660572937635e-05       7.831147247960e+01 
       2.090537469327e-05       9.780106808175e+01 
       2.631830744443e-05       1.221408204045e+02 
       3.313278603720e-05       1.525374501957e+02 
       4.171170630578e-05       1.904975995326e+02 
       5.251192703764e-05       2.379022228846e+02 
       6.610859936996e-05       2.970989228032e+02 
       8.322579568497e-05       3.710167327003e+02 
       1.047750691046e-04       4.633080766608e+02 
       1.319039970183e-04       5.785234081028e+02 
       1.660572937635e-04       7.223242666092e+02 
       2.090537469327e-04       9.017396271825e+02 
       2.631830744443e-04       1.125468123507e+03 
       3.313278603720e-04       1.404223053673e+03 
       4.171170630578e-04       1.751108028658e+03 
       5.251192703764e-04       2.181998448080e+03 
       6.610859936996e-04       2.715889983552e+03 
       8.322579568497e-04       3.375152336555e+03 
       1.047750691046e-03       4.185552172632e+03 
       1.319039970183e-03       5.175742737796e+03 
       1.660572937635e-03       6.376123035731e+03 
       2.090537469327e-03       7.815671817245e+03 
       2.631830744443e-03       9.517782926153e+03 
       3.313278603720e-03       1.149357420166e+04 
       4.171170630578e-03       1.373265923080e+04 
       5.251192703764e-03       1.619063326928e+04 
       6.610859936996e-03       1.877459693855e+04 
       8.322579568497e-03       2.132605441254e+04 
       1.047750691046e-02       2.360544686710e+04 
       1.319039970183e-02       2.528208871989e+04 
       1.660572937633e-02       2.595006531948e+04 
       2.090537453514e-02       2.520888320891e+04 
       2.631818545635e-02       2.286947082970e+04 
       3.311571692125e-02       1.928469559427e+04 
       4.113809243311e-02       1.568172499995e+04 
       4.792590854610e-02       1.360716102969e+04 
       5.284436902701e-02       1.258717657913e+04 
       5.689644391095e-02       1.195092715652e+04 
       6.051252627066e-02       1.147041279643e+04 
       6.388413457411e-02       1.105046637021e+04 
       6.711249296401e-02       1.064326337354e+04 
       7.025823437965e-02       1.022329380106e+04 
       7.336115587705e-02       9.778296467301e+03 
       7.644928796912e-02       9.305249879538e+03 
       7.954353299775e-02       8.807957435826e+03 
       8.266024078725e-02       8.295448564136e+03 
       8.581273398637e-02       7.780142189350e+03 
       8.901225918437e-02       7.276266315211e+03 
       9.226860540985e-02       6.798091850073e+03 
       9.559052048996e-02       6.358467052344e+03 
       9.898599946599e-02       5.967084640713e+03 
       1.024624891378e-01       5.629869699040e+03 
       1.060270359164e-01       5.348133049472e+03 
       1.096863943056e-01       5.118400868010e+03 
       1.134471073830e-01       4.932388522589e+03 
       1.173155669539e-01       4.777831150631e+03 
       1.212980586983e-01       4.639356159224e+03 
       1.254007961065e-01       4.500358335288e+03 
       1.296299459934e-01       4.345560547332e+03 
       1.339916477160e-01       4.164118515359e+03 
       1.384920277736e-01       3.952007728401e+03 
       1.431372111762e-01       3.713481528718e+03 
       1.479333307714e-01       3.460398020398e+03 
       1.528865355934e-01       3.209198033892e+03 
       1.580029992204e-01       2.977158745898e+03 
       1.632889290723e-01       2.777816305420e+03 
       1.687505775527e-01       2.617612038461e+03 
       1.743942559171e-01       2.494423430027e+03 
       1.802263517371e-01       2.397836609758e+03 
       1.862533508214e-01       2.312604245727e+03 
       1.924818644494e-01       2.221781624470e+03 
       1.989186627765e-01       2.112379503836e+03 
       2.055707152847e-01       1.982249712911e+03 
       2.124452391818e-01       1.840617700179e+03 
       2.195497567139e-01       1.702549357590e+03 
       2.268921624510e-01       1.581421660804e+03 
       2.344808017550e-01       1.484116446923e+03 
       2.423245618548e-01       1.408704160532e+03 
       2.504329772620e-01       1.344797779941e+03 
       2.588163516754e-01       1.279236571604e+03 
       2.674858990930e-01       1.204269109150e+03 
       2.764539076010e-01       1.121114108087e+03 
       2.857339303080e-01       1.038631528180e+03 
       2.953410092148e-01       9.667894630264e+02 
       3.052919395542e-01       9.084529013833e+02 
       3.156055844677e-01       8.585519141732e+02 
       3.263032530092e-01       8.092148160216e+02 
       3.374091587054e-01       7.559142649159e+02 
       3.489509817175e-01       7.015511173364e+02 
       3.609605657343e-01       6.517654958575e+02 
       3.734747921333e-01       6.091403261430e+02 
       3.865366902904e-01       5.704321691981e+02 
       4.001968667448e-01       5.316025357478e+02 
       4.145153713076e-01       4.924814860493e+02 
       4.295641718077e-01       4.559444285705e+02 
       4.454304922144e-01       4.229585446118e+02 
       4.622214006969e-01       3.917727477259e+02 
       4.800702491654e-01       3.608794499751e+02 
       4.991459272112e-01       3.314019162831e+02 
       5.196665217302e-01       3.040437260917e+02 
       5.419201087032e-01       2.774542148406e+02 
       5.662975451962e-01       2.516987450415e+02 
       5.933463737275e-01       2.270854861293e+02 
       6.238638458458e-01       2.029542896146e+02 
       6.590669257916e-01       1.793643862063e+02 
       7.009246080454e-01       1.558916918632e+02 
       7.528593308799e-01       1.322597381682e+02 
       8.213469537518e-01       1.079662043783e+02 
       9.196980813302e-01       8.257400513220e+01 
       1.075112183810e+00       5.653462739340e+01 
       1.322697471132e+00       3.361058240614e+01 
       1.662328205042e+00       1.844794592437e+01 
       2.092692408506e+00       9.736065573754e+00 
       2.634543445090e+00       4.908154383276e+00 
       3.316693691389e+00       2.324848427531e+00 
       4.175469971226e+00       1.008332367177e+00 
       5.256605252960e+00       3.839365305392e-01 
       6.617673932723e+00       1.189523976222e-01 
       8.331157880872e+00       2.536880714030e-02 
       1.048830636590e+01       2.058849169951e-03 
       1.320399541071e+01       1.669893772154e-04 
       1.662284535976e+01       1.009259526262e-03 
       2.092692243973e+01       7.500930979740e-04 
       2.634543445002e+01       2.091842393639e-04 
       3.316693691389e+01       1.196019465074e-05 
       4.175469971226e+01       1.976935331350e-06 
       5.256605252960e+01       2.294343422768e-06 
       6.617673932723e+01       1.206321488658e-07 
