# Matter power spectrum P(k) at redshift z=99
# for k=1.04775e-05 to 66.1767 h/Mpc,
# number of wavenumbers equal to 130
#    1:k (h/Mpc)              2:P (Mpc/h)^3        
       1.047750691046e-05       7.261927703108e-03 
       1.319039970183e-05       9.069258229765e-03 
       1.660572937635e-05       1.132639110191e-02 
       2.090537469327e-05       1.414527127720e-02 
       2.631830744443e-05       1.766569589470e-02 
       3.313278603720e-05       2.206225522679e-02 
       4.171170630578e-05       2.755297774651e-02 
       5.251192703764e-05       3.441013533567e-02 
       6.610859936996e-05       4.297372185914e-02 
       8.322579568497e-05       5.366826869274e-02 
       1.047750691046e-04       6.702379893227e-02 
       1.319039970183e-04       8.370193466808e-02 
       1.660572937635e-04       1.045283358562e-01 
       2.090537469327e-04       1.305329138053e-01 
       2.631830744443e-04       1.629994511472e-01 
       3.313278603720e-04       2.035264010661e-01 
       4.171170630578e-04       2.541004751687e-01 
       5.251192703764e-04       3.171839537615e-01 
       6.610859936996e-04       3.958147267288e-01 
       8.322579568497e-04       4.937136018734e-01 
       1.047750691046e-03       6.153841649550e-01 
       1.319039970183e-03       7.661720605193e-01 
       1.660572937635e-03       9.522588023830e-01 
       2.090537469327e-03       1.180312990428e+00 
       2.631830744443e-03       1.456802677942e+00 
       3.313278603720e-03       1.786503833579e+00 
       4.171170630578e-03       2.169896158607e+00 
       5.251192703764e-03       2.599430493942e+00 
       6.610859936996e-03       3.055668353902e+00 
       8.322579568497e-03       3.505723909142e+00 
       1.047750691046e-02       3.905489517722e+00 
       1.319039970183e-02       4.200910911543e+00 
       1.660572937633e-02       4.325056403838e+00 
       2.090537453514e-02       4.210182388690e+00 
       2.631818545635e-02       3.825114874555e+00 
       3.311571692125e-02       3.228996990101e+00 
       4.113809243311e-02       2.627610429427e+00 
       4.792590854610e-02       2.280630728954e+00 
       5.284436902701e-02       2.109899105946e+00 
       5.689644391095e-02       2.003325103236e+00 
       6.051252627066e-02       1.922823469148e+00 
       6.388413457411e-02       1.852489247117e+00 
       6.711249296401e-02       1.784305328519e+00 
       7.025823437965e-02       1.714005995075e+00 
       7.336115587705e-02       1.639530839379e+00 
       7.644928796912e-02       1.560369412948e+00 
       7.954353299775e-02       1.477153096157e+00 
       8.266024078725e-02       1.391386838543e+00 
       8.581273398637e-02       1.305149861213e+00 
       8.901225918437e-02       1.220808683283e+00 
       9.226860540985e-02       1.140758868650e+00 
       9.559052048996e-02       1.067129792911e+00 
       9.898599946599e-02       1.001554021781e+00 
       1.024624891378e-01       9.450396562968e-01 
       1.060270359164e-01       8.978001748440e-01 
       1.096863943056e-01       8.592524256010e-01 
       1.134471073830e-01       8.280351592421e-01 
       1.173155669539e-01       8.020864898874e-01 
       1.212980586983e-01       7.788373221933e-01 
       1.254007961065e-01       7.555175707585e-01 
       1.296299459934e-01       7.295711323417e-01 
       1.339916477160e-01       6.991760475210e-01 
       1.384920277736e-01       6.636602285521e-01 
       1.431372111762e-01       6.237296283568e-01 
       1.479333307714e-01       5.813460351589e-01 
       1.528865355934e-01       5.392740632396e-01 
       1.580029992204e-01       5.003980298425e-01 
       1.632889290723e-01       4.669828432983e-01 
       1.687505775527e-01       4.401154999833e-01 
       1.743942559171e-01       4.194408545110e-01 
       1.802263517371e-01       4.032289060662e-01 
       1.862533508214e-01       3.889218009855e-01 
       1.924818644494e-01       3.736921254571e-01 
       1.989186627765e-01       3.553573225505e-01 
       2.055707152847e-01       3.335560465528e-01 
       2.124452391818e-01       3.098266459592e-01 
       2.195497567139e-01       2.866866314411e-01 
       2.268921624510e-01       2.663747554869e-01 
       2.344808017550e-01       2.500500228821e-01 
       2.423245618548e-01       2.373981774087e-01 
       2.504329772620e-01       2.266747678894e-01 
       2.588163516754e-01       2.156785124813e-01 
       2.674858990930e-01       2.031090416211e-01 
       2.764539076010e-01       1.891651789954e-01 
       2.857339303080e-01       1.753293603963e-01 
       2.953410092148e-01       1.632754306067e-01 
       3.052919395542e-01       1.534841875766e-01 
       3.156055844677e-01       1.451098174375e-01 
       3.263032530092e-01       1.368300394275e-01 
       3.374091587054e-01       1.278861015725e-01 
       3.489509817175e-01       1.187605851241e-01 
       3.609605657343e-01       1.104014028732e-01 
       3.734747921333e-01       1.032426528859e-01 
       3.865366902904e-01       9.674214168371e-02 
       4.001968667448e-01       9.022062033769e-02 
       4.145153713076e-01       8.364773537247e-02 
       4.295641718077e-01       7.750715128941e-02 
       4.454304922144e-01       7.196252333901e-02 
       4.622214006969e-01       6.671967752798e-02 
       4.800702491654e-01       6.152384145466e-02 
       4.991459272112e-01       5.656458307943e-02 
       5.196665217302e-01       5.196046009938e-02 
       5.419201087032e-01       4.748372478051e-02 
       5.662975451962e-01       4.314546465379e-02 
       5.933463737275e-01       3.899711479417e-02 
       6.238638458458e-01       3.492794209752e-02 
       6.590669257916e-01       3.094692941162e-02 
       7.009246080454e-01       2.698198884190e-02 
       7.528593308799e-01       2.298554771310e-02 
       8.213469537518e-01       1.887036360761e-02 
       9.196980813302e-01       1.455851147743e-02 
       1.075112183810e+00       1.011856898265e-02 
       1.322697471132e+00       6.180118684665e-03 
       1.662328205042e+00       3.539696455411e-03 
       2.092692408506e+00       1.988591053362e-03 
       2.634543445090e+00       1.098273843494e-03 
       3.316693691389e+00       5.945794129105e-04 
       4.175469971226e+00       3.140873300939e-04 
       5.256605252960e+00       1.607747166724e-04 
       6.617673932723e+00       7.892816656939e-05 
       8.331157880872e+00       3.659296224923e-05 
       1.048830636590e+01       1.565042252056e-05 
       1.320399541071e+01       5.946928377852e-06 
       1.662284535976e+01       1.879688798407e-06 
       2.092692243973e+01       4.304982253901e-07 
       2.634543445002e+01       4.662984706440e-08 
       3.316693691389e+01       2.749559327167e-10 
       4.175469971226e+01       1.060210217532e-08 
       5.256605252960e+01       1.017230049414e-08 
       6.617673932723e+01       3.720944412895e-09 
