# Matter power spectrum P(k) at redshift z=99
# for k=1.04775e-05 to 66.1767 h/Mpc,
# number of wavenumbers equal to 130
#    1:k (h/Mpc)              2:P (Mpc/h)^3        
       1.047750691046e-05       7.262991955275e-03 
       1.319039970183e-05       9.070586729543e-03 
       1.660572937635e-05       1.132805071908e-02 
       2.090537469327e-05       1.414734040476e-02 
       2.631830744443e-05       1.766828086492e-02 
       3.313278603720e-05       2.206548190073e-02 
       4.171170630578e-05       2.755700788364e-02 
       5.251192703764e-05       3.441516822240e-02 
       6.610859936996e-05       4.298000635221e-02 
       8.322579568497e-05       5.367611104725e-02 
       1.047750691046e-04       6.703358364989e-02 
       1.319039970183e-04       8.371413579873e-02 
       1.660572937635e-04       1.045435347922e-01 
       2.090537469327e-04       1.305518165464e-01 
       2.631830744443e-04       1.630229053108e-01 
       3.313278603720e-04       2.035553884083e-01 
       4.171170630578e-04       2.541360713757e-01 
       5.251192703764e-04       3.172272068532e-01 
       6.610859936996e-04       3.958663459645e-01 
       8.322579568497e-04       4.937732631485e-01 
       1.047750691046e-03       6.154489903703e-01 
       1.319039970183e-03       7.662333077566e-01 
       1.660572937635e-03       9.522943275766e-01 
       2.090537469327e-03       1.180269434498e+00 
       2.631830744443e-03       1.456557472872e+00 
       3.313278603720e-03       1.785771815550e+00 
       4.171170630578e-03       2.168003817198e+00 
       5.251192703764e-03       2.594770957094e+00 
       6.610859936996e-03       3.044431767546e+00 
       8.322579568497e-03       3.479143344860e+00 
       1.047750691046e-02       3.844434931888e+00 
       1.319039970183e-02       4.066453722487e+00 
       1.660572937633e-02       4.043967574912e+00 
       2.090537453514e-02       3.659587523700e+00 
       2.631818545635e-02       2.838279779709e+00 
       3.311571692125e-02       1.673059831115e+00 
       4.113809243311e-02       6.046680402751e-01 
       4.792590854610e-02       1.371721873837e-01 
       5.284436902701e-02       1.497239767706e-02 
       5.689644391095e-02       1.776926844470e-03 
       6.051252627066e-02       2.412302746598e-02 
       6.388413457411e-02       5.360862503738e-02 
       6.711249296401e-02       7.765680204365e-02 
       7.025823437965e-02       9.105936043913e-02 
       7.336115587705e-02       9.275307334543e-02 
       7.644928796912e-02       8.421594422120e-02 
       7.954353299775e-02       6.843860497718e-02 
       8.266024078725e-02       4.912293025333e-02 
       8.581273398637e-02       2.999857370058e-02 
       8.901225918437e-02       1.423063059813e-02 
       9.226860540985e-02       3.966098145535e-03 
       9.559052048996e-02       5.388735899544e-05 
       9.898599946599e-02       1.988749073834e-03 
       1.024624891378e-01       8.098463270155e-03 
       1.060270359164e-01       1.595954482818e-02 
       1.096863943056e-01       2.297547114870e-02 
       1.134471073830e-01       2.700555179486e-02 
       1.173155669539e-01       2.689324912402e-02 
       1.212980586983e-01       2.275670717228e-02 
       1.254007961065e-01       1.592594585826e-02 
       1.296299459934e-01       8.516438888379e-03 
       1.339916477160e-01       2.730883581859e-03 
       1.384920277736e-01       9.899421423764e-05 
       1.431372111762e-01       9.260234283507e-04 
       1.479333307714e-01       4.186353293455e-03 
       1.528865355934e-01       7.953895863665e-03 
       1.580029992204e-01       1.024082933815e-02 
       1.632889290723e-01       9.900910629438e-03 
       1.687505775527e-01       7.163218951560e-03 
       1.743942559171e-01       3.480654432092e-03 
       1.802263517371e-01       7.113938170026e-04 
       1.862533508214e-01       5.010404592739e-05 
       1.924818644494e-01       1.343186317780e-03 
       1.989186627765e-01       3.245958870605e-03 
       2.055707152847e-01       4.175122279404e-03 
       2.124452391818e-01       3.443112001570e-03 
       2.195497567139e-01       1.684516728907e-03 
       2.268921624510e-01       2.593698300619e-04 
       2.344808017550e-01       9.836965022129e-05 
       2.423245618548e-01       9.276253522399e-04 
       2.504329772620e-01       1.640306381555e-03 
       2.588163516754e-01       1.444806153898e-03 
       2.674858990930e-01       6.037889008283e-04 
       2.764539076010e-01       2.744454432788e-05 
       2.857339303080e-01       1.714396040879e-04 
       2.953410092148e-01       5.841368574677e-04 
       3.052919395542e-01       6.017872992081e-04 
       3.156055844677e-01       2.279408928819e-04 
       3.263032530092e-01       7.579242246523e-07 
       3.374091587054e-01       1.284209713300e-04 
       3.489509817175e-01       2.536369391210e-04 
       3.609605657343e-01       1.338738939070e-04 
       3.734747921333e-01       3.134013913956e-06 
       3.865366902904e-01       4.943229245596e-05 
       4.001968667448e-01       9.074589944477e-05 
       4.145153713076e-01       2.504719295522e-05 
       4.295641718077e-01       4.333885570789e-06 
       4.454304922144e-01       3.288811802121e-05 
       4.622214006969e-01       1.203507298449e-05 
       4.800702491654e-01       1.938588010299e-06 
       4.991459272112e-01       1.083317492084e-05 
       5.196665217302e-01       6.229699483540e-07 
       5.419201087032e-01       3.254347056791e-06 
       5.662975451962e-01       6.451430716293e-07 
       5.933463737275e-01       1.025693750030e-06 
       6.238638458458e-01       9.725099592758e-09 
       6.590669257916e-01       2.073577591095e-07 
       7.009246080454e-01       8.431101002615e-08 
       7.528593308799e-01       2.439107484882e-08 
       8.213469537518e-01       1.292883649406e-09 
       9.196980813302e-01       1.631889414783e-10 
       1.075112183810e+00       2.722643204375e-12 
       1.322697471132e+00       1.334240183653e-15 
       1.662328205042e+00       3.093653752137e-13 
       2.092692408506e+00       3.574434800794e-14 
       2.634543445090e+00       4.812927576165e-15 
       3.316693691389e+00       4.963825505941e-17 
       4.175469971226e+00       4.937974174012e-16 
       5.256605252960e+00       7.692489115955e-17 
       6.617673932723e+00       8.244913355521e-19 
       8.331157880872e+00       3.431918351626e-19 
       1.048830636590e+01       1.311391572652e-20 
       1.320399541071e+01       1.111492140629e-22 
       1.662284535976e+01       1.479235520864e-22 
       2.092692243973e+01       1.596779079697e-22 
       2.634543445002e+01       6.182606551503e-24 
       3.316693691389e+01       2.020246934593e-24 
       4.175469971226e+01       2.167284006403e-25 
       5.256605252960e+01       2.959338018755e-25 
       6.617673932723e+01       4.600731493147e-27 
