# Matter power spectrum P(k) at redshift z=99
# for k=1.04775e-05 to 66.1767 h/Mpc,
# number of wavenumbers equal to 130
#    1:k (h/Mpc)              2:P (Mpc/h)^3        
       1.047750691046e-05       7.261927680862e-03 
       1.319039970183e-05       9.069258201849e-03 
       1.660572937635e-05       1.132639106725e-02 
       2.090537469327e-05       1.414527123399e-02 
       2.631830744443e-05       1.766569584058e-02 
       3.313278603720e-05       2.206225515942e-02 
       4.171170630578e-05       2.755297766277e-02 
       5.251192703764e-05       3.441013522947e-02 
       6.610859936996e-05       4.297372172778e-02 
       8.322579568497e-05       5.366826852944e-02 
       1.047750691046e-04       6.702379872774e-02 
       1.319039970183e-04       8.370193441285e-02 
       1.660572937635e-04       1.045283355384e-01 
       2.090537469327e-04       1.305329134104e-01 
       2.631830744443e-04       1.629994506605e-01 
       3.313278603720e-04       2.035264004601e-01 
       4.171170630578e-04       2.541004744243e-01 
       5.251192703764e-04       3.171839528557e-01 
       6.610859936996e-04       3.958147256513e-01 
       8.322579568497e-04       4.937136006266e-01 
       1.047750691046e-03       6.153841636042e-01 
       1.319039970183e-03       7.661720592267e-01 
       1.660572937635e-03       9.522588016469e-01 
       2.090537469327e-03       1.180312991698e+00 
       2.631830744443e-03       1.456802684686e+00 
       3.313278603720e-03       1.786503854042e+00 
       4.171170630578e-03       2.169896194261e+00 
       5.251192703764e-03       2.599430630720e+00 
       6.610859936996e-03       3.055668707601e+00 
       8.322579568497e-03       3.505725598477e+00 
       1.047750691046e-02       3.905490246147e+00 
       1.319039970183e-02       4.200915389199e+00 
       1.660572937633e-02       4.325060346589e+00 
       2.090537453514e-02       4.210202718314e+00 
       2.631818545635e-02       3.825150637611e+00 
       3.311571692125e-02       3.229062717977e+00 
       4.113809243311e-02       2.627735685993e+00 
       4.792590854610e-02       2.280790488851e+00 
       5.284436902701e-02       2.110087536698e+00 
       5.689644391095e-02       2.003539807648e+00 
       6.051252627066e-02       1.923059395119e+00 
       6.388413457411e-02       1.852732232941e+00 
       6.711249296401e-02       1.784559728676e+00 
       7.025823437965e-02       1.714275255117e+00 
       7.336115587705e-02       1.639815068923e+00 
       7.644928796912e-02       1.560661493870e+00 
       7.954353299775e-02       1.477461028721e+00 
       8.266024078725e-02       1.391695617796e+00 
       8.581273398637e-02       1.305460368806e+00 
       8.901225918437e-02       1.221121987824e+00 
       9.226860540985e-02       1.141077710007e+00 
       9.559052048996e-02       1.067453005783e+00 
       9.898599946599e-02       1.001889961886e+00 
       1.024624891378e-01       9.453810661138e-01 
       1.060270359164e-01       8.981497852900e-01 
       1.096863943056e-01       8.596138788348e-01 
       1.134471073830e-01       8.284058087304e-01 
       1.173155669539e-01       8.024664463530e-01 
       1.212980586983e-01       7.792297723665e-01 
       1.254007961065e-01       7.559167800839e-01 
       1.296299459934e-01       7.299820987169e-01 
       1.339916477160e-01       6.995939954123e-01 
       1.384920277736e-01       6.640793136355e-01 
       1.431372111762e-01       6.241478559530e-01 
       1.479333307714e-01       5.817641375311e-01 
       1.528865355934e-01       5.396939098430e-01 
       1.580029992204e-01       5.008133717970e-01 
       1.632889290723e-01       4.673987956358e-01 
       1.687505775527e-01       4.405342812403e-01 
       1.743942559171e-01       4.198659240003e-01 
       1.802263517371e-01       4.036606425865e-01 
       1.862533508214e-01       3.893590980446e-01 
       1.924818644494e-01       3.741351442611e-01 
       1.989186627765e-01       3.558019263256e-01 
       2.055707152847e-01       3.339980912432e-01 
       2.124452391818e-01       3.102658763082e-01 
       2.195497567139e-01       2.871226991954e-01 
       2.268921624510e-01       2.668085093595e-01 
       2.344808017550e-01       2.504839077587e-01 
       2.423245618548e-01       2.378333696654e-01 
       2.504329772620e-01       2.271119108255e-01 
       2.588163516754e-01       2.161175527418e-01 
       2.674858990930e-01       2.035454003369e-01 
       2.764539076010e-01       1.895973024307e-01 
       2.857339303080e-01       1.757576936129e-01 
       2.953410092148e-01       1.636996184013e-01 
       3.052919395542e-01       1.539063189104e-01 
       3.156055844677e-01       1.455311749201e-01 
       3.263032530092e-01       1.372504131594e-01 
       3.374091587054e-01       1.283020529931e-01 
       3.489509817175e-01       1.191708674526e-01 
       3.609605657343e-01       1.108073555322e-01 
       3.734747921333e-01       1.036451317454e-01 
       3.865366902904e-01       9.714142037019e-02 
       4.001968667448e-01       9.061551692460e-02 
       4.145153713076e-01       8.403716191868e-02 
       4.295641718077e-01       7.789135369711e-02 
       4.454304922144e-01       7.234194133538e-02 
       4.622214006969e-01       6.709385908301e-02 
       4.800702491654e-01       6.189204273894e-02 
       4.991459272112e-01       5.692636136786e-02 
       5.196665217302e-01       5.231620059456e-02 
       5.419201087032e-01       4.783267526937e-02 
       5.662975451962e-01       4.348688886063e-02 
       5.933463737275e-01       3.933111302819e-02 
       6.238638458458e-01       3.525338800267e-02 
       6.590669257916e-01       3.126285919438e-02 
       7.009246080454e-01       2.728735149039e-02 
       7.528593308799e-01       2.327849048024e-02 
       8.213469537518e-01       1.914835031281e-02 
       9.196980813302e-01       1.481700993501e-02 
       1.075112183810e+00       1.035090348254e-02 
       1.322697471132e+00       6.379464843706e-03 
       1.662328205042e+00       3.705664416709e-03 
       2.092692408506e+00       2.124534906510e-03 
       2.634543445090e+00       1.207967725188e-03 
       3.316693691389e+00       6.817117210456e-04 
       4.175469971226e+00       3.821239982710e-04 
       5.256605252960e+00       2.128741150215e-04 
       6.617673932723e+00       1.179225205154e-04 
       8.331157880872e+00       6.498666776154e-05 
       1.048830636590e+01       3.564486512060e-05 
       1.320399541071e+01       1.946557259528e-05 
       1.662284535976e+01       1.058733373821e-05 
       2.092692243973e+01       5.736844489740e-06 
       2.634543445002e+01       3.097650005730e-06 
       3.316693691389e+01       1.667102786928e-06 
       4.175469971226e+01       8.943655288697e-07 
       5.256605252960e+01       4.783324855945e-07 
       6.617673932723e+01       2.550369394127e-07 
