# Matter power spectrum P(k) at redshift z=99
# for k=1.04775e-05 to 66.1767 h/Mpc,
# number of wavenumbers equal to 130
#    1:k (h/Mpc)              2:P (Mpc/h)^3        
       1.047750691046e-05       7.262989651319e-03 
       1.319039970183e-05       9.070582447455e-03 
       1.660572937635e-05       1.132804556152e-02 
       2.090537469327e-05       1.414733577884e-02 
       2.631830744443e-05       1.766827328437e-02 
       3.313278603720e-05       2.206547295966e-02 
       4.171170630578e-05       2.755699730983e-02 
       5.251192703764e-05       3.441515553475e-02 
       6.610859936996e-05       4.297999033369e-02 
       8.322579568497e-05       5.367609074607e-02 
       1.047750691046e-04       6.703355881969e-02 
       1.319039970183e-04       8.371410483905e-02 
       1.660572937635e-04       1.045434960781e-01 
       2.090537469327e-04       1.305517688250e-01 
       2.631830744443e-04       1.630228467150e-01 
       3.313278603720e-04       2.035553158413e-01 
       4.171170630578e-04       2.541359821377e-01 
       5.251192703764e-04       3.172270991552e-01 
       6.610859936996e-04       3.958662180083e-01 
       8.322579568497e-04       4.937731157449e-01 
       1.047750691046e-03       6.154488314342e-01 
       1.319039970183e-03       7.662331592202e-01 
       1.660572937635e-03       9.522942485589e-01 
       2.090537469327e-03       1.180269560759e+00 
       2.631830744443e-03       1.456558079768e+00 
       3.313278603720e-03       1.785773523130e+00 
       4.171170630578e-03       2.168008007404e+00 
       5.251192703764e-03       2.594780634290e+00 
       6.610859936996e-03       3.044453505969e+00 
       8.322579568497e-03       3.479191534173e+00 
       1.047750691046e-02       3.844540173115e+00 
       1.319039970183e-02       4.066671439071e+00 
       1.660572937633e-02       4.044400699219e+00 
       2.090537453514e-02       3.660391300884e+00 
       2.631818545635e-02       2.839616094984e+00 
       3.311571692125e-02       1.674895405414e+00 
       4.113809243311e-02       6.064419174321e-01 
       4.792590854610e-02       1.382659581447e-01 
       5.284436902701e-02       1.537771827669e-02 
       5.689644391095e-02       1.635020648376e-03 
       6.051252627066e-02       2.359136908013e-02 
       6.388413457411e-02       5.284503218951e-02 
       6.711249296401e-02       7.680195245000e-02 
       7.025823437965e-02       9.023516420594e-02 
       7.336115587705e-02       9.205449101874e-02 
       7.644928796912e-02       8.369762834559e-02 
       7.954353299775e-02       6.812312124738e-02 
       8.266024078725e-02       4.899843249822e-02 
       8.581273398637e-02       3.001676663961e-02 
       8.901225918437e-02       1.432467022388e-02 
       9.226860540985e-02       4.057408710005e-03 
       9.559052048996e-02       6.994096538697e-05 
       9.898599946599e-02       1.876038242640e-03 
       1.024624891378e-01       7.834253146395e-03 
       1.060270359164e-01       1.555745858955e-02 
       1.096863943056e-01       2.248420134678e-02 
       1.134471073830e-01       2.649627632778e-02 
       1.173155669539e-01       2.644341353505e-02 
       1.212980586983e-01       2.242782106258e-02 
       1.254007961065e-01       1.574483268168e-02 
       1.296299459934e-01       8.465490725207e-03 
       1.339916477160e-01       2.752027826769e-03 
       1.384920277736e-01       1.129032064809e-04 
       1.431372111762e-01       8.604516067651e-04 
       1.479333307714e-01       4.005242493850e-03 
       1.528865355934e-01       7.673697741105e-03 
       1.580029992204e-01       9.926087220462e-03 
       1.632889290723e-01       9.632547433296e-03 
       1.687505775527e-01       7.001796015086e-03 
       1.743942559171e-01       3.431165521714e-03 
       1.802263517371e-01       7.215752381718e-04 
       1.862533508214e-01       3.969664166998e-05 
       1.924818644494e-01       1.254000567461e-03 
       1.989186627765e-01       3.079923971825e-03 
       2.055707152847e-01       3.992053846941e-03 
       2.124452391818e-01       3.315485430483e-03 
       2.195497567139e-01       1.641459993922e-03 
       2.268921624510e-01       2.644865821692e-04 
       2.344808017550e-01       8.322305065433e-05 
       2.423245618548e-01       8.549342465592e-04 
       2.504329772620e-01       1.536933167418e-03 
       2.588163516754e-01       1.369913321692e-03 
       2.674858990930e-01       5.841846184313e-04 
       2.764539076010e-01       3.070967670620e-05 
       2.857339303080e-01       1.493647717719e-04 
       2.953410092148e-01       5.324963005880e-04 
       3.052919395542e-01       5.595905755009e-04 
       3.156055844677e-01       2.186861333587e-04 
       3.263032530092e-01       1.497645223816e-06 
       3.374091587054e-01       1.109222148000e-04 
       3.489509817175e-01       2.285372429177e-04 
       3.609605657343e-01       1.251178189826e-04 
       3.734747921333e-01       3.945652461620e-06 
       3.865366902904e-01       4.112612452279e-05 
       4.001968667448e-01       8.030415547460e-05 
       4.145153713076e-01       2.387924336071e-05 
       4.295641718077e-01       2.982639990707e-06 
       4.454304922144e-01       2.786140710857e-05 
       4.622214006969e-01       1.118026996802e-05 
       4.800702491654e-01       1.269024974020e-06 
       4.991459272112e-01       9.053033986340e-06 
       5.196665217302e-01       6.980840915881e-07 
       5.419201087032e-01       2.498773513560e-06 
       5.662975451962e-01       6.305274742198e-07 
       5.933463737275e-01       7.552315688831e-07 
       6.238638458458e-01       1.932186444643e-08 
       6.590669257916e-01       1.696610005564e-07 
       7.009246080454e-01       5.891195118171e-08 
       7.528593308799e-01       1.660619091876e-08 
       8.213469537518e-01       1.176119005471e-09 
       9.196980813302e-01       1.117681210141e-10 
       1.075112183810e+00       1.352555896167e-12 
       1.322697471132e+00       3.263792132634e-15 
       1.662328205042e+00       3.537975050341e-13 
       2.092692408506e+00       4.763302443091e-14 
       2.634543445090e+00       7.073627210308e-15 
       3.316693691389e+00       8.030316236350e-17 
       4.175469971226e+00       8.742332801570e-16 
       5.256605252960e+00       1.726969828613e-16 
       6.617673932723e+00       6.796000505883e-18 
       8.331157880872e+00       4.041264839063e-18 
       1.048830636590e+01       1.159168475274e-19 
       1.320399541071e+01       3.351897261518e-19 
       1.662284535976e+01       1.287452490851e-19 
       2.092692243973e+01       2.594634539990e-21 
       2.634543445002e+01       3.683901586907e-20 
       3.316693691389e+01       6.628914116895e-22 
       4.175469971226e+01       7.606637906619e-22 
       5.256605252960e+01       3.043842296427e-22 
       6.617673932723e+01       4.012080036749e-22 
