# Matter power spectrum P(k) at redshift z=99
# for k=1.04775e-05 to 66.1767 h/Mpc,
# number of wavenumbers equal to 130
#    1:k (h/Mpc)              2:P (Mpc/h)^3        
       1.047750691046e-05       7.262992418093e-03 
       1.319039970183e-05       9.070587082289e-03 
       1.660572937635e-05       1.132805028484e-02 
       2.090537469327e-05       1.414734175341e-02 
       2.631830744443e-05       1.766828127525e-02 
       3.313278603720e-05       2.206548311146e-02 
       4.171170630578e-05       2.755700922350e-02 
       5.251192703764e-05       3.441516936972e-02 
       6.610859936996e-05       4.298000823484e-02 
       8.322579568497e-05       5.367611339418e-02 
       1.047750691046e-04       6.703358714556e-02 
       1.319039970183e-04       8.371413961964e-02 
       1.660572937635e-04       1.045435396139e-01 
       2.090537469327e-04       1.305518228006e-01 
       2.631830744443e-04       1.630229129256e-01 
       3.313278603720e-04       2.035553984464e-01 
       4.171170630578e-04       2.541360835818e-01 
       5.251192703764e-04       3.172272219429e-01 
       6.610859936996e-04       3.958663641599e-01 
       8.322579568497e-04       4.937732845713e-01 
       1.047750691046e-03       6.154490145711e-01 
       1.319039970183e-03       7.662333330056e-01 
       1.660572937635e-03       9.522943498925e-01 
       2.090537469327e-03       1.180269445025e+00 
       2.631830744443e-03       1.456557446363e+00 
       3.313278603720e-03       1.785771707732e+00 
       4.171170630578e-03       2.168003514042e+00 
       5.251192703764e-03       2.594770289007e+00 
       6.610859936996e-03       3.044430253614e+00 
       8.322579568497e-03       3.479140004020e+00 
       1.047750691046e-02       3.844429302222e+00 
       1.319039970183e-02       4.066440196362e+00 
       1.660572937633e-02       4.043942445693e+00 
       2.090537453514e-02       3.659544149847e+00 
       2.631818545635e-02       2.838213563287e+00 
       3.311571692125e-02       1.672971531875e+00 
       4.113809243311e-02       6.045890248649e-01 
       4.792590854610e-02       1.371253671997e-01 
       5.284436902701e-02       1.495553985806e-02 
       5.689644391095e-02       1.782766888932e-03 
       6.051252627066e-02       2.414379055541e-02 
       6.388413457411e-02       5.363800828067e-02 
       6.711249296401e-02       7.768800482600e-02 
       7.025823437965e-02       9.108870648352e-02 
       7.336115587705e-02       9.277646247434e-02 
       7.644928796912e-02       8.423138842756e-02 
       7.954353299775e-02       6.844627894653e-02 
       8.266024078725e-02       4.912328452435e-02 
       8.581273398637e-02       2.999441394846e-02 
       8.901225918437e-02       1.422475523814e-02 
       9.226860540985e-02       3.961623336964e-03 
       9.559052048996e-02       5.319579269402e-05 
       9.898599946599e-02       1.993715547696e-03 
       1.024624891378e-01       8.109533267172e-03 
       1.060270359164e-01       1.597574774733e-02 
       1.096863943056e-01       2.299482645711e-02 
       1.134471073830e-01       2.702439323774e-02 
       1.173155669539e-01       2.690927170055e-02 
       1.212980586983e-01       2.276742091244e-02 
       1.254007961065e-01       1.593099454650e-02 
       1.296299459934e-01       8.516926400667e-03 
       1.339916477160e-01       2.729200078664e-03 
       1.384920277736e-01       9.831548664844e-05 
       1.431372111762e-01       9.289935100762e-04 
       1.479333307714e-01       4.193947711565e-03 
       1.528865355934e-01       7.964901303982e-03 
       1.580029992204e-01       1.025251316228e-02 
       1.632889290723e-01       9.910440432761e-03 
       1.687505775527e-01       7.168313096984e-03 
       1.743942559171e-01       3.481680812977e-03 
       1.802263517371e-01       7.106322612296e-04 
       1.862533508214e-01       5.061130178828e-05 
       1.924818644494e-01       1.346922045425e-03 
       1.989186627765e-01       3.252440132162e-03 
       2.055707152847e-01       4.181886014423e-03 
       2.124452391818e-01       3.447435342997e-03 
       2.195497567139e-01       1.685656938081e-03 
       2.268921624510e-01       2.589753342830e-04 
       2.344808017550e-01       9.907118354002e-05 
       2.423245618548e-01       9.305252867903e-04 
       2.504329772620e-01       1.644241235823e-03 
       2.588163516754e-01       1.447330655439e-03 
       2.674858990930e-01       6.042708471207e-04 
       2.764539076010e-01       2.726962665515e-05 
       2.857339303080e-01       1.723777570392e-04 
       2.953410092148e-01       5.861010747942e-04 
       3.052919395542e-01       6.032261434154e-04 
       3.156055844677e-01       2.281343461654e-04 
       3.263032530092e-01       7.275974177116e-07 
       3.374091587054e-01       1.291284911757e-04 
       3.489509817175e-01       2.545480525876e-04 
       3.609605657343e-01       1.341098284115e-04 
       3.734747921333e-01       3.093151933722e-06 
       3.865366902904e-01       4.977402951693e-05 
       4.001968667448e-01       9.110929316698e-05 
       4.145153713076e-01       2.505853114069e-05 
       4.295641718077e-01       4.397395068610e-06 
       4.454304922144e-01       3.307301736111e-05 
       4.622214006969e-01       1.205062091799e-05 
       4.800702491654e-01       1.970076276049e-06 
       4.991459272112e-01       1.089516605191e-05 
       5.196665217302e-01       6.178247015697e-07 
       5.419201087032e-01       3.284093259340e-06 
       5.662975451962e-01       6.436419444296e-07 
       5.933463737275e-01       1.036305513664e-06 
       6.238638458458e-01       9.268512803850e-09 
       6.590669257916e-01       2.083885717947e-07 
       7.009246080454e-01       8.528359479955e-08 
       7.528593308799e-01       2.467860960740e-08 
       8.213469537518e-01       1.292152098774e-09 
       9.196980813302e-01       1.634365484809e-10 
       1.075112183810e+00       2.772252571945e-12 
       1.322697471132e+00       1.301991764046e-15 
       1.662328205042e+00       3.011294736325e-13 
       2.092692408506e+00       3.407406883099e-14 
       2.634543445090e+00       4.480285944336e-15 
       3.316693691389e+00       4.561091065377e-17 
       4.175469971226e+00       4.432888227628e-16 
       5.256605252960e+00       6.571446652075e-17 
       6.617673932723e+00       6.853412153839e-19 
       8.331157880872e+00       1.909856355252e-19 
       1.048830636590e+01       8.481741902524e-21 
       1.320399541071e+01       5.176682634588e-22 
       1.662284535976e+01       9.620702462622e-23 
       2.092692243973e+01       1.167979995342e-22 
       2.634543445002e+01       1.343217736075e-23 
       3.316693691389e+01       2.363615171830e-25 
       4.175469971226e+01       5.184187011348e-26 
       5.256605252960e+01       1.826869629004e-27 
       6.617673932723e+01       9.971649631279e-28 
