# Matter power spectrum P(k) at redshift z=0
# for k=1.04775e-05 to 66.1767 h/Mpc,
# number of wavenumbers equal to 130
#    1:k (h/Mpc)              2:P (Mpc/h)^3        
       1.047750691046e-05       5.020963954836e+01 
       1.319039970183e-05       6.270562656740e+01 
       1.660572937635e-05       7.831149952747e+01 
       2.090537469327e-05       9.780106826596e+01 
       2.631830744443e-05       1.221408204266e+02 
       3.313278603720e-05       1.525374501989e+02 
       4.171170630578e-05       1.904975995250e+02 
       5.251192703764e-05       2.379022226474e+02 
       6.610859936996e-05       2.970989228473e+02 
       8.322579568497e-05       3.710167329441e+02 
       1.047750691046e-04       4.633080766715e+02 
       1.319039970183e-04       5.785234135158e+02 
       1.660572937635e-04       7.223242666073e+02 
       2.090537469327e-04       9.017396271819e+02 
       2.631830744443e-04       1.125468124147e+03 
       3.313278603720e-04       1.404223053659e+03 
       4.171170630578e-04       1.751108028524e+03 
       5.251192703764e-04       2.181998446824e+03 
       6.610859936996e-04       2.715889984033e+03 
       8.322579568497e-04       3.375152335680e+03 
       1.047750691046e-03       4.185552170162e+03 
       1.319039970183e-03       5.175742731427e+03 
       1.660572937635e-03       6.376122994062e+03 
       2.090537469327e-03       7.815671818143e+03 
       2.631830744443e-03       9.517782684543e+03 
       3.313278603720e-03       1.149357349524e+04 
       4.171170630578e-03       1.373265730688e+04 
       5.251192703764e-03       1.619062742581e+04 
       6.610859936996e-03       1.877458283941e+04 
       8.322579568497e-03       2.132605796452e+04 
       1.047750691046e-02       2.360534898282e+04 
       1.319039970183e-02       2.528187818226e+04 
       1.660572937633e-02       2.594959315222e+04 
       2.090537453514e-02       2.520784980837e+04 
       2.631818545635e-02       2.286732016650e+04 
       3.311571692125e-02       1.928065099157e+04 
       4.113809243311e-02       1.567486932582e+04 
       4.792590854610e-02       1.359777952941e+04 
       5.284436902701e-02       1.257576428953e+04 
       5.689644391095e-02       1.193785212505e+04 
       6.051252627066e-02       1.145585275767e+04 
       6.388413457411e-02       1.103457605550e+04 
       6.711249296401e-02       1.062611019932e+04 
       7.025823437965e-02       1.020500860695e+04 
       7.336115587705e-02       9.758876654277e+03 
       7.644928796912e-02       9.284803966540e+03 
       7.954353299775e-02       8.786578264353e+03 
       8.266024078725e-02       8.273126920495e+03 
       8.581273398637e-02       7.756909860602e+03 
       8.901225918437e-02       7.252179721526e+03 
       9.226860540985e-02       6.773172665052e+03 
       9.559052048996e-02       6.332567046273e+03 
       9.898599946599e-02       5.940194350465e+03 
       1.024624891378e-01       5.601936303638e+03 
       1.060270359164e-01       5.319123625919e+03 
       1.096863943056e-01       5.088089626936e+03 
       1.134471073830e-01       4.900808785709e+03 
       1.173155669539e-01       4.744908320890e+03 
       1.212980586983e-01       4.605077360277e+03 
       1.254007961065e-01       4.464757427299e+03 
       1.296299459934e-01       4.308772559713e+03 
       1.339916477160e-01       4.126254731645e+03 
       1.384920277736e-01       3.913248423727e+03 
       1.431372111762e-01       3.674016871713e+03 
       1.479333307714e-01       3.420292702335e+03 
       1.528865355934e-01       3.168550563833e+03 
       1.580029992204e-01       2.935910498102e+03 
       1.632889290723e-01       2.735810914316e+03 
       1.687505775527e-01       2.574650037076e+03 
       1.743942559171e-01       2.450343757163e+03 
       1.802263517371e-01       2.352410850626e+03 
       1.862533508214e-01       2.265847160364e+03 
       1.924818644494e-01       2.173846698145e+03 
       1.989186627765e-01       2.063547833226e+03 
       2.055707152847e-01       1.932840950204e+03 
       2.124452391818e-01       1.790885314725e+03 
       2.195497567139e-01       1.652555616678e+03 
       2.268921624510e-01       1.531014975249e+03 
       2.344808017550e-01       1.433046476628e+03 
       2.423245618548e-01       1.356733798325e+03 
       2.504329772620e-01       1.291834649843e+03 
       2.588163516754e-01       1.225439590354e+03 
       2.674858990930e-01       1.149967834796e+03 
       2.764539076010e-01       1.066616648281e+03 
       2.857339303080e-01       9.840550112131e+02 
       2.953410092148e-01       9.120019029673e+02 
       3.052919395542e-01       8.532136731531e+02 
       3.156055844677e-01       8.027610056509e+02 
       3.263032530092e-01       7.529939810556e+02 
       3.374091587054e-01       6.995580034961e+02 
       3.489509817175e-01       6.452507354674e+02 
       3.609605657343e-01       5.954955569935e+02 
       3.734747921333e-01       5.527463993247e+02 
       3.865366902904e-01       5.138940323368e+02 
       4.001968667448e-01       4.750986010025e+02 
       4.145153713076e-01       4.361930676200e+02 
       4.295641718077e-01       3.998952443387e+02 
       4.454304922144e-01       3.670992636083e+02 
       4.622214006969e-01       3.361663375641e+02 
       4.800702491654e-01       3.056893583588e+02 
       4.991459272112e-01       2.767097277550e+02 
       5.196665217302e-01       2.498688079880e+02 
       5.419201087032e-01       2.239306730217e+02 
       5.662975451962e-01       1.989641774824e+02 
       5.933463737275e-01       1.752464432577e+02 
       6.238638458458e-01       1.522094826729e+02 
       6.590669257916e-01       1.299237763427e+02 
       7.009246080454e-01       1.080698282750e+02 
       7.528593308799e-01       8.649127942036e+01 
       8.213469537518e-01       6.494268538331e+01 
       9.196980813302e-01       4.345596714166e+01 
       1.075112183810e+00       2.327246991435e+01 
       1.322697471132e+00       8.464160646496e+00 
       1.662328205042e+00       1.786464900618e+00 
       2.092692408506e+00       8.495723903906e-02 
       2.634543445090e+00       6.794324755272e-02 
       3.316693691389e+00       1.679002463537e-01 
       4.175469971226e+00       9.066658747604e-02 
       5.256605252960e+00       1.253693053421e-02 
       6.617673932723e+00       2.042836641619e-04 
       8.331157880872e+00       1.298060744599e-03 
       1.048830636590e+01       7.893712956166e-05 
       1.320399541071e+01       2.046229717972e-05 
       1.662284535976e+01       9.620159210531e-07 
       2.092692243973e+01       1.925273445493e-07 
       2.634543445002e+01       1.013076354432e-08 
       3.316693691389e+01       1.960457305718e-10 
       4.175469971226e+01       1.933838249020e-10 
       5.256605252960e+01       4.931904358131e-11 
       6.617673932723e+01       1.278270826123e-11 
