# Matter power spectrum P(k) at redshift z=99
# for k=1.04775e-05 to 66.1767 h/Mpc,
# number of wavenumbers equal to 130
#    1:k (h/Mpc)              2:P (Mpc/h)^3        
       1.047750691046e-05       7.262978668090e-03 
       1.319039970183e-05       9.070570772641e-03 
       1.660572937635e-05       1.132803070656e-02 
       2.090537469327e-05       1.414731736658e-02 
       2.631830744443e-05       1.766825041746e-02 
       3.313278603720e-05       2.206544631538e-02 
       4.171170630578e-05       2.755696401093e-02 
       5.251192703764e-05       3.441511335785e-02 
       6.610859936996e-05       4.297993695769e-02 
       8.322579568497e-05       5.367602546894e-02 
       1.047750691046e-04       6.703347635613e-02 
       1.319039970183e-04       8.371400196517e-02 
       1.660572937635e-04       1.045433676716e-01 
       2.090537469327e-04       1.305516085068e-01 
       2.631830744443e-04       1.630226471918e-01 
       3.313278603720e-04       2.035550694655e-01 
       4.171170630578e-04       2.541356792977e-01 
       5.251192703764e-04       3.172267307283e-01 
       6.610859936996e-04       3.958657780450e-01 
       8.322579568497e-04       4.937726070454e-01 
       1.047750691046e-03       6.154482788492e-01 
       1.319039970183e-03       7.662326380216e-01 
       1.660572937635e-03       9.522939477295e-01 
       2.090537469327e-03       1.180269897938e+00 
       2.631830744443e-03       1.456560081940e+00 
       3.313278603720e-03       1.785779557332e+00 
       4.171170630578e-03       2.168023595988e+00 
       5.251192703764e-03       2.594819115076e+00 
       6.610859936996e-03       3.044546315896e+00 
       8.322579568497e-03       3.479410401388e+00 
       1.047750691046e-02       3.845039355690e+00 
       1.319039970183e-02       4.067758732181e+00 
       1.660572937633e-02       4.046627621344e+00 
       2.090537453514e-02       3.664601216866e+00 
       2.631818545635e-02       2.846689682551e+00 
       3.311571692125e-02       1.684668531547e+00 
       4.113809243311e-02       6.158548403933e-01 
       4.792590854610e-02       1.440487777230e-01 
       5.284436902701e-02       1.755802088523e-02 
       5.689644391095e-02       1.002684226116e-03 
       6.051252627066e-02       2.101014234640e-02 
       6.388413457411e-02       4.914271524866e-02 
       6.711249296401e-02       7.272572498001e-02 
       7.025823437965e-02       8.640559013822e-02 
       7.336115587705e-02       8.892647263930e-02 
       7.644928796912e-02       8.154546068489e-02 
       7.954353299775e-02       6.702008674186e-02 
       8.266024078725e-02       4.882862142716e-02 
       8.581273398637e-02       3.051023886364e-02 
       8.901225918437e-02       1.510262196428e-02 
       9.226860540985e-02       4.707206983735e-03 
       9.559052048996e-02       2.191237409627e-04 
       9.898599946599e-02       1.268210793333e-03 
       1.024624891378e-01       6.384952920748e-03 
       1.060270359164e-01       1.337766252356e-02 
       1.096863943056e-01       1.986039750219e-02 
       1.134471073830e-01       2.382766758444e-02 
       1.173155669539e-01       2.414149104971e-02 
       1.212980586983e-01       2.080396140323e-02 
       1.254007961065e-01       1.491597646453e-02 
       1.296299459934e-01       8.310913260335e-03 
       1.339916477160e-01       2.944250615616e-03 
       1.384920277736e-01       2.243829457367e-04 
       1.431372111762e-01       5.190167330293e-04 
       1.479333307714e-01       3.041699714783e-03 
       1.528865355934e-01       6.199062624838e-03 
       1.580029992204e-01       8.287382598514e-03 
       1.632889290723e-01       8.260451116953e-03 
       1.687505775527e-01       6.196594316737e-03 
       1.743942559171e-01       3.207611696809e-03 
       1.802263517371e-01       7.978486847078e-04 
       1.862533508214e-01       3.211766678778e-06 
       1.924818644494e-01       8.138901447815e-04 
       1.989186627765e-01       2.253185125264e-03 
       2.055707152847e-01       3.083367916836e-03 
       2.124452391818e-01       2.685906043297e-03 
       2.195497567139e-01       1.432912171756e-03 
       2.268921624510e-01       2.970913105066e-04 
       2.344808017550e-01       2.334293670312e-05 
       2.423245618548e-01       5.204111358641e-04 
       2.504329772620e-01       1.052411657888e-03 
       2.588163516754e-01       1.014823175319e-03 
       2.674858990930e-01       4.888094916878e-04 
       2.764539076010e-01       5.011852554617e-05 
       2.857339303080e-01       6.104366659702e-05 
       2.953410092148e-01       3.086568100761e-04 
       3.052919395542e-01       3.699901736796e-04 
       3.156055844677e-01       1.733829520715e-04 
       3.263032530092e-01       8.221544826818e-06 
       3.374091587054e-01       4.468235227095e-05 
       3.489509817175e-01       1.248908609057e-04 
       3.609605657343e-01       8.506433198227e-05 
       3.734747921333e-01       8.199253075451e-06 
       3.865366902904e-01       1.289176452669e-05 
       4.001968667448e-01       3.949632456953e-05 
       4.145153713076e-01       1.755445465929e-05 
       4.295641718077e-01       6.372202541696e-08 
       4.454304922144e-01       1.041628255647e-05 
       4.622214006969e-01       7.005108411079e-06 
       4.800702491654e-01       8.660900335753e-09 
       4.991459272112e-01       3.104898105401e-06 
       5.196665217302e-01       8.010331335574e-07 
       5.419201087032e-01       4.698078523988e-07 
       5.662975451962e-01       4.249557997175e-07 
       5.933463737275e-01       1.023869912205e-07 
       6.238638458458e-01       4.692021885736e-08 
       6.590669257916e-01       4.442065399975e-08 
       7.009246080454e-01       4.697631023264e-09 
       7.528593308799e-01       1.104191650980e-09 
       8.213469537518e-01       2.372636450169e-10 
       9.196980813302e-01       1.707543219289e-12 
       1.075112183810e+00       3.269209456982e-14 
       1.322697471132e+00       6.168516562506e-15 
       1.662328205042e+00       3.408170315946e-13 
       2.092692408506e+00       4.691636785211e-14 
       2.634543445090e+00       7.148131146381e-15 
       3.316693691389e+00       7.462625588918e-17 
       4.175469971226e+00       8.093266095209e-16 
       5.256605252960e+00       1.604992763437e-16 
       6.617673932723e+00       5.253299574110e-18 
       8.331157880872e+00       3.006064853639e-18 
       1.048830636590e+01       2.338823619463e-20 
       1.320399541071e+01       1.320613889754e-19 
       1.662284535976e+01       2.442984651930e-20 
       2.092692243973e+01       2.415933556972e-21 
       2.634543445002e+01       1.187797369057e-21 
       3.316693691389e+01       2.288766725809e-23 
       4.175469971226e+01       9.206569876921e-24 
       5.256605252960e+01       3.963382661253e-24 
       6.617673932723e+01       1.669852727572e-26 
