# Matter power spectrum P(k) at redshift z=99
# for k=1.04775e-05 to 66.1767 h/Mpc,
# number of wavenumbers equal to 130
#    1:k (h/Mpc)              2:P (Mpc/h)^3        
       1.047750691046e-05       7.262088069847e-03 
       1.319039970183e-05       9.069458122556e-03 
       1.660572937635e-05       1.132664213028e-02 
       2.090537469327e-05       1.414558203494e-02 
       2.631830744443e-05       1.766608422875e-02 
       3.313278603720e-05       2.206273982184e-02 
       4.171170630578e-05       2.755358546599e-02 
       5.251192703764e-05       3.441089441878e-02 
       6.610859936996e-05       4.297467235283e-02 
       8.322579568497e-05       5.366945297794e-02 
       1.047750691046e-04       6.702527576627e-02 
       1.319039970183e-04       8.370377724757e-02 
       1.660572937635e-04       1.045306300662e-01 
       2.090537469327e-04       1.305357656431e-01 
       2.631830744443e-04       1.630029900945e-01 
       3.313278603720e-04       2.035307736600e-01 
       4.171170630578e-04       2.541058409066e-01 
       5.251192703764e-04       3.171904687707e-01 
       6.610859936996e-04       3.958224922861e-01 
       8.322579568497e-04       4.937225543390e-01 
       1.047750691046e-03       6.153938429797e-01 
       1.319039970183e-03       7.661810784100e-01 
       1.660572937635e-03       9.522636422411e-01 
       2.090537469327e-03       1.180303533211e+00 
       2.631830744443e-03       1.456756033211e+00 
       3.313278603720e-03       1.786366298414e+00 
       4.171170630578e-03       2.169538729806e+00 
       5.251192703764e-03       2.598539374939e+00 
       6.610859936996e-03       3.053482390958e+00 
       8.322579568497e-03       3.500450907619e+00 
       1.047750691046e-02       3.893085971233e+00 
       1.319039970183e-02       4.172770407617e+00 
       1.660572937633e-02       4.263886185793e+00 
       2.090537453514e-02       4.083936270553e+00 
       2.631818545635e-02       3.581350953096e+00 
       3.311571692125e-02       2.798139508652e+00 
       4.113809243311e-02       1.959318673337e+00 
       4.792590854610e-02       1.426604318433e+00 
       5.284436902701e-02       1.139599300323e+00 
       5.689644391095e-02       9.525750618988e-01 
       6.051252627066e-02       8.142670118196e-01 
       6.388413457411e-02       7.034977141432e-01 
       6.711249296401e-02       6.097523338143e-01 
       7.025823437965e-02       5.272521595798e-01 
       7.336115587705e-02       4.527410311108e-01 
       7.644928796912e-02       3.844316742352e-01 
       7.954353299775e-02       3.215328788100e-01 
       8.266024078725e-02       2.638846225037e-01 
       8.581273398637e-02       2.117098827408e-01 
       8.901225918437e-02       1.654064966683e-01 
       9.226860540985e-02       1.253698228069e-01 
       9.559052048996e-02       9.182384260029e-02 
       9.898599946599e-02       6.472981103051e-02 
       1.024624891378e-01       4.373177765930e-02 
       1.060270359164e-01       2.818519888536e-02 
       1.096863943056e-01       1.722722550669e-02 
       1.134471073830e-01       9.897897134565e-03 
       1.173155669539e-01       5.256959870982e-03 
       1.212980586983e-01       2.487265551114e-03 
       1.254007961065e-01       9.507019375915e-04 
       1.296299459934e-01       2.079335921200e-04 
       1.339916477160e-01       1.604058760486e-07 
       1.384920277736e-01       2.112194464652e-04 
       1.431372111762e-01       8.166456063019e-04 
       1.479333307714e-01       1.821426126762e-03 
       1.528865355934e-01       3.190252740347e-03 
       1.580029992204e-01       4.788514977477e-03 
       1.632889290723e-01       6.363484866094e-03 
       1.687505775527e-01       7.598127888150e-03 
       1.743942559171e-01       8.225422756449e-03 
       1.802263517371e-01       8.144327308178e-03 
       1.862533508214e-01       7.456562439725e-03 
       1.924818644494e-01       6.420587620435e-03 
       1.989186627765e-01       5.345175491591e-03 
       2.055707152847e-01       4.427841169070e-03 
       2.124452391818e-01       3.712978655539e-03 
       2.195497567139e-01       3.144145825460e-03 
       2.268921624510e-01       2.630701382277e-03 
       2.344808017550e-01       2.090470217132e-03 
       2.423245618548e-01       1.502280185956e-03 
       2.504329772620e-01       9.356492827563e-04 
       2.588163516754e-01       4.889184740318e-04 
       2.674858990930e-01       2.073149367940e-04 
       2.764539076010e-01       6.844566574638e-05 
       2.857339303080e-01       1.471518680872e-05 
       2.953410092148e-01       1.516975377084e-07 
       3.052919395542e-01       7.713678136173e-06 
       3.156055844677e-01       3.493717252822e-05 
       3.263032530092e-01       7.518166289953e-05 
       3.374091587054e-01       1.077765623441e-04 
       3.489509817175e-01       1.176016571301e-04 
       3.609605657343e-01       1.076822411178e-04 
       3.734747921333e-01       9.243328796926e-05 
       3.865366902904e-01       7.721883761807e-05 
       4.001968667448e-01       5.954163612641e-05 
       4.145153713076e-01       3.839841491929e-05 
       4.295641718077e-01       1.985080175362e-05 
       4.454304922144e-01       8.021448119169e-06 
       4.622214006969e-01       2.209004096082e-06 
       4.800702491654e-01       8.755716070178e-08 
       4.991459272112e-01       5.349775423011e-07 
       5.196665217302e-01       1.904038180791e-06 
       5.419201087032e-01       2.791814782142e-06 
       5.662975451962e-01       2.907785460079e-06 
       5.933463737275e-01       2.118547336346e-06 
       6.238638458458e-01       1.042988856344e-06 
       6.590669257916e-01       2.642161235665e-07 
       7.009246080454e-01       3.567202652109e-09 
       7.528593308799e-01       4.501810247243e-08 
       8.213469537518e-01       4.461048580132e-08 
       9.196980813302e-01       2.206697929809e-10 
       1.075112183810e+00       2.725058558472e-09 
       1.322697471132e+00       6.839129913913e-13 
       1.662328205042e+00       2.455459704532e-11 
       2.092692408506e+00       4.193832297711e-12 
       2.634543445090e+00       1.364852212833e-12 
       3.316693691389e+00       4.428170066949e-13 
       4.175469971226e+00       1.639972632827e-13 
       5.256605252960e+00       5.439311113931e-14 
       6.617673932723e+00       1.686180381679e-14 
       8.331157880872e+00       5.555969751871e-15 
       1.048830636590e+01       1.661989509904e-15 
       1.320399541071e+01       5.125535274155e-16 
       1.662284535976e+01       1.407772168938e-16 
       2.092692243973e+01       3.240600022058e-17 
       2.634543445002e+01       7.337173001956e-18 
       3.316693691389e+01       1.109770337280e-18 
       4.175469971226e+01       9.152364696188e-20 
       5.256605252960e+01       1.345499144296e-21 
       6.617673932723e+01       5.090468228110e-22 
