# Matter power spectrum P(k) at redshift z=99
# for k=1.04775e-05 to 66.1767 h/Mpc,
# number of wavenumbers equal to 130
#    1:k (h/Mpc)              2:P (Mpc/h)^3        
       1.047750691046e-05       7.261927680965e-03 
       1.319039970183e-05       9.069258201979e-03 
       1.660572937635e-05       1.132639106741e-02 
       2.090537469327e-05       1.414527123419e-02 
       2.631830744443e-05       1.766569584083e-02 
       3.313278603720e-05       2.206225515974e-02 
       4.171170630578e-05       2.755297766316e-02 
       5.251192703764e-05       3.441013522997e-02 
       6.610859936996e-05       4.297372172839e-02 
       8.322579568497e-05       5.366826853020e-02 
       1.047750691046e-04       6.702379872870e-02 
       1.319039970183e-04       8.370193441405e-02 
       1.660572937635e-04       1.045283355399e-01 
       2.090537469327e-04       1.305329134122e-01 
       2.631830744443e-04       1.629994506628e-01 
       3.313278603720e-04       2.035264004630e-01 
       4.171170630578e-04       2.541004744278e-01 
       5.251192703764e-04       3.171839528599e-01 
       6.610859936996e-04       3.958147256564e-01 
       8.322579568497e-04       4.937136006330e-01 
       1.047750691046e-03       6.153841636104e-01 
       1.319039970183e-03       7.661720592490e-01 
       1.660572937635e-03       9.522588016503e-01 
       2.090537469327e-03       1.180312991693e+00 
       2.631830744443e-03       1.456802684654e+00 
       3.313278603720e-03       1.786503853940e+00 
       4.171170630578e-03       2.169896197503e+00 
       5.251192703764e-03       2.599430630084e+00 
       6.610859936996e-03       3.055668703717e+00 
       8.322579568497e-03       3.505725594713e+00 
       1.047750691046e-02       3.905491437568e+00 
       1.319039970183e-02       4.200915368889e+00 
       1.660572937633e-02       4.325060032933e+00 
       2.090537453514e-02       4.210208714185e+00 
       2.631818545635e-02       3.825150422469e+00 
       3.311571692125e-02       3.229051359167e+00 
       4.113809243311e-02       2.627729150626e+00 
       4.792590854610e-02       2.280796757863e+00 
       5.284436902701e-02       2.110085844043e+00 
       5.689644391095e-02       2.003537250677e+00 
       6.051252627066e-02       1.923058376558e+00 
       6.388413457411e-02       1.852735558515e+00 
       6.711249296401e-02       1.784559412644e+00 
       7.025823437965e-02       1.714271207609e+00 
       7.336115587705e-02       1.639813338351e+00 
       7.644928796912e-02       1.560659900363e+00 
       7.954353299775e-02       1.477455142845e+00 
       8.266024078725e-02       1.391695753220e+00 
       8.581273398637e-02       1.305462056997e+00 
       8.901225918437e-02       1.221121906021e+00 
       9.226860540985e-02       1.141078285630e+00 
       9.559052048996e-02       1.067450106407e+00 
       9.898599946599e-02       1.001889127786e+00 
       1.024624891378e-01       9.453799559836e-01 
       1.060270359164e-01       8.981480822255e-01 
       1.096863943056e-01       8.596114210576e-01 
       1.134471073830e-01       8.284036149560e-01 
       1.173155669539e-01       8.024665676850e-01 
       1.212980586983e-01       7.792287652735e-01 
       1.254007961065e-01       7.559170072489e-01 
       1.296299459934e-01       7.299802095955e-01 
       1.339916477160e-01       6.995925369587e-01 
       1.384920277736e-01       6.640762158292e-01 
       1.431372111762e-01       6.241437463963e-01 
       1.479333307714e-01       5.817618643864e-01 
       1.528865355934e-01       5.396878095925e-01 
       1.580029992204e-01       5.008119184689e-01 
       1.632889290723e-01       4.673963594984e-01 
       1.687505775527e-01       4.405325539440e-01 
       1.743942559171e-01       4.198639663682e-01 
       1.802263517371e-01       4.036578344127e-01 
       1.862533508214e-01       3.893579922595e-01 
       1.924818644494e-01       3.741327436039e-01 
       1.989186627765e-01       3.558006920142e-01 
       2.055707152847e-01       3.339981588696e-01 
       2.124452391818e-01       3.102637800745e-01 
       2.195497567139e-01       2.871205090794e-01 
       2.268921624510e-01       2.668060440592e-01 
       2.344808017550e-01       2.504815906931e-01 
       2.423245618548e-01       2.378309545857e-01 
       2.504329772620e-01       2.271100420214e-01 
       2.588163516754e-01       2.161148746821e-01 
       2.674858990930e-01       2.035431333393e-01 
       2.764539076010e-01       1.895957140117e-01 
       2.857339303080e-01       1.757551294097e-01 
       2.953410092148e-01       1.636975487654e-01 
       3.052919395542e-01       1.539045281115e-01 
       3.156055844677e-01       1.455291252520e-01 
       3.263032530092e-01       1.372481816936e-01 
       3.374091587054e-01       1.283001233095e-01 
       3.489509817175e-01       1.191695816544e-01 
       3.609605657343e-01       1.108055567378e-01 
       3.734747921333e-01       1.036433038952e-01 
       3.865366902904e-01       9.713958693114e-02 
       4.001968667448e-01       9.061387755040e-02 
       4.145153713076e-01       8.403540733096e-02 
       4.295641718077e-01       7.788930718838e-02 
       4.454304922144e-01       7.233996012903e-02 
       4.622214006969e-01       6.709218340273e-02 
       4.800702491654e-01       6.189009446105e-02 
       4.991459272112e-01       5.692479158818e-02 
       5.196665217302e-01       5.231453386504e-02 
       5.419201087032e-01       4.783097399497e-02 
       5.662975451962e-01       4.348537297319e-02 
       5.933463737275e-01       3.932952320413e-02 
       6.238638458458e-01       3.525196733113e-02 
       6.590669257916e-01       3.126153984707e-02 
       7.009246080454e-01       2.728589638147e-02 
       7.528593308799e-01       2.327714759666e-02 
       8.213469537518e-01       1.914699645187e-02 
       9.196980813302e-01       1.481585105281e-02 
       1.075112183810e+00       1.034986953196e-02 
       1.322697471132e+00       6.378518319577e-03 
       1.662328205042e+00       3.704894283260e-03 
       2.092692408506e+00       2.123887328746e-03 
       2.634543445090e+00       1.207431416553e-03 
       3.316693691389e+00       6.812770630999e-04 
       4.175469971226e+00       3.817734492451e-04 
       5.256605252960e+00       2.125955757286e-04 
       6.617673932723e+00       1.177013549032e-04 
       8.331157880872e+00       6.481320828689e-05 
       1.048830636590e+01       3.550893915261e-05 
       1.320399541071e+01       1.936004737786e-05 
       1.662284535976e+01       1.050552713116e-05 
       2.092692243973e+01       5.673822606090e-06 
       2.634543445002e+01       3.049461871668e-06 
       3.316693691389e+01       1.630355231273e-06 
       4.175469971226e+01       8.665205986160e-07 
       5.256605252960e+01       4.573721284239e-07 
       6.617673932723e+01       2.393560933293e-07 
