# Matter power spectrum P(k) at redshift z=0
# for k=1.04775e-05 to 66.1767 h/Mpc,
# number of wavenumbers equal to 130
#    1:k (h/Mpc)              2:P (Mpc/h)^3        
       1.047750691046e-05       5.020964811307e+01 
       1.319039970183e-05       6.270562594775e+01 
       1.660572937635e-05       7.831147247912e+01 
       2.090537469327e-05       9.780108069296e+01 
       2.631830744443e-05       1.221408203809e+02 
       3.313278603720e-05       1.525374501932e+02 
       4.171170630578e-05       1.904975994010e+02 
       5.251192703764e-05       2.379022224249e+02 
       6.610859936996e-05       2.970989227881e+02 
       8.322579568497e-05       3.710167318945e+02 
       1.047750691046e-04       4.633080766742e+02 
       1.319039970183e-04       5.785234129334e+02 
       1.660572937635e-04       7.223242666092e+02 
       2.090537469327e-04       9.017396271824e+02 
       2.631830744443e-04       1.125468123750e+03 
       3.313278603720e-04       1.404223053681e+03 
       4.171170630578e-04       1.751108028789e+03 
       5.251192703764e-04       2.181998448133e+03 
       6.610859936996e-04       2.715889983592e+03 
       8.322579568497e-04       3.375152337134e+03 
       1.047750691046e-03       4.185552174305e+03 
       1.319039970183e-03       5.175742742471e+03 
       1.660572937635e-03       6.376123051779e+03 
       2.090537469327e-03       7.815671866177e+03 
       2.631830744443e-03       9.517783069112e+03 
       3.313278603720e-03       1.149357460343e+04 
       4.171170630578e-03       1.373266011360e+04 
       5.251192703764e-03       1.619063614559e+04 
       6.610859936996e-03       1.877460400564e+04 
       8.322579568497e-03       2.132607231645e+04 
       1.047750691046e-02       2.360548714179e+04 
       1.319039970183e-02       2.528218849616e+04 
       1.660572937633e-02       2.595026525812e+04 
       2.090537453514e-02       2.520935326503e+04 
       2.631818545635e-02       2.287034020308e+04 
       3.311571692125e-02       1.928628692949e+04 
       4.113809243311e-02       1.568426594129e+04 
       4.792590854610e-02       1.361062008127e+04 
       5.284436902701e-02       1.259129520180e+04 
       5.689644391095e-02       1.195555161831e+04 
       6.051252627066e-02       1.147547146519e+04 
       6.388413457411e-02       1.105589364507e+04 
       6.711249296401e-02       1.064900306496e+04 
       7.025823437965e-02       1.022931461978e+04 
       7.336115587705e-02       9.784525149367e+03 
       7.644928796912e-02       9.311669765060e+03 
       7.954353299775e-02       8.814535254519e+03 
       8.266024078725e-02       8.302110796260e+03 
       8.581273398637e-02       7.786956796011e+03 
       8.901225918437e-02       7.283169620090e+03 
       9.226860540985e-02       6.805165013751e+03 
       9.559052048996e-02       6.365635937817e+03 
       9.898599946599e-02       5.974400214850e+03 
       1.024624891378e-01       5.637317229713e+03 
       1.060270359164e-01       5.355768804537e+03 
       1.096863943056e-01       5.126248309729e+03 
       1.134471073830e-01       4.940481460415e+03 
       1.173155669539e-01       4.786171523098e+03 
       1.212980586983e-01       4.647941886560e+03 
       1.254007961065e-01       4.509157052791e+03 
       1.296299459934e-01       4.354546987721e+03 
       1.339916477160e-01       4.173218734084e+03 
       1.384920277736e-01       3.961163084905e+03 
       1.431372111762e-01       3.722682626980e+03 
       1.479333307714e-01       3.469550383424e+03 
       1.528865355934e-01       3.218340494575e+03 
       1.580029992204e-01       2.986294367670e+03 
       1.632889290723e-01       2.786964936507e+03 
       1.687505775527e-01       2.626826583850e+03 
       1.743942559171e-01       2.503757237218e+03 
       1.802263517371e-01       2.407338711295e+03 
       1.862533508214e-01       2.322252773551e+03 
       1.924818644494e-01       2.231549459605e+03 
       1.989186627765e-01       2.122191201538e+03 
       2.055707152847e-01       1.992027912630e+03 
       2.124452391818e-01       1.850315919081e+03 
       2.195497567139e-01       1.712183607999e+03 
       2.268921624510e-01       1.590989153385e+03 
       2.344808017550e-01       1.493671263169e+03 
       2.423245618548e-01       1.418310861366e+03 
       2.504329772620e-01       1.354462608376e+03 
       2.588163516754e-01       1.288933657574e+03 
       2.674858990930e-01       1.213936979546e+03 
       2.764539076010e-01       1.130690774556e+03 
       2.857339303080e-01       1.048103441291e+03 
       2.953410092148e-01       9.761825068290e+02 
       3.052919395542e-01       9.178088762645e+02 
       3.156055844677e-01       8.678992461895e+02 
       3.263032530092e-01       8.185260580860e+02 
       3.374091587054e-01       7.651460570853e+02 
       3.489509817175e-01       7.106701159176e+02 
       3.609605657343e-01       6.607861771954e+02 
       3.734747921333e-01       6.180850019827e+02 
       3.865366902904e-01       5.793115288371e+02 
       4.001968667448e-01       5.403895437760e+02 
       4.145153713076e-01       5.011519487082e+02 
       4.295641718077e-01       4.644982845450e+02 
       4.454304922144e-01       4.314079754984e+02 
       4.622214006969e-01       4.001131359682e+02 
       4.800702491654e-01       3.690885138558e+02 
       4.991459272112e-01       3.394768319740e+02 
       5.196665217302e-01       3.119853283810e+02 
       5.419201087032e-01       2.852464863883e+02 
       5.662975451962e-01       2.593309518479e+02 
       5.933463737275e-01       2.345480729341e+02 
       6.238638458458e-01       2.102302834801e+02 
       6.590669257916e-01       1.864335319951e+02 
       7.009246080454e-01       1.627254004518e+02 
       7.528593308799e-01       1.388182477562e+02 
       8.213469537518e-01       1.141883434611e+02 
       9.196980813302e-01       8.835974332992e+01 
       1.075112183810e+00       6.172616456079e+01 
       1.322697471132e+00       3.804279388328e+01 
       1.662328205042e+00       2.209792867405e+01 
       2.092692408506e+00       1.266917364903e+01 
       2.634543445090e+00       7.203328299844e+00 
       3.316693691389e+00       4.065138488348e+00 
       4.175469971226e+00       2.278602191122e+00 
       5.256605252960e+00       1.269341871921e+00 
       6.617673932723e+00       7.031326999027e-01 
       8.331157880872e+00       3.874783327415e-01 
       1.048830636590e+01       2.125098382341e-01 
       1.320399541071e+01       1.160366023142e-01 
       1.662284535976e+01       6.309869252104e-02 
       2.092692243973e+01       3.417968159213e-02 
       2.634543445002e+01       1.844614138700e-02 
       3.316693691389e+01       9.919162396449e-03 
       4.175469971226e+01       5.314659129659e-03 
       5.256605252960e+01       2.836659052354e-03 
       6.617673932723e+01       1.507675713157e-03 
