# Matter power spectrum P(k) at redshift z=0
# for k=1.04775e-05 to 66.1767 h/Mpc,
# number of wavenumbers equal to 130
#    1:k (h/Mpc)              2:P (Mpc/h)^3        
       1.047750691046e-05       5.020963120331e+01 
       1.319039970183e-05       6.270560726997e+01 
       1.660572937635e-05       7.831146677433e+01 
       2.090537469327e-05       9.780107480682e+01 
       2.631830744443e-05       1.221408132985e+02 
       3.313278603720e-05       1.525374347381e+02 
       4.171170630578e-05       1.904975939496e+02 
       5.251192703764e-05       2.379022215010e+02 
       6.610859936996e-05       2.970989214745e+02 
       8.322579568497e-05       3.710167329477e+02 
       1.047750691046e-04       4.633080774335e+02 
       1.319039970183e-04       5.785234108002e+02 
       1.660572937635e-04       7.223242649739e+02 
       2.090537469327e-04       9.017396179729e+02 
       2.631830744443e-04       1.125468093831e+03 
       3.313278603720e-04       1.404222961410e+03 
       4.171170630578e-04       1.751107751010e+03 
       5.251192703764e-04       2.181997612445e+03 
       6.610859936996e-04       2.715887473698e+03 
       8.322579568497e-04       3.375144863098e+03 
       1.047750691046e-03       4.185530177490e+03 
       1.319039970183e-03       5.175678853563e+03 
       1.660572937635e-03       6.375937152846e+03 
       2.090537469327e-03       7.815144088585e+03 
       2.631830744443e-03       9.516321508844e+03 
       3.313278603720e-03       1.148962489053e+04 
       4.171170630578e-03       1.372226710587e+04 
       5.251192703764e-03       1.616406750829e+04 
       6.610859936996e-03       1.870881188623e+04 
       8.322579568497e-03       2.116878226111e+04 
       1.047750691046e-02       2.324354357689e+04 
       1.319039970183e-02       2.448532229190e+04 
       1.660572937633e-02       2.428449579962e+04 
       2.090537453514e-02       2.194764002872e+04 
       2.631818545635e-02       1.702479810706e+04 
       3.311571692125e-02       1.006577344272e+04 
       4.113809243311e-02       3.678284362414e+03 
       4.792590854610e-02       8.612571491136e+02 
       5.284436902701e-02       1.056769097527e+02 
       5.689644391095e-02       5.680309260720e+00 
       6.051252627066e-02       1.235865086438e+02 
       6.388413457411e-02       2.900383586541e+02 
       6.711249296401e-02       4.296190973980e+02 
       7.025823437965e-02       5.105791635146e+02 
       7.336115587705e-02       5.254862035723e+02 
       7.644928796912e-02       4.818334652455e+02 
       7.954353299775e-02       3.959547593087e+02 
       8.266024078725e-02       2.884489041571e+02 
       8.581273398637e-02       1.802499087936e+02 
       8.901225918437e-02       8.926849821753e+01 
       9.226860540985e-02       2.788214640736e+01 
       9.559052048996e-02       1.325633636216e+00 
       9.898599946599e-02       7.371571079884e+00 
       1.024624891378e-01       3.732919040019e+01 
       1.060270359164e-01       7.828724031842e+01 
       1.096863943056e-01       1.162265759683e+02 
       1.134471073830e-01       1.393958415017e+02 
       1.173155669539e-01       1.411658498235e+02 
       1.212980586983e-01       1.215911935325e+02 
       1.254007961065e-01       8.714939844451e+01 
       1.296299459934e-01       4.856403777559e+01 
       1.339916477160e-01       1.723586889981e+01 
       1.384920277736e-01       1.336005512614e+00 
       1.431372111762e-01       2.961369050173e+00 
       1.479333307714e-01       1.750857597110e+01 
       1.528865355934e-01       3.572258752820e+01 
       1.580029992204e-01       4.775370452351e+01 
       1.632889290723e-01       4.758449020764e+01 
       1.687505775527e-01       3.569705242057e+01 
       1.743942559171e-01       1.850475156860e+01 
       1.802263517371e-01       4.639253860335e+00 
       1.862533508214e-01       1.342702475136e-02 
       1.924818644494e-01       4.553079174193e+00 
       1.989186627765e-01       1.268777602867e+01 
       2.055707152847e-01       1.739030447846e+01 
       2.124452391818e-01       1.516691302017e+01 
       2.195497567139e-01       8.118705834617e+00 
       2.268921624510e-01       1.710515395092e+00 
       2.344808017550e-01       1.159785610590e-01 
       2.423245618548e-01       2.832081778616e+00 
       2.504329772620e-01       5.774113501840e+00 
       2.588163516754e-01       5.591643897765e+00 
       2.674858990930e-01       2.715189153579e+00 
       2.764539076010e-01       2.923349125009e-01 
       2.857339303080e-01       3.097088525782e-01 
       2.953410092148e-01       1.631076432552e+00 
       3.052919395542e-01       1.976248929081e+00 
       3.156055844677e-01       9.398967651328e-01 
       3.263032530092e-01       5.018395779597e-02 
       3.374091587054e-01       2.204244260089e-01 
       3.489509817175e-01       6.390965806356e-01 
       3.609605657343e-01       4.444754141991e-01 
       3.734747921333e-01       4.689460227069e-02 
       3.865366902904e-01       5.937891542785e-02 
       4.001968667448e-01       1.940241655926e-01 
       4.145153713076e-01       8.990520858215e-02 
       4.295641718077e-01       7.034403124384e-05 
       4.454304922144e-01       4.792739363349e-02 
       4.622214006969e-01       3.427917040887e-02 
       4.800702491654e-01       3.270873730898e-08 
       4.991459272112e-01       1.358913119453e-02 
       5.196665217302e-01       3.984797292383e-03 
       5.419201087032e-01       1.781165200505e-03 
       5.662975451962e-01       1.939309544322e-03 
       5.933463737275e-01       3.427595402409e-04 
       6.238638458458e-01       2.214658946141e-04 
       6.590669257916e-01       1.628190159211e-04 
       7.009246080454e-01       1.144273725783e-05 
       7.528593308799e-01       2.723954217418e-06 
       8.213469537518e-01       6.095022991259e-07 
       9.196980813302e-01       9.983798194323e-11 
       1.075112183810e+00       4.236903169826e-10 
       1.322697471132e+00       4.557371353251e-11 
       1.662328205042e+00       1.963086241010e-09 
       2.092692408506e+00       2.877677317280e-10 
       2.634543445090e+00       4.583780154717e-11 
       3.316693691389e+00       8.030202306935e-13 
       4.175469971226e+00       5.792658814241e-12 
       5.256605252960e+00       1.333700595451e-12 
       6.617673932723e+00       1.553470463692e-14 
       8.331157880872e+00       6.191293729676e-15 
       1.048830636590e+01       6.312369116126e-15 
       1.320399541071e+01       6.825046161769e-15 
       1.662284535976e+01       1.605729109357e-20 
       2.092692243973e+01       3.739713198083e-16 
       2.634543445002e+01       4.058130210995e-17 
       3.316693691389e+01       2.391992387946e-18 
       4.175469971226e+01       6.277720705639e-18 
       5.256605252960e+01       2.990107596115e-18 
       6.617673932723e+01       1.104816891526e-18 
