# Matter power spectrum P(k) at redshift z=99
# for k=1.04775e-05 to 66.1767 h/Mpc,
# number of wavenumbers equal to 130
#    1:k (h/Mpc)              2:P (Mpc/h)^3        
       1.047750691046e-05       7.262941399363e-03 
       1.319039970183e-05       9.070526115501e-03 
       1.660572937635e-05       1.132797234253e-02 
       2.090537469327e-05       1.414724381239e-02 
       2.631830744443e-05       1.766815959473e-02 
       3.313278603720e-05       2.206533182840e-02 
       4.171170630578e-05       2.755682137156e-02 
       5.251192703764e-05       3.441493667305e-02 
       6.610859936996e-05       4.297971617360e-02 
       8.322579568497e-05       5.367574945126e-02 
       1.047750691046e-04       6.703313070341e-02 
       1.319039970183e-04       8.371357120536e-02 
       1.660572937635e-04       1.045428325677e-01 
       2.090537469327e-04       1.305509424001e-01 
       2.631830744443e-04       1.630218208908e-01 
       3.313278603720e-04       2.035540472738e-01 
       4.171170630578e-04       2.541344248727e-01 
       5.251192703764e-04       3.172252069510e-01 
       6.610859936996e-04       3.958639600036e-01 
       8.322579568497e-04       4.937705073783e-01 
       1.047750691046e-03       6.154460008109e-01 
       1.319039970183e-03       7.662304925651e-01 
       1.660572937635e-03       9.522927140222e-01 
       2.090537469327e-03       1.180271394282e+00 
       2.631830744443e-03       1.456568499251e+00 
       3.313278603720e-03       1.785804576782e+00 
       4.171170630578e-03       2.168087995876e+00 
       5.251192703764e-03       2.594976902511e+00 
       6.610859936996e-03       3.044924421258e+00 
       8.322579568497e-03       3.480297709984e+00 
       1.047750691046e-02       3.847054156235e+00 
       1.319039970183e-02       4.072127202261e+00 
       1.660572937633e-02       4.055544887309e+00 
       2.090537453514e-02       3.681423298574e+00 
       2.631818545635e-02       2.874913513816e+00 
       3.311571692125e-02       1.723692557276e+00 
       4.113809243311e-02       6.537751289183e-01 
       4.792590854610e-02       1.680578131266e-01 
       5.284436902701e-02       2.759712798508e-02 
       5.689644391095e-02       9.580958857786e-06 
       6.051252627066e-02       1.222322372052e-02 
       6.388413457411e-02       3.569200517632e-02 
       6.711249296401e-02       5.744156839431e-02 
       7.025823437965e-02       7.166739812500e-02 
       7.336115587705e-02       7.653046358897e-02 
       7.644928796912e-02       7.261331919581e-02 
       7.954353299775e-02       6.195195124700e-02 
       8.266024078725e-02       4.733559486268e-02 
       8.581273398637e-02       3.171532047402e-02 
       8.901225918437e-02       1.772167667009e-02 
       9.226860540985e-02       7.285781404367e-03 
       9.559052048996e-02       1.402878351370e-03 
       9.898599946599e-02       6.400734500702e-05 
       1.024624891378e-01       2.363118753680e-03 
       1.060270359164e-01       6.768228670380e-03 
       1.096863943056e-01       1.150807073566e-02 
       1.134471073830e-01       1.499699366327e-02 
       1.173155669539e-01       1.620316271076e-02 
       1.212980586983e-01       1.486877067108e-02 
       1.254007961065e-01       1.151792424046e-02 
       1.296299459934e-01       7.240211805664e-03 
       1.339916477160e-01       3.309615503732e-03 
       1.384920277736e-01       7.509612405178e-04 
       1.431372111762e-01       5.188866632340e-06 
       1.479333307714e-01       8.151811836153e-04 
       1.528865355934e-01       2.382974584318e-03 
       1.580029992204e-01       3.739671578087e-03 
       1.632889290723e-01       4.173563020104e-03 
       1.687505775527e-01       3.521413665080e-03 
       1.743942559171e-01       2.181312877906e-03 
       1.802263517371e-01       8.435170943838e-04 
       1.862533508214e-01       8.859296987681e-05 
       1.924818644494e-01       8.045381640931e-05 
       1.989186627765e-01       5.358749009293e-04 
       2.055707152847e-01       9.629078351105e-04 
       2.124452391818e-01       1.016184542867e-03 
       2.195497567139e-01       6.933350181583e-04 
       2.268921624510e-01       2.630902344627e-04 
       2.344808017550e-01       1.856580204870e-05 
       2.423245618548e-01       4.054596120612e-05 
       2.504329772620e-01       1.804472037043e-04 
       2.588163516754e-01       2.455626046924e-04 
       2.674858990930e-01       1.740056196624e-04 
       2.764539076010e-01       5.621807211362e-05 
       2.857339303080e-01       7.802075422992e-07 
       2.953410092148e-01       1.992597468736e-05 
       3.052919395542e-01       4.891336661117e-05 
       3.156055844677e-01       4.093168608650e-05 
       3.263032530092e-01       1.296664513888e-05 
       3.374091587054e-01       2.176395865283e-08 
       3.489509817175e-01       5.516419924084e-06 
       3.609605657343e-01       9.458104664581e-06 
       3.734747921333e-01       4.581422980128e-06 
       3.865366902904e-01       2.278710087785e-07 
       4.001968667448e-01       7.278341644724e-07 
       4.145153713076e-01       1.441988688190e-06 
       4.295641718077e-01       4.873433350189e-07 
       4.454304922144e-01       4.130636890918e-09 
       4.622214006969e-01       2.158919972792e-07 
       4.800702491654e-01       1.215813465867e-07 
       4.991459272112e-01       3.596715320961e-10 
       5.196665217302e-01       2.368056252177e-08 
       5.419201087032e-01       6.630789177921e-09 
       5.662975451962e-01       1.637033267804e-09 
       5.933463737275e-01       2.034714473998e-09 
       6.238638458458e-01       6.010648394219e-11 
       6.590669257916e-01       5.528572607458e-11 
       7.009246080454e-01       1.868253091025e-10 
       7.528593308799e-01       7.055854490444e-12 
       8.213469537518e-01       1.079118936163e-12 
       9.196980813302e-01       6.967830431705e-13 
       1.075112183810e+00       8.280895028113e-14 
       1.322697471132e+00       2.141024269343e-14 
       1.662328205042e+00       3.014615920568e-13 
       2.092692408506e+00       5.622073094537e-14 
       2.634543445090e+00       9.430314868007e-15 
       3.316693691389e+00       1.572471706792e-16 
       4.175469971226e+00       9.041943799426e-16 
       5.256605252960e+00       2.109319172209e-16 
       6.617673932723e+00       1.150236500792e-17 
       8.331157880872e+00       5.932843583602e-18 
       1.048830636590e+01       2.257747673425e-19 
       1.320399541071e+01       3.363386420767e-19 
       1.662284535976e+01       9.366786907830e-20 
       2.092692243973e+01       5.184731081269e-21 
       2.634543445002e+01       8.277434848124e-21 
       3.316693691389e+01       5.748043904628e-22 
       4.175469971226e+01       3.974922190875e-23 
       5.256605252960e+01       1.921261690215e-25 
       6.617673932723e+01       3.019364503333e-24 
