# Matter power spectrum P(k) at redshift z=99
# for k=1.04775e-05 to 66.1767 h/Mpc,
# number of wavenumbers equal to 130
#    1:k (h/Mpc)              2:P (Mpc/h)^3        
       1.047750691046e-05       7.262491344428e-03 
       1.319039970183e-05       9.069962645826e-03 
       1.660572937635e-05       1.132727036459e-02 
       2.090537469327e-05       1.414636698887e-02 
       2.631830744443e-05       1.766706608614e-02 
       3.313278603720e-05       2.206396536791e-02 
       4.171170630578e-05       2.755511408131e-02 
       5.251192703764e-05       3.441280311730e-02 
       6.610859936996e-05       4.297705348552e-02 
       8.322579568497e-05       5.367242666857e-02 
       1.047750691046e-04       6.702898696862e-02 
       1.319039970183e-04       8.370840313476e-02 
       1.660572937635e-04       1.045363932452e-01 
       2.090537469327e-04       1.305429337687e-01 
       2.631830744443e-04       1.630118843509e-01 
       3.313278603720e-04       2.035417672531e-01 
       4.171170630578e-04       2.541193442576e-01 
       5.251192703764e-04       3.172068828265e-01 
       6.610859936996e-04       3.958420871277e-01 
       8.322579568497e-04       4.937452208733e-01 
       1.047750691046e-03       6.154185128736e-01 
       1.319039970183e-03       7.662044880269e-01 
       1.660572937635e-03       9.522774707985e-01 
       2.090537469327e-03       1.180288468401e+00 
       2.631830744443e-03       1.456667628830e+00 
       3.313278603720e-03       1.786101229801e+00 
       4.171170630578e-03       2.168853705439e+00 
       5.251192703764e-03       2.596855771060e+00 
       6.610859936996e-03       3.049434307183e+00 
       8.322579568497e-03       3.490905351312e+00 
       1.047750691046e-02       3.871240814589e+00 
       1.319039970183e-02       4.124860961205e+00 
       1.660572937633e-02       4.164190824190e+00 
       2.090537453514e-02       3.889512372568e+00 
       2.631818545635e-02       3.233944915485e+00 
       3.311571692125e-02       2.249795377858e+00 
       4.113809243311e-02       1.240487175889e+00 
       4.792590854610e-02       6.584905724502e-01 
       5.284436902701e-02       3.885180906225e-01 
       5.689644391095e-02       2.415509100853e-01 
       6.051252627066e-02       1.534394878012e-01 
       6.388413457411e-02       9.801688790378e-02 
       6.711249296401e-02       6.230428894852e-02 
       7.025823437965e-02       3.903777141528e-02 
       7.336115587705e-02       2.384226278174e-02 
       7.644928796912e-02       1.396802933048e-02 
       7.954353299775e-02       7.645265522712e-03 
       8.266024078725e-02       3.721739683783e-03 
       8.581273398637e-02       1.443500417881e-03 
       8.901225918437e-02       3.141588698398e-04 
       9.226860540985e-02       7.170857789376e-08 
       9.559052048996e-02       2.645135747012e-04 
       9.898599946599e-02       9.221221524894e-04 
       1.024624891378e-01       1.809312118447e-03 
       1.060270359164e-01       2.769980564899e-03 
       1.096863943056e-01       3.654124696260e-03 
       1.134471073830e-01       4.328271389865e-03 
       1.173155669539e-01       4.693437388457e-03 
       1.212980586983e-01       4.702413250702e-03 
       1.254007961065e-01       4.371306441785e-03 
       1.296299459934e-01       3.775297266877e-03 
       1.339916477160e-01       3.029799732819e-03 
       1.384920277736e-01       2.259709361884e-03 
       1.431372111762e-01       1.568387260966e-03 
       1.479333307714e-01       1.017202627793e-03 
       1.528865355934e-01       6.217569406266e-04 
       1.580029992204e-01       3.629046805850e-04 
       1.632889290723e-01       2.050178400816e-04 
       1.687505775527e-01       1.121035290517e-04 
       1.743942559171e-01       5.696134394536e-05 
       1.802263517371e-01       2.343008882319e-05 
       1.862533508214e-01       4.786780905600e-06 
       1.924818644494e-01       3.032110206334e-07 
       1.989186627765e-01       1.012186169318e-05 
       2.055707152847e-01       2.879007849404e-05 
       2.124452391818e-01       4.698902678630e-05 
       2.195497567139e-01       5.605346284979e-05 
       2.268921624510e-01       5.183478216088e-05 
       2.344808017550e-01       3.855969995992e-05 
       2.423245618548e-01       2.461436980340e-05 
       2.504329772620e-01       1.436035020034e-05 
       2.588163516754e-01       8.185693198170e-06 
       2.674858990930e-01       5.007676647017e-06 
       2.764539076010e-01       2.995001132541e-06 
       2.857339303080e-01       1.238572391618e-06 
       2.953410092148e-01       1.689711605821e-07 
       3.052919395542e-01       8.030312647526e-08 
       3.156055844677e-01       6.250275459539e-07 
       3.263032530092e-01       9.473553527003e-07 
       3.374091587054e-01       8.989361472918e-07 
       3.489509817175e-01       6.676461014935e-07 
       3.609605657343e-01       5.399295886200e-07 
       3.734747921333e-01       4.353124125996e-07 
       3.865366902904e-01       2.965310218493e-07 
       4.001968667448e-01       1.248510186763e-07 
       4.145153713076e-01       3.081497996672e-08 
       4.295641718077e-01       2.204411539688e-09 
       4.454304922144e-01       3.380484468049e-11 
       4.622214006969e-01       2.088513695564e-09 
       4.800702491654e-01       6.181487693806e-09 
       4.991459272112e-01       4.901278759748e-09 
       5.196665217302e-01       1.446663503097e-09 
       5.419201087032e-01       1.930105984361e-10 
       5.662975451962e-01       7.978903380455e-11 
       5.933463737275e-01       7.932048917097e-10 
       6.238638458458e-01       1.119455748412e-09 
       6.590669257916e-01       8.739985988067e-10 
       7.009246080454e-01       5.678626042718e-10 
       7.528593308799e-01       2.086394234124e-10 
       8.213469537518e-01       5.162535763104e-11 
       9.196980813302e-01       4.239762372362e-11 
       1.075112183810e+00       1.865357503867e-11 
       1.322697471132e+00       5.292167514582e-12 
       1.662328205042e+00       1.614868316122e-12 
       2.092692408506e+00       3.719421729163e-13 
       2.634543445090e+00       1.434170489998e-13 
       3.316693691389e+00       5.933843684837e-14 
       4.175469971226e+00       2.684671539834e-14 
       5.256605252960e+00       8.600295296663e-15 
       6.617673932723e+00       1.124258235889e-15 
       8.331157880872e+00       2.304640236037e-16 
       1.048830636590e+01       4.107446481203e-16 
       1.320399541071e+01       1.424041525502e-16 
       1.662284535976e+01       3.365587170823e-17 
       2.092692243973e+01       6.305139704818e-18 
       2.634543445002e+01       3.060425787622e-18 
       3.316693691389e+01       8.775759920535e-19 
       4.175469971226e+01       2.629555925214e-19 
       5.256605252960e+01       1.037901681893e-19 
       6.617673932723e+01       2.776518918201e-20 
