# Matter power spectrum P(k) at redshift z=0
# for k=1.04775e-05 to 67.6233 h/Mpc,
# number of wavenumbers equal to 246
#    1:k (h/Mpc)              2:P (Mpc/h)^3        
       1.047750691046e-05       5.020970657836e+01 
       1.131335172503e-05       5.407043267124e+01 
       1.221587619537e-05       5.822813125445e+01 
       1.319039970183e-05       6.270557458959e+01 
       1.424266597921e-05       6.752734791721e+01 
       1.537887696968e-05       7.271975968586e+01 
       1.660572937635e-05       7.831146271952e+01 
       1.793045413292e-05       8.433312149731e+01 
       1.936085902198e-05       9.081779017674e+01 
       2.090537469327e-05       9.780106984091e+01 
       2.257310435294e-05       1.053212839108e+02 
       2.437387741694e-05       1.134197254409e+02 
       2.631830744443e-05       1.221408197309e+02 
       2.841785469300e-05       1.315324494803e+02 
       3.068489366414e-05       1.416461573189e+02 
       3.313278603720e-05       1.525374347462e+02 
       3.577595942169e-05       1.642660457382e+02 
       3.862999239199e-05       1.768963392228e+02 
       4.171170630578e-05       1.904975944335e+02 
       4.503926444729e-05       2.051444206954e+02 
       4.863227907969e-05       2.209171360362e+02 
       5.251192703764e-05       2.379022215414e+02 
       5.670107454120e-05       2.561927811063e+02 
       6.122441196689e-05       2.758890467327e+02 
       6.610859936996e-05       2.970989223015e+02 
       7.138242361596e-05       3.199385571231e+02 
       7.707696804727e-05       3.445329730617e+02 
       8.322579568497e-05       3.710167333997e+02 
       8.986514704559e-05       3.995346451796e+02 
       9.703415373875e-05       4.302425404495e+02 
       1.047750691046e-04       4.633080778118e+02 
       1.131335172503e-04       4.989116278211e+02 
       1.221587619537e-04       5.372471950627e+02 
       1.319039970183e-04       5.785234120848e+02 
       1.424266597921e-04       6.229645928928e+02 
       1.537887696968e-04       6.708118480122e+02 
       1.660572937635e-04       7.223242649257e+02 
       1.793045413292e-04       7.777801530044e+02 
       1.936085902198e-04       8.374783558668e+02 
       2.090537469327e-04       9.017396200696e+02 
       2.257310435294e-04       9.709080155084e+02 
       2.437387741694e-04       1.045352432254e+03 
       2.631830744443e-04       1.125468098116e+03 
       2.841785469300e-04       1.211678142437e+03 
       3.068489366414e-04       1.304435194417e+03 
       3.313278603720e-04       1.404222975028e+03 
       3.577595942169e-04       1.511557906499e+03 
       3.862999239199e-04       1.626990678938e+03 
       4.171170630578e-04       1.751107793238e+03 
       4.503926444729e-04       1.884533040284e+03 
       4.863227907969e-04       2.027928887840e+03 
       5.251192703764e-04       2.181997737764e+03 
       5.670107454121e-04       2.347483073761e+03 
       6.122441196689e-04       2.525170391157e+03 
       6.610859936996e-04       2.715887849992e+03 
       7.138242361596e-04       2.920506619139e+03 
       7.707696804727e-04       3.139940677607e+03 
       8.322579568497e-04       3.375145994926e+03 
       8.986514704559e-04       3.627118735721e+03 
       9.703415373875e-04       3.896892406670e+03 
       1.047750691046e-03       4.185533503127e+03 
       1.131335172503e-03       4.494135749841e+03 
       1.221587619537e-03       4.823812645982e+03 
       1.319039970183e-03       5.175688509510e+03 
       1.424266597921e-03       5.550941994976e+03 
       1.537887696968e-03       5.950677264965e+03 
       1.660572937635e-03       6.375964728971e+03 
       1.793045413292e-03       6.827848961557e+03 
       1.936085902198e-03       7.307306738224e+03 
       2.090537469327e-03       7.815221757361e+03 
       2.257310435294e-03       8.352356358467e+03 
       2.437387741694e-03       8.919320424905e+03 
       2.631830744443e-03       9.516535319827e+03 
       2.841785469300e-03       1.014419388829e+04 
       3.068489366414e-03       1.080221590011e+04 
       3.313278603720e-03       1.149020080336e+04 
       3.577595942169e-03       1.220736345178e+04 
       3.862999239199e-03       1.295247249051e+04 
       4.171170630578e-03       1.372377826407e+04 
       4.503926444729e-03       1.451893054580e+04 
       4.863227907969e-03       1.533488094399e+04 
       5.251192703764e-03       1.616791702646e+04 
       5.670107454120e-03       1.701345644548e+04 
       6.122441196689e-03       1.786580151534e+04 
       6.610859936996e-03       1.871830678092e+04 
       7.138242361596e-03       1.956311254590e+04 
       7.707696804727e-03       2.039101028612e+04 
       8.322579568496e-03       2.119134014324e+04 
       8.986514704559e-03       2.195181770751e+04 
       9.703415373875e-03       2.265836749138e+04 
       1.047750691046e-02       2.329510403855e+04 
       1.131335172503e-02       2.384416056712e+04 
       1.221587619537e-02       2.428558147956e+04 
       1.319039970183e-02       2.459760208713e+04 
       1.424266597920e-02       2.475658422783e+04 
       1.537887696964e-02       2.473768845942e+04 
       1.660572937560e-02       2.451521116108e+04 
       1.793045412207e-02       2.406398527764e+04 
       1.936085889642e-02       2.336087923992e+04 
       2.090537351881e-02       2.238675447977e+04 
       2.257309534705e-02       2.112933600521e+04 
       2.437382002240e-02       1.958697419857e+04 
       2.631799943729e-02       1.777222330205e+04 
       2.841644544598e-02       1.571632405083e+04 
       3.067933354524e-02       1.347400162779e+04 
       3.311368469821e-02       1.112671285409e+04 
       3.571840442514e-02       8.783751686474e+03 
       3.847720347390e-02       6.574870531309e+03 
       4.135335537314e-02       4.628900210910e+03 
       4.429361666563e-02       3.040369679052e+03 
       4.724366437916e-02       1.842947651006e+03 
       5.016480834039e-02       1.010348144536e+03 
       5.303989618930e-02       4.798301554043e+02 
       5.586870668205e-02       1.781158721581e+02 
       5.866042679206e-02       3.711547062603e+01 
       6.142798931504e-02       8.292698575026e-03 
       6.418496438662e-02       2.233482813641e+01 
       6.694418832236e-02       7.111248440401e+01 
       6.971731104453e-02       1.233982535349e+02 
       7.251476154108e-02       1.648221070913e+02 
       7.534587669814e-02       1.880323092171e+02 
       7.821907664495e-02       1.912567685555e+02 
       8.114203771084e-02       1.767777959140e+02 
       8.412184533139e-02       1.494344063846e+02 
       8.716512277352e-02       1.152487067953e+02 
       9.027813693913e-02       8.013902655633e+01 
       9.346688429613e-02       4.897553924339e+01 
       9.673716026122e-02       2.494604814594e+01 
       1.000946150608e-01       9.326055844063e+00 
       1.035447986307e-01       1.626607381506e+00 
       1.070931966524e-01       6.674908581044e-02 
       1.107452594180e-01       2.210608667778e+00 
       1.145064248899e-01       5.636329931727e+00 
       1.183821370656e-01       8.471925644556e+00 
       1.223778605591e-01       9.691511845782e+00 
       1.264990921707e-01       9.131468266538e+00 
       1.307513701078e-01       7.269531883032e+00 
       1.351402814485e-01       4.876652445538e+00 
       1.396714683894e-01       2.673442511892e+00 
       1.443506337875e-01       1.102627481572e+00 
       1.491835464900e-01       2.664927562462e-01 
       1.541760469368e-01       6.326368572756e-03 
       1.593340535209e-01       5.500845607876e-02 
       1.646635701934e-01       1.777816113925e-01 
       1.701706958081e-01       2.456314070871e-01 
       1.758616357070e-01       2.332464010307e-01 
       1.817427160581e-01       1.730959643138e-01 
       1.878204014651e-01       1.072540486947e-01 
       1.941013163855e-01       5.592614793151e-02 
       2.005922709060e-01       2.622898839648e-02 
       2.073002914514e-01       1.192458385871e-02 
       2.142326570343e-01       4.859414429601e-03 
       2.213969417044e-01       1.396530267807e-03 
       2.288010639201e-01       1.515096596180e-04 
       2.364533436625e-01       1.028975553660e-04 
       2.443625682390e-01       1.091121827806e-03 
       2.525380678946e-01       2.286691533854e-03 
       2.609898025770e-01       2.551977614911e-03 
       2.697284614969e-01       2.136505780469e-03 
       2.787655775073e-01       1.151849070666e-03 
       2.881136588192e-01       3.007766031678e-04 
       2.977863412019e-01       2.188157523765e-05 
       3.077985646248e-01       3.925889159812e-05 
       3.181667793367e-01       1.541073383625e-04 
       3.289091877084e-01       1.911920834795e-04 
       3.400460298905e-01       1.994035707342e-04 
       3.515999235695e-01       1.083138905177e-04 
       3.635962710278e-01       5.551002960944e-05 
       3.760637505499e-01       8.282134725268e-06 
       3.890349143014e-01       9.019509134753e-07 
       4.025469215929e-01       6.534300498875e-07 
       4.166424455447e-01       1.626830725954e-09 
       4.313708034899e-01       6.329176986978e-08 
       4.467893781976e-01       1.520333845504e-06 
       4.629654198623e-01       2.407173637313e-06 
       4.799783500912e-01       1.982560409743e-06 
       4.979227318246e-01       2.861587322282e-06 
       5.169121269689e-01       2.246204982218e-06 
       5.370841403262e-01       7.691506408990e-07 
       5.586070463286e-01       1.479463115831e-07 
       5.816885093582e-01       2.765402534505e-08 
       6.065870143577e-01       2.318608958443e-08 
       6.336266466978e-01       7.709080565811e-08 
       6.632156057925e-01       2.446818186047e-07 
       6.958678637575e-01       5.428274091838e-07 
       7.322247983784e-01       3.331154017587e-07 
       7.730680193171e-01       2.069904087911e-07 
       8.193049551574e-01       1.922775678668e-08 
       8.718988013754e-01       6.161356557407e-09 
       9.317218028590e-01       6.235643465038e-08 
       9.993660906273e-01       7.850031326908e-08 
       1.075037109879e+00       2.480860774467e-09 
       1.158653485387e+00       1.201659412108e-09 
       1.250099156961e+00       1.810677834939e-08 
       1.349432400897e+00       6.361670206883e-10 
       1.456947456991e+00       1.383471953337e-09 
       1.573135110893e+00       2.657617909705e-09 
       1.698621895119e+00       1.614845669054e-10 
       1.834127512423e+00       1.542585065077e-09 
       1.980444933977e+00       5.943715046564e-10 
       2.138435191130e+00       1.768832452263e-11 
       2.309029198543e+00       6.404039449360e-10 
       2.493232376993e+00       2.221647716955e-10 
       2.692130394536e+00       1.297541036632e-11 
       2.906895533764e+00       2.007907590206e-10 
       3.138793596840e+00       4.576743495796e-12 
       3.389191365541e+00       1.408502359244e-10 
       3.659564656886e+00       3.391048385787e-12 
       3.951507021438e+00       8.977111677853e-11 
       4.266739135513e+00       1.517079211383e-12 
       4.607118942658e+00       6.393231843774e-13 
       4.974652604172e+00       3.654056773272e-11 
       5.371506323193e+00       4.777590768025e-12 
       5.800019112071e+00       5.237035022931e-13 
       6.262716578240e+00       2.145793635348e-12 
       6.762325809881e+00       2.778223463594e-13 
       7.301791449077e+00       3.010191752369e-14 
       7.884293047211e+00       3.181388922071e-13 
       8.513263804891e+00       1.191510103641e-12 
       9.192410806865e+00       1.459740722831e-13 
       9.925736871166e+00       5.861222830968e-14 
       1.071756414128e+01       1.515025887976e-14 
       1.157255956041e+01       1.962111455989e-13 
       1.249576237789e+01       8.429917111327e-14 
       1.349261385000e+01       5.143871922406e-14 
       1.456898931011e+01       3.708018753981e-14 
       1.573123279727e+01       6.673009648890e-15 
       1.698619444729e+01       4.309992193935e-15 
       1.834127086665e+01       2.933333625180e-15 
       1.980444872733e+01       2.593890867737e-15 
       2.138435183937e+01       1.934016890937e-15 
       2.309029197863e+01       3.204085187516e-15 
       2.493232376942e+01       2.152681566116e-15 
       2.692130394533e+01       8.789540187233e-16 
       2.906895533764e+01       4.537677395237e-16 
       3.138793596840e+01       4.638206983680e-16 
       3.389191365541e+01       4.092940933115e-16 
       3.659564656886e+01       2.205630006251e-16 
       3.951507021438e+01       1.948598416225e-16 
       4.266739135513e+01       1.421188591160e-16 
       4.607118942658e+01       1.218242251763e-16 
       4.974652604172e+01       3.382369430148e-17 
       5.371506323193e+01       2.607529721698e-17 
       5.800019112071e+01       1.515308621177e-17 
       6.262716578240e+01       1.404750271907e-17 
       6.762325809881e+01       1.334392376898e-18 
