# Matter power spectrum P(k) at redshift z=0
# for k=1.04775e-05 to 66.1767 h/Mpc,
# number of wavenumbers equal to 130
#    1:k (h/Mpc)              2:P (Mpc/h)^3        
       1.047750691046e-05       5.020963702950e+01 
       1.319039970183e-05       6.270560957004e+01 
       1.660572937635e-05       7.831145051876e+01 
       2.090537469327e-05       9.780105473937e+01 
       2.631830744443e-05       1.221408120371e+02 
       3.313278603720e-05       1.525374314942e+02 
       4.171170630578e-05       1.904975912246e+02 
       5.251192703764e-05       2.379022174962e+02 
       6.610859936996e-05       2.970989205936e+02 
       8.322579568497e-05       3.710167326995e+02 
       1.047750691046e-04       4.633080767198e+02 
       1.319039970183e-04       5.785234112468e+02 
       1.660572937635e-04       7.223242624283e+02 
       2.090537469327e-04       9.017396148782e+02 
       2.631830744443e-04       1.125468086661e+03 
       3.313278603720e-04       1.404222948326e+03 
       4.171170630578e-04       1.751107720380e+03 
       5.251192703764e-04       2.181997548804e+03 
       6.610859936996e-04       2.715887340313e+03 
       8.322579568497e-04       3.375144576574e+03 
       1.047750691046e-03       4.185529515836e+03 
       1.319039970183e-03       5.175677301044e+03 
       1.660572937635e-03       6.375933409929e+03 
       2.090537469327e-03       7.815135014421e+03 
       2.631830744443e-03       9.516298773676e+03 
       3.313278603720e-03       1.148956830270e+04 
       4.171170630578e-03       1.372212714060e+04 
       5.251192703764e-03       1.616371756613e+04 
       6.610859936996e-03       1.870779703194e+04 
       8.322579568497e-03       2.116685503473e+04 
       1.047750691046e-02       2.323921958241e+04 
       1.319039970183e-02       2.447609919573e+04 
       1.660572937633e-02       2.426565425068e+04 
       2.090537453514e-02       2.191206009424e+04 
       2.631818545635e-02       1.696493576127e+04 
       3.311571692125e-02       9.982457417267e+03 
       4.113809243311e-02       3.597137363300e+03 
       4.792590854610e-02       8.108607764840e+02 
       5.284436902701e-02       8.660970237939e+01 
       5.689644391095e-02       1.155585257579e+01 
       6.051252627066e-02       1.471669244354e+02 
       6.388413457411e-02       3.242006312117e+02 
       6.711249296401e-02       4.678610008664e+02 
       7.025823437965e-02       5.473500924771e+02 
       7.336115587705e-02       5.565814802602e+02 
       7.644928796912e-02       5.046021130077e+02 
       7.954353299775e-02       4.094448128246e+02 
       8.266024078725e-02       2.933833589434e+02 
       8.581273398637e-02       1.787280571374e+02 
       8.901225918437e-02       8.442998471359e+01 
       9.226860540985e-02       2.327821921776e+01 
       9.559052048996e-02       2.663817279889e-01 
       9.898599946599e-02       1.227252294904e+01 
       1.024624891378e-01       4.919221914151e+01 
       1.060270359164e-01       9.644808639779e+01 
       1.096863943056e-01       1.384667794050e+02 
       1.134471073830e-01       1.624373275424e+02 
       1.173155669539e-01       1.614990973337e+02 
       1.212980586983e-01       1.364345331025e+02 
       1.254007961065e-01       9.529282078142e+01 
       1.296299459934e-01       5.080290594525e+01 
       1.339916477160e-01       1.617768930721e+01 
       1.384920277736e-01       5.513557649297e-01 
       1.431372111762e-01       5.688313376876e+00 
       1.479333307714e-01       2.536734268210e+01 
       1.528865355934e-01       4.799145953955e+01 
       1.580029992204e-01       6.163824767126e+01 
       1.632889290723e-01       5.947148493949e+01 
       1.687505775527e-01       4.293171772954e+01 
       1.743942559171e-01       2.078811952045e+01 
       1.802263517371e-01       4.205238931618e+00 
       1.862533508214e-01       3.201156221610e-01 
       1.924818644494e-01       8.154384680289e+00 
       1.989186627765e-01       1.959218824425e+01 
       2.055707152847e-01       2.512629833666e+01 
       2.124452391818e-01       2.066708055533e+01 
       2.195497567139e-01       1.007311150227e+01 
       2.268921624510e-01       1.531624796968e+00 
       2.344808017550e-01       6.085139575326e-01 
       2.423245618548e-01       5.615947699592e+00 
       2.504329772620e-01       9.884502649565e+00 
       2.588163516754e-01       8.676926577867e+00 
       2.674858990930e-01       3.607902606033e+00 
       2.764539076010e-01       1.586675216890e-01 
       2.857339303080e-01       1.045256175924e+00 
       2.953410092148e-01       3.526932470348e+00 
       3.052919395542e-01       3.616940957499e+00 
       3.156055844677e-01       1.360954839680e+00 
       3.263032530092e-01       3.829169968024e-03 
       3.374091587054e-01       7.799982220699e-01 
       3.489509817175e-01       1.528233960981e+00 
       3.609605657343e-01       8.011649941146e-01 
       3.734747921333e-01       1.778085631271e-02 
       3.865366902904e-01       3.006673542611e-01 
       4.001968667448e-01       5.463314979830e-01 
       4.145153713076e-01       1.489612684680e-01 
       4.295641718077e-01       2.693412273987e-02 
       4.454304922144e-01       1.985940216000e-01 
       4.622214006969e-01       7.166570109375e-02 
       4.800702491654e-01       1.205869129344e-02 
       4.991459272112e-01       6.527228872740e-02 
       5.196665217302e-01       3.597697635729e-03 
       5.419201087032e-01       1.975720848300e-02 
       5.662975451962e-01       3.790144584547e-03 
       5.933463737275e-01       6.230641630286e-03 
       6.238638458458e-01       5.039039650353e-05 
       6.590669257916e-01       1.237766761030e-03 
       7.009246080454e-01       5.103598158457e-04 
       7.528593308799e-01       1.475747687730e-04 
       8.213469537518e-01       7.514231377915e-06 
       9.196980813302e-01       9.624839114635e-07 
       1.075112183810e+00       1.651376961447e-08 
       1.322697471132e+00       5.911903628528e-12 
       1.662328205042e+00       1.592655963905e-09 
       2.092692408506e+00       1.671259925043e-10 
       2.634543445090e+00       1.884951933162e-11 
       3.316693691389e+00       1.401720121636e-13 
       4.175469971226e+00       1.296181366516e-12 
       5.256605252960e+00       1.173144399863e-13 
       6.617673932723e+00       3.470499963470e-16 
       8.331157880872e+00       5.857381718015e-17 
       1.048830636590e+01       4.333891812025e-19 
       1.320399541071e+01       5.052348277113e-20 
       1.662284535976e+01       3.483676818299e-22 
       2.092692243973e+01       3.406160362895e-21 
       2.634543445002e+01       3.530474465159e-22 
       3.316693691389e+01       9.138982027260e-23 
       4.175469971226e+01       2.960048764199e-24 
       5.256605252960e+01       4.616974095087e-25 
       6.617673932723e+01       5.094811535996e-25 
