# Matter power spectrum P(k) at redshift z=99
# for k=1.04775e-05 to 66.1767 h/Mpc,
# number of wavenumbers equal to 130
#    1:k (h/Mpc)              2:P (Mpc/h)^3        
       1.047750691046e-05       7.261927682290e-03 
       1.319039970183e-05       9.069258203640e-03 
       1.660572937635e-05       1.132639106948e-02 
       2.090537469327e-05       1.414527123677e-02 
       2.631830744443e-05       1.766569584406e-02 
       3.313278603720e-05       2.206225516375e-02 
       4.171170630578e-05       2.755297766815e-02 
       5.251192703764e-05       3.441013523628e-02 
       6.610859936996e-05       4.297372173621e-02 
       8.322579568497e-05       5.366826853993e-02 
       1.047750691046e-04       6.702379874087e-02 
       1.319039970183e-04       8.370193442924e-02 
       1.660572937635e-04       1.045283355588e-01 
       2.090537469327e-04       1.305329134357e-01 
       2.631830744443e-04       1.629994506918e-01 
       3.313278603720e-04       2.035264004990e-01 
       4.171170630578e-04       2.541004744720e-01 
       5.251192703764e-04       3.171839529138e-01 
       6.610859936996e-04       3.958147257204e-01 
       8.322579568497e-04       4.937136007077e-01 
       1.047750691046e-03       6.153841636909e-01 
       1.319039970183e-03       7.661720593674e-01 
       1.660572937635e-03       9.522588016895e-01 
       2.090537469327e-03       1.180312991612e+00 
       2.631830744443e-03       1.456802684235e+00 
       3.313278603720e-03       1.786503852675e+00 
       4.171170630578e-03       2.169896198663e+00 
       5.251192703764e-03       2.599430621541e+00 
       6.610859936996e-03       3.055668681244e+00 
       8.322579568497e-03       3.505725082997e+00 
       1.047750691046e-02       3.905492574607e+00 
       1.319039970183e-02       4.200915015550e+00 
       1.660572937633e-02       4.325061008557e+00 
       2.090537453514e-02       4.210205346571e+00 
       2.631818545635e-02       3.825147842559e+00 
       3.311571692125e-02       3.229060140612e+00 
       4.113809243311e-02       2.627715965246e+00 
       4.792590854610e-02       2.280782549564e+00 
       5.284436902701e-02       2.110072727846e+00 
       5.689644391095e-02       2.003525702012e+00 
       6.051252627066e-02       1.923041125939e+00 
       6.388413457411e-02       1.852714337136e+00 
       6.711249296401e-02       1.784543545353e+00 
       7.025823437965e-02       1.714259750102e+00 
       7.336115587705e-02       1.639791404136e+00 
       7.644928796912e-02       1.560637885554e+00 
       7.954353299775e-02       1.477434020209e+00 
       8.266024078725e-02       1.391671495448e+00 
       8.581273398637e-02       1.305438561085e+00 
       8.901225918437e-02       1.221100438198e+00 
       9.226860540985e-02       1.141056297850e+00 
       9.559052048996e-02       1.067430356097e+00 
       9.898599946599e-02       1.001863342269e+00 
       1.024624891378e-01       9.453535298379e-01 
       1.060270359164e-01       8.981217207130e-01 
       1.096863943056e-01       8.595851269753e-01 
       1.134471073830e-01       8.283762324116e-01 
       1.173155669539e-01       8.024355886491e-01 
       1.212980586983e-01       7.791962256904e-01 
       1.254007961065e-01       7.558851759071e-01 
       1.296299459934e-01       7.299481530749e-01 
       1.339916477160e-01       6.995579683964e-01 
       1.384920277736e-01       6.640426534684e-01 
       1.431372111762e-01       6.241098470506e-01 
       1.479333307714e-01       5.817276288256e-01 
       1.528865355934e-01       5.396570158591e-01 
       1.580029992204e-01       5.007774031699e-01 
       1.632889290723e-01       4.673607357657e-01 
       1.687505775527e-01       4.404964008902e-01 
       1.743942559171e-01       4.198273849282e-01 
       1.802263517371e-01       4.036201626985e-01 
       1.862533508214e-01       3.893199054540e-01 
       1.924818644494e-01       3.740945542460e-01 
       1.989186627765e-01       3.557604858748e-01 
       2.055707152847e-01       3.339583830304e-01 
       2.124452391818e-01       3.102244807728e-01 
       2.195497567139e-01       2.870808191450e-01 
       2.268921624510e-01       2.667665032978e-01 
       2.344808017550e-01       2.504418463087e-01 
       2.423245618548e-01       2.377908297246e-01 
       2.504329772620e-01       2.270686307992e-01 
       2.588163516754e-01       2.160734706350e-01 
       2.674858990930e-01       2.035014840550e-01 
       2.764539076010e-01       1.895535790412e-01 
       2.857339303080e-01       1.757130918504e-01 
       2.953410092148e-01       1.636551778163e-01 
       3.052919395542e-01       1.538618280413e-01 
       3.156055844677e-01       1.454860010017e-01 
       3.263032530092e-01       1.372046343695e-01 
       3.374091587054e-01       1.282567068229e-01 
       3.489509817175e-01       1.191264778341e-01 
       3.609605657343e-01       1.107624337253e-01 
       3.734747921333e-01       1.036000178077e-01 
       3.865366902904e-01       9.709624699751e-02 
       4.001968667448e-01       9.057019470249e-02 
       4.145153713076e-01       8.399198487506e-02 
       4.295641718077e-01       7.784617643814e-02 
       4.454304922144e-01       7.229674097056e-02 
       4.622214006969e-01       6.704864261609e-02 
       4.800702491654e-01       6.184672768596e-02 
       4.991459272112e-01       5.688146135879e-02 
       5.196665217302e-01       5.227145166867e-02 
       5.419201087032e-01       4.778794912779e-02 
       5.662975451962e-01       4.344249040287e-02 
       5.933463737275e-01       3.928682751488e-02 
       6.238638458458e-01       3.520945688549e-02 
       6.590669257916e-01       3.121938821562e-02 
       7.009246080454e-01       2.724433266242e-02 
       7.528593308799e-01       2.323596556420e-02 
       8.213469537518e-01       1.910643463656e-02 
       9.196980813302e-01       1.477626152040e-02 
       1.075112183810e+00       1.031180211250e-02 
       1.322697471132e+00       6.342734446465e-03 
       1.662328205042e+00       3.671806344467e-03 
       2.092692408506e+00       2.093670381005e-03 
       2.634543445090e+00       1.180130636407e-03 
       3.316693691389e+00       6.569042642491e-04 
       4.175469971226e+00       3.602947466619e-04 
       5.256605252960e+00       1.939444334591e-04 
       6.617673932723e+00       1.017889208435e-04 
       8.331157880872e+00       5.153540209295e-05 
       1.048830636590e+01       2.474308858261e-05 
       1.320399541071e+01       1.095345734504e-05 
       1.662284535976e+01       4.260282966069e-06 
       2.092692243973e+01       1.327380609780e-06 
       2.634543445002e+01       2.649747320772e-07 
       3.316693691389e+01       1.199734181575e-08 
       4.175469971226e+01       1.009809570160e-08 
       5.256605252960e+01       2.500795674067e-08 
       6.617673932723e+01       1.423486138827e-08 
