# Matter power spectrum P(k) at redshift z=0
# for k=1.04775e-05 to 67.6233 h/Mpc,
# number of wavenumbers equal to 246
#    1:k (h/Mpc)              2:P (Mpc/h)^3        
       1.047750691046e-05       5.020963362864e+01 
       1.131335172503e-05       5.407048731728e+01 
       1.221587619537e-05       5.822818203910e+01 
       1.319039970183e-05       6.270558734041e+01 
       1.424266597921e-05       6.752730244237e+01 
       1.537887696968e-05       7.271975827340e+01 
       1.660572937635e-05       7.831145081598e+01 
       1.793045413292e-05       8.433312199144e+01 
       1.936085902198e-05       9.081778427543e+01 
       2.090537469327e-05       9.780106133048e+01 
       2.257310435294e-05       1.053212727968e+02 
       2.437387741694e-05       1.134197153652e+02 
       2.631830744443e-05       1.221408114566e+02 
       2.841785469300e-05       1.315324484529e+02 
       3.068489366414e-05       1.416461561668e+02 
       3.313278603720e-05       1.525374301430e+02 
       3.577595942169e-05       1.642660381646e+02 
       3.862999239199e-05       1.768963329451e+02 
       4.171170630578e-05       1.904975915000e+02 
       4.503926444729e-05       2.051444194618e+02 
       4.863227907969e-05       2.209171340472e+02 
       5.251192703764e-05       2.379022184004e+02 
       5.670107454120e-05       2.561927779856e+02 
       6.122441196689e-05       2.758890444821e+02 
       6.610859936996e-05       2.970989218716e+02 
       7.138242361596e-05       3.199385561726e+02 
       7.707696804727e-05       3.445329740108e+02 
       8.322579568497e-05       3.710167331967e+02 
       8.986514704559e-05       3.995346448403e+02 
       9.703415373875e-05       4.302425393124e+02 
       1.047750691046e-04       4.633080770667e+02 
       1.131335172503e-04       4.989116274077e+02 
       1.221587619537e-04       5.372471936219e+02 
       1.319039970183e-04       5.785234112654e+02 
       1.424266597921e-04       6.229645920393e+02 
       1.537887696968e-04       6.708118466975e+02 
       1.660572937635e-04       7.223242635217e+02 
       1.793045413292e-04       7.777801520559e+02 
       1.936085902198e-04       8.374783546411e+02 
       2.090537469327e-04       9.017396166251e+02 
       2.257310435294e-04       9.709080111606e+02 
       2.437387741694e-04       1.045352426548e+03 
       2.631830744443e-04       1.125468090369e+03 
       2.841785469300e-04       1.211678133194e+03 
       3.068489366414e-04       1.304435179660e+03 
       3.313278603720e-04       1.404222953681e+03 
       3.577595942169e-04       1.511557876280e+03 
       3.862999239199e-04       1.626990635430e+03 
       4.171170630578e-04       1.751107734419e+03 
       4.503926444729e-04       1.884532959847e+03 
       4.863227907969e-04       2.027928769074e+03 
       5.251192703764e-04       2.181997574753e+03 
       5.670107454121e-04       2.347482844946e+03 
       6.122441196689e-04       2.525170065965e+03 
       6.610859936996e-04       2.715887389735e+03 
       7.138242361596e-04       2.920505963349e+03 
       7.707696804727e-04       3.139939751377e+03 
       8.322579568497e-04       3.375144675953e+03 
       8.986514704559e-04       3.627116861701e+03 
       9.703415373875e-04       3.896889735250e+03 
       1.047750691046e-03       4.185529722641e+03 
       1.131335172503e-03       4.494130356830e+03 
       1.221587619537e-03       4.823805025047e+03 
       1.319039970183e-03       5.175677697689e+03 
       1.424266597921e-03       5.550926680552e+03 
       1.537887696968e-03       5.950655647522e+03 
       1.660572937635e-03       6.375934229121e+03 
       1.793045413292e-03       6.827805888367e+03 
       1.936085902198e-03       7.307246128375e+03 
       2.090537469327e-03       7.815136559363e+03 
       2.257310435294e-03       8.352236928307e+03 
       2.437387741694e-03       8.919153276324e+03 
       2.631830744443e-03       9.516301912053e+03 
       2.841785469300e-03       1.014386876166e+04 
       3.068489366414e-03       1.080176465904e+04 
       3.313278603720e-03       1.148957462136e+04 
       3.577595942169e-03       1.220649816165e+04 
       3.862999239199e-03       1.295128056689e+04 
       4.171170630578e-03       1.372213986380e+04 
       4.503926444729e-03       1.451668678877e+04 
       4.863227907969e-03       1.533181792505e+04 
       5.251192703764e-03       1.616374848746e+04 
       5.670107454120e-03       1.700780917753e+04 
       6.122441196689e-03       1.785817600246e+04 
       6.610859936996e-03       1.870804552453e+04 
       7.138242361596e-03       1.954930432107e+04 
       7.707696804727e-03       2.037261644737e+04 
       8.322579568496e-03       2.116697585144e+04 
       8.986514704559e-03       2.191954172362e+04 
       9.703415373875e-03       2.261588942845e+04 
       1.047750691046e-02       2.323945431844e+04 
       1.131335172503e-02       2.377162237150e+04 
       1.221587619537e-02       2.419164906651e+04 
       1.319039970183e-02       2.447656036981e+04 
       1.424266597920e-02       2.460149365826e+04 
       1.537887696964e-02       2.454049712058e+04 
       1.660572937560e-02       2.426643349026e+04 
       1.793045412207e-02       2.375261576711e+04 
       1.936085889642e-02       2.297485917694e+04 
       2.090537351881e-02       2.191325779231e+04 
       2.257309534705e-02       2.055567601133e+04 
       2.437382002240e-02       1.890163286515e+04 
       2.631799943729e-02       1.696690446714e+04 
       2.841644544598e-02       1.478861586052e+04 
       3.067933354524e-02       1.243043519864e+04 
       3.311368469821e-02       9.986605847647e+03 
       3.571840442514e-02       7.582363663257e+03 
       3.847720347390e-02       5.364106671034e+03 
       4.135335537314e-02       3.473135147921e+03 
       4.429361666563e-02       2.006520716114e+03 
       4.724366437916e-02       9.881537166141e+02 
       5.016480834039e-02       3.726081311651e+02 
       5.303989618930e-02       7.474685477052e+01 
       5.586870668205e-02       1.954610086180e-01 
       5.866042679206e-02       6.325430431171e+01 
       6.142798931504e-02       1.938538079277e+02 
       6.418496438662e-02       3.388205340976e+02 
       6.694418832236e-02       4.610497913578e+02 
       6.971731104453e-02       5.380560596955e+02 
       7.251476154108e-02       5.602146811465e+02 
       7.534587669814e-02       5.288478102518e+02 
       7.821907664495e-02       4.538226015203e+02 
       8.114203771084e-02       3.508971696114e+02 
       8.412184533139e-02       2.386660924852e+02 
       8.716512277352e-02       1.354280032615e+02 
       9.027813693913e-02       5.625415159982e+01 
       9.346688429613e-02       1.058492660650e+01 
       9.673716026122e-02       7.753824563446e-01 
       1.000946150608e-01       2.191065971514e+01 
       1.035447986307e-01       6.302671364403e+01 
       1.070931966524e-01       1.096375682219e+02 
       1.107452594180e-01       1.471443103746e+02 
       1.145064248899e-01       1.644047569282e+02 
       1.183821370656e-01       1.565834459936e+02 
       1.223778605591e-01       1.264104943811e+02 
       1.264990921707e-01       8.330720021039e+01 
       1.307513701078e-01       4.039575421616e+01 
       1.351402814485e-01       1.014951799836e+01 
       1.396714683894e-01       6.040163820265e-03 
       1.443506337875e-01       9.653771070947e+00 
       1.491835464900e-01       3.119691397013e+01 
       1.541760469368e-01       5.248394230359e+01 
       1.593340535209e-01       6.244888398783e+01 
       1.646635701934e-01       5.620779190211e+01 
       1.701706958081e-01       3.729847900134e+01 
       1.758616357070e-01       1.563964494000e+01 
       1.817427160581e-01       1.913734795496e+00 
       1.878204014651e-01       1.405188544037e+00 
       1.941013163855e-01       1.104072903658e+01 
       2.005922709060e-01       2.172093525491e+01 
       2.073002914514e-01       2.479097819616e+01 
       2.142326570343e-01       1.818703777213e+01 
       2.213969417044e-01       7.376489447607e+00 
       2.288010639201e-01       5.133802696964e-01 
       2.364533436625e-01       1.520409176362e+00 
       2.443625682390e-01       6.980046744265e+00 
       2.525380678946e-01       1.007681062186e+01 
       2.609898025770e-01       7.521348938519e+00 
       2.697284614969e-01       2.378937398572e+00 
       2.787655775073e-01       3.083926321177e-04 
       2.881136588192e-01       1.677610369151e+00 
       2.977863412019e-01       3.823053597695e+00 
       3.077985646248e-01       3.149929061103e+00 
       3.181667793367e-01       8.348245799621e-01 
       3.289091877084e-01       3.648672127123e-02 
       3.400460298905e-01       1.039601551419e+00 
       3.515999235695e-01       1.463396225982e+00 
       3.635962710278e-01       5.646351828052e-01 
       3.760637505499e-01       5.280666539608e-04 
       3.890349143014e-01       3.870666696318e-01 
       4.025469215929e-01       5.026922890868e-01 
       4.166424455447e-01       9.488543504035e-02 
       4.313708034899e-01       4.577533033217e-02 
       4.467893781976e-01       1.969751692685e-01 
       4.629654198623e-01       6.377235615506e-02 
       4.799783500912e-01       1.105125997977e-02 
       4.979227318246e-01       6.526642647071e-02 
       5.169121269689e-01       9.234615357346e-03 
       5.370841403262e-01       1.353902426674e-02 
       5.586070463286e-01       1.227712748897e-02 
       5.816885093582e-01       1.520836501160e-03 
       6.065870143577e-01       4.712444884014e-03 
       6.336266466978e-01       5.721227202044e-04 
       6.632156057925e-01       7.916979659968e-04 
       6.958678637575e-01       4.701976289948e-04 
       7.322247983784e-01       1.349428226240e-05 
       7.730680193171e-01       1.558926452033e-05 
       8.193049551574e-01       1.115500284677e-05 
       8.718988013754e-01       2.230076543219e-06 
       9.317218028590e-01       6.196467575240e-09 
       9.993660906273e-01       7.743508990583e-09 
       1.075037109879e+00       1.593628596437e-08 
       1.158653485387e+00       1.300040721722e-09 
       1.250099156961e+00       8.572062597405e-09 
       1.349432400897e+00       3.715579822477e-09 
       1.456947456991e+00       3.377333145891e-10 
       1.573135110893e+00       1.133389649269e-09 
       1.698621895119e+00       8.735290095464e-12 
       1.834127512423e+00       3.484639831095e-10 
       1.980444933977e+00       8.387422566300e-11 
       2.138435191130e+00       2.514950788584e-11 
       2.309029198543e+00       6.042750987654e-10 
       2.493232376993e+00       1.196140710939e-12 
       2.692130394536e+00       1.660962133791e-13 
       2.906895533764e+00       8.909002158840e-12 
       3.138793596840e+00       9.605619655759e-12 
       3.389191365541e+00       1.566572346341e-11 
       3.659564656886e+00       3.688045195030e-12 
       3.951507021438e+00       3.855521002900e-12 
       4.266739135513e+00       2.411201728422e-15 
       4.607118942658e+00       2.691314806952e-13 
       4.974652604172e+00       6.756721096135e-13 
       5.371506323193e+00       5.873284391417e-15 
       5.800019112071e+00       4.249433167722e-15 
       6.262716578240e+00       5.746548469191e-16 
       6.762325809881e+00       9.707436702747e-14 
       7.301791449077e+00       4.836582850480e-14 
       7.884293047211e+00       1.108892354850e-14 
       8.513263804891e+00       4.477987788773e-17 
       9.192410806865e+00       5.072679638021e-15 
       9.925736871166e+00       1.046205439639e-16 
       1.071756414128e+01       2.139292997732e-17 
       1.157255956041e+01       1.485485585834e-16 
       1.249576237789e+01       2.130646257914e-17 
       1.349261385000e+01       4.334588736154e-18 
       1.456898931011e+01       4.806647202209e-18 
       1.573123279727e+01       2.537928573905e-19 
       1.698619444729e+01       8.870114078263e-19 
       1.834127086665e+01       5.834419701845e-19 
       1.980444872733e+01       1.251405389659e-19 
       2.138435183937e+01       4.772594494533e-21 
       2.309029197863e+01       3.282841069613e-20 
       2.493232376942e+01       7.167811211448e-20 
       2.692130394533e+01       1.618234921105e-20 
       2.906895533764e+01       4.066508105455e-22 
       3.138793596840e+01       5.512278836825e-22 
       3.389191365541e+01       3.198354314120e-22 
       3.659564656886e+01       3.435114587331e-22 
       3.951507021438e+01       1.091395420566e-22 
       4.266739135513e+01       2.494535818432e-22 
       4.607118942658e+01       5.904787330405e-23 
       4.974652604172e+01       2.738514561241e-23 
       5.371506323193e+01       1.465660247735e-23 
       5.800019112071e+01       6.980801255771e-24 
       6.262716578240e+01       4.857561821368e-24 
       6.762325809881e+01       9.073680158699e-26 
