# Matter power spectrum P(k) at redshift z=0
# for k=1.04775e-05 to 66.1767 h/Mpc,
# number of wavenumbers equal to 130
#    1:k (h/Mpc)              2:P (Mpc/h)^3        
       1.047750691046e-05       5.020964973844e+01 
       1.319039970183e-05       6.270561296373e+01 
       1.660572937635e-05       7.831146381738e+01 
       2.090537469327e-05       9.780106952544e+01 
       2.631830744443e-05       1.221408335168e+02 
       3.313278603720e-05       1.525374378613e+02 
       4.171170630578e-05       1.904976068384e+02 
       5.251192703764e-05       2.379022339694e+02 
       6.610859936996e-05       2.970989216687e+02 
       8.322579568497e-05       3.710167330548e+02 
       1.047750691046e-04       4.633080774482e+02 
       1.319039970183e-04       5.785234118968e+02 
       1.660572937635e-04       7.223242658873e+02 
       2.090537469327e-04       9.017396240076e+02 
       2.631830744443e-04       1.125468114305e+03 
       3.313278603720e-04       1.404223025528e+03 
       4.171170630578e-04       1.751107940564e+03 
       5.251192703764e-04       2.181998182687e+03 
       6.610859936996e-04       2.715889188350e+03 
       8.322579568497e-04       3.375149969144e+03 
       1.047750691046e-03       4.185545198192e+03 
       1.319039970183e-03       5.175722431552e+03 
       1.660572937635e-03       6.376061651029e+03 
       2.090537469327e-03       7.815493667235e+03 
       2.631830744443e-03       9.517283258165e+03 
       3.313278603720e-03       1.149221165891e+04 
       4.171170630578e-03       1.372904432416e+04 
       5.251192703764e-03       1.618131034697e+04 
       6.610859936996e-03       1.875127140333e+04 
       8.322579568497e-03       2.126958964738e+04 
       1.047750691046e-02       2.347350095231e+04 
       1.319039970183e-02       2.498583202152e+04 
       1.660572937633e-02       2.531422213430e+04 
       2.090537453514e-02       2.391799188286e+04 
       2.631818545635e-02       2.043030327604e+04 
       3.311571692125e-02       1.510164715318e+04 
       4.113809243311e-02       9.462618354210e+03 
       4.792590854610e-02       5.986215880248e+03 
       5.284436902701e-02       4.208206535400e+03 
       5.689644391095e-02       3.124490089411e+03 
       6.051252627066e-02       2.385186246353e+03 
       6.388413457411e-02       1.846231121343e+03 
       6.711249296401e-02       1.435695507954e+03 
       7.025823437965e-02       1.113227380109e+03 
       7.336115587705e-02       8.543661734610e+02 
       7.644928796912e-02       6.438559335997e+02 
       7.954353299775e-02       4.719475954478e+02 
       8.266024078725e-02       3.324386785111e+02 
       8.581273398637e-02       2.213155260847e+02 
       8.901225918437e-02       1.357748800558e+02 
       9.226860540985e-02       7.352176398364e+01 
       9.559052048996e-02       3.217447433406e+01 
       9.898599946599e-02       8.910269911026e+00 
       1.024624891378e-01       3.109047045077e-01 
       1.060270359164e-01       2.450459325359e+00 
       1.096863943056e-01       1.119858606110e+01 
       1.134471073830e-01       2.265877271674e+01 
       1.173155669539e-01       3.362970419964e+01 
       1.212980586983e-01       4.195231866909e+01 
       1.254007961065e-01       4.664738242439e+01 
       1.296299459934e-01       4.779242130808e+01 
       1.339916477160e-01       4.618764699366e+01 
       1.384920277736e-01       4.292883132236e+01 
       1.431372111762e-01       3.902784909097e+01 
       1.479333307714e-01       3.517649625469e+01 
       1.528865355934e-01       3.166920965812e+01 
       1.580029992204e-01       2.844747352742e+01 
       1.632889290723e-01       2.522189261062e+01 
       1.687505775527e-01       2.165112135512e+01 
       1.743942559171e-01       1.754551651655e+01 
       1.802263517371e-01       1.303401904558e+01 
       1.862533508214e-01       8.565998909100e+00 
       1.924818644494e-01       4.746830260742e+00 
       1.989186627765e-01       2.077618514357e+00 
       2.055707152847e-01       6.251844177607e-01 
       2.124452391818e-01       7.466764639784e-02 
       2.195497567139e-01       9.604250113374e-03 
       2.268921624510e-01       1.148342321511e-01 
       2.344808017550e-01       2.445453338128e-01 
       2.423245618548e-01       3.835450496232e-01 
       2.504329772620e-01       5.466772773106e-01 
       2.588163516754e-01       7.162528019875e-01 
       2.674858990930e-01       8.365873037353e-01 
       2.764539076010e-01       8.275378013340e-01 
       2.857339303080e-01       6.693955583742e-01 
       2.953410092148e-01       4.496916304865e-01 
       3.052919395542e-01       2.594871055463e-01 
       3.156055844677e-01       1.369941068417e-01 
       3.263032530092e-01       6.954101058116e-02 
       3.374091587054e-01       2.873856528555e-02 
       3.489509817175e-01       5.530662234440e-03 
       3.609605657343e-01       4.927215805400e-04 
       3.734747921333e-01       9.426334315832e-03 
       3.865366902904e-01       1.864820360601e-02 
       4.001968667448e-01       2.097947773970e-02 
       4.145153713076e-01       1.974692140155e-02 
       4.295641718077e-01       1.671151968489e-02 
       4.454304922144e-01       1.199755132391e-02 
       4.622214006969e-01       6.062065692909e-03 
       4.800702491654e-01       1.921660864517e-03 
       4.991459272112e-01       3.187587231381e-04 
       5.196665217302e-01       5.145615475374e-06 
       5.419201087032e-01       2.848373823568e-04 
       5.662975451962e-01       4.645745025553e-04 
       5.933463737275e-01       3.538112052181e-04 
       6.238638458458e-01       1.381673905726e-04 
       6.590669257916e-01       8.462674188127e-06 
       7.009246080454e-01       1.443930667393e-05 
       7.528593308799e-01       2.998638309125e-05 
       8.213469537518e-01       7.046952733354e-06 
       9.196980813302e-01       1.870935898895e-08 
       1.075112183810e+00       2.495328394868e-07 
       1.322697471132e+00       6.413242473840e-08 
       1.662328205042e+00       2.447368502688e-08 
       2.092692408506e+00       6.305336378494e-09 
       2.634543445090e+00       2.197004961323e-09 
       3.316693691389e+00       7.135105779570e-10 
       4.175469971226e+00       2.860203459562e-10 
       5.256605252960e+00       9.392116404431e-11 
       6.617673932723e+00       2.727435321239e-11 
       8.331157880872e+00       9.490436301679e-12 
       1.048830636590e+01       2.903976993465e-12 
       1.320399541071e+01       1.005050256424e-12 
       1.662284535976e+01       3.230063914529e-13 
       2.092692243973e+01       9.906474740289e-14 
       2.634543445002e+01       3.619627764005e-14 
       3.316693691389e+01       9.001767782889e-15 
       4.175469971226e+01       3.115388955371e-15 
       5.256605252960e+01       9.628691777070e-16 
       6.617673932723e+01       1.883449643361e-16 
