# Matter power spectrum P(k) at redshift z=99
# for k=1.04775e-05 to 66.1767 h/Mpc,
# number of wavenumbers equal to 130
#    1:k (h/Mpc)              2:P (Mpc/h)^3        
       1.047750691046e-05       7.261929188083e-03 
       1.319039970183e-05       9.069260090890e-03 
       1.660572937635e-05       1.132639517762e-02 
       2.090537469327e-05       1.414527189126e-02 
       2.631830744443e-05       1.766569936112e-02 
       3.313278603720e-05       2.206225972403e-02 
       4.171170630578e-05       2.755298332928e-02 
       5.251192703764e-05       3.441014236404e-02 
       6.610859936996e-05       4.297373063203e-02 
       8.322579568497e-05       5.366828019034e-02 
       1.047750691046e-04       6.702381260080e-02 
       1.319039970183e-04       8.370195099163e-02 
       1.660572937635e-04       1.045283570866e-01 
       2.090537469327e-04       1.305329401794e-01 
       2.631830744443e-04       1.629994832146e-01 
       3.313278603720e-04       2.035264410786e-01 
       4.171170630578e-04       2.541005245756e-01 
       5.251192703764e-04       3.171840140068e-01 
       6.610859936996e-04       3.958147981233e-01 
       8.322579568497e-04       4.937136846234e-01 
       1.047750691046e-03       6.153842543702e-01 
       1.319039970183e-03       7.661721437089e-01 
       1.660572937635e-03       9.522588471785e-01 
       2.090537469327e-03       1.180312884859e+00 
       2.631830744443e-03       1.456802143388e+00 
       3.313278603720e-03       1.786502194978e+00 
       4.171170630578e-03       2.169891731567e+00 
       5.251192703764e-03       2.599419064882e+00 
       6.610859936996e-03       3.055639230846e+00 
       8.322579568497e-03       3.505652110446e+00 
       1.047750691046e-02       3.905313881012e+00 
       1.319039970183e-02       4.200502234840e+00 
       1.660572937633e-02       4.324132382567e+00 
       2.090537453514e-02       4.208211116866e+00 
       2.631818545635e-02       3.821128506283e+00 
       3.311571692125e-02       3.221548485292e+00 
       4.113809243311e-02       2.615178713720e+00 
       4.792590854610e-02       2.263565440695e+00 
       5.284436902701e-02       2.089367031231e+00 
       5.689644391095e-02       1.979944855502e+00 
       6.051252627066e-02       1.896957713243e+00 
       6.388413457411e-02       1.824400500433e+00 
       6.711249296401e-02       1.754206888189e+00 
       7.025823437965e-02       1.682079204356e+00 
       7.336115587705e-02       1.605943230500e+00 
       7.644928796912e-02       1.525263371183e+00 
       7.954353299775e-02       1.440653787753e+00 
       8.266024078725e-02       1.353588240963e+00 
       8.581273398637e-02       1.266112801738e+00 
       8.901225918437e-02       1.180573226194e+00 
       9.226860540985e-02       1.099318152958e+00 
       9.559052048996e-02       1.024439043126e+00 
       9.898599946599e-02       9.575465683482e-01 
       1.024624891378e-01       8.995950890151e-01 
       1.060270359164e-01       8.507844791197e-01 
       1.096863943056e-01       8.105343053419e-01 
       1.134471073830e-01       7.774969909432e-01 
       1.173155669539e-01       7.496683892449e-01 
       1.212980586983e-01       7.245626838443e-01 
       1.254007961065e-01       6.994954930576e-01 
       1.296299459934e-01       6.720200582103e-01 
       1.339916477160e-01       6.403800422497e-01 
       1.384920277736e-01       6.039427948840e-01 
       1.431372111762e-01       5.633984176523e-01 
       1.479333307714e-01       5.206291626733e-01 
       1.528865355934e-01       4.782761554183e-01 
       1.580029992204e-01       4.390572667667e-01 
       1.632889290723e-01       4.050942797841e-01 
       1.687505775527e-01       3.773839397782e-01 
       1.743942559171e-01       3.555720075165e-01 
       1.802263517371e-01       3.380224306752e-01 
       1.862533508214e-01       3.224102290446e-01 
       1.924818644494e-01       3.061431541152e-01 
       1.989186627765e-01       2.872536241160e-01 
       2.055707152847e-01       2.654308278522e-01 
       2.124452391818e-01       2.420714550181e-01 
       2.195497567139e-01       2.194235980871e-01 
       2.268921624510e-01       1.994450002004e-01 
       2.344808017550e-01       1.831221362196e-01 
       2.423245618548e-01       1.701415299822e-01 
       2.504329772620e-01       1.590146388215e-01 
       2.588163516754e-01       1.478838181309e-01 
       2.674858990930e-01       1.356753879313e-01 
       2.764539076010e-01       1.225668365447e-01 
       2.857339303080e-01       1.097670332815e-01 
       2.953410092148e-01       9.859472379255e-02 
       3.052919395542e-01       8.940082040124e-02 
       3.156055844677e-01       8.151447246393e-02 
       3.263032530092e-01       7.392965282420e-02 
       3.374091587054e-01       6.608770740135e-02 
       3.489509817175e-01       5.834304486572e-02 
       3.609605657343e-01       5.135826887593e-02 
       3.734747921333e-01       4.541380410771e-02 
       3.865366902904e-01       4.012986058599e-02 
       4.001968667448e-01       3.505748357261e-02 
       4.145153713076e-01       3.017706799769e-02 
       4.295641718077e-01       2.577679939355e-02 
       4.454304922144e-01       2.193879552539e-02 
       4.622214006969e-01       1.848715402896e-02 
       4.800702491654e-01       1.528081342876e-02 
       4.991459272112e-01       1.241124741133e-02 
       5.196665217302e-01       9.927537076295e-03 
       5.419201087032e-01       7.721925293108e-03 
       5.662975451962e-01       5.796571187393e-03 
       5.933463737275e-01       4.170030597608e-03 
       6.238638458458e-01       2.805571572332e-03 
       6.590669257916e-01       1.711542172451e-03 
       7.009246080454e-01       8.805938214471e-04 
       7.528593308799e-01       3.199996728969e-04 
       8.213469537518e-01       3.694214183725e-05 
       9.196980813302e-01       2.710661899735e-05 
       1.075112183810e+00       1.913868012484e-04 
       1.322697471132e+00       2.317634290436e-04 
       1.662328205042e+00       8.189870704447e-05 
       2.092692408506e+00       3.597536022691e-06 
       2.634543445090e+00       1.919860313191e-06 
       3.316693691389e+00       9.550958698205e-07 
       4.175469971226e+00       2.292926239651e-09 
       5.256605252960e+00       1.856918354882e-08 
       6.617673932723e+00       2.970559423344e-10 
       8.331157880872e+00       3.290549858305e-12 
       1.048830636590e+01       5.997383457964e-12 
       1.320399541071e+01       2.295692373064e-13 
       1.662284535976e+01       2.131404645938e-13 
       2.092692243973e+01       7.426705329457e-14 
       2.634543445002e+01       2.485316936910e-14 
       3.316693691389e+01       7.359856540096e-15 
       4.175469971226e+01       1.840039271485e-15 
       5.256605252960e+01       3.542885625759e-16 
       6.617673932723e+01       4.334868999941e-17 
