# Matter power spectrum P(k) at redshift z=0
# for k=1.04775e-05 to 66.1767 h/Mpc,
# number of wavenumbers equal to 130
#    1:k (h/Mpc)              2:P (Mpc/h)^3        
       1.047750691046e-05       5.020957118157e+01 
       1.319039970183e-05       6.270558927222e+01 
       1.660572937635e-05       7.831145437699e+01 
       2.090537469327e-05       9.780106028047e+01 
       2.631830744443e-05       1.221408077308e+02 
       3.313278603720e-05       1.525374291231e+02 
       4.171170630578e-05       1.904975924960e+02 
       5.251192703764e-05       2.379022182026e+02 
       6.610859936996e-05       2.970989212744e+02 
       8.322579568497e-05       3.710167336774e+02 
       1.047750691046e-04       4.633080772396e+02 
       1.319039970183e-04       5.785234115231e+02 
       1.660572937635e-04       7.223242628406e+02 
       2.090537469327e-04       9.017396161833e+02 
       2.631830744443e-04       1.125468086612e+03 
       3.313278603720e-04       1.404222949739e+03 
       4.171170630578e-04       1.751107723483e+03 
       5.251192703764e-04       2.181997552038e+03 
       6.610859936996e-04       2.715887346798e+03 
       8.322579568497e-04       3.375144581974e+03 
       1.047750691046e-03       4.185529535213e+03 
       1.319039970183e-03       5.175677353344e+03 
       1.660572937635e-03       6.375933518318e+03 
       2.090537469327e-03       7.815135187230e+03 
       2.631830744443e-03       9.516299118335e+03 
       3.313278603720e-03       1.148956905000e+04 
       4.171170630578e-03       1.372212846877e+04 
       5.251192703764e-03       1.616372088606e+04 
       6.610859936996e-03       1.870782346288e+04 
       8.322579568497e-03       2.116688471088e+04 
       1.047750691046e-02       2.323925480572e+04 
       1.319039970183e-02       2.447609676226e+04 
       1.660572937633e-02       2.426572043342e+04 
       2.090537453514e-02       2.191216337859e+04 
       2.631818545635e-02       1.696504443979e+04 
       3.311571692125e-02       9.982568480799e+03 
       4.113809243311e-02       3.597219580831e+03 
       4.792590854610e-02       8.109014855839e+02 
       5.284436902701e-02       8.662543356205e+01 
       5.689644391095e-02       1.155160080725e+01 
       6.051252627066e-02       1.471572671892e+02 
       6.388413457411e-02       3.241888769312e+02 
       6.711249296401e-02       4.678438257583e+02 
       7.025823437965e-02       5.473397943736e+02 
       7.336115587705e-02       5.565807292685e+02 
       7.644928796912e-02       5.046089056045e+02 
       7.954353299775e-02       4.094566283239e+02 
       8.266024078725e-02       2.933848075279e+02 
       8.581273398637e-02       1.787386442273e+02 
       8.901225918437e-02       8.443898429963e+01 
       9.226860540985e-02       2.328290599658e+01 
       9.559052048996e-02       2.668897401599e-01 
       9.898599946599e-02       1.226942645467e+01 
       1.024624891378e-01       4.918649273175e+01 
       1.060270359164e-01       9.644057173196e+01 
       1.096863943056e-01       1.384587599746e+02 
       1.134471073830e-01       1.624329492164e+02 
       1.173155669539e-01       1.614977051775e+02 
       1.212980586983e-01       1.364366397691e+02 
       1.254007961065e-01       9.529631750689e+01 
       1.296299459934e-01       5.080709768386e+01 
       1.339916477160e-01       1.618054632671e+01 
       1.384920277736e-01       5.518923258456e-01 
       1.431372111762e-01       5.686294664972e+00 
       1.479333307714e-01       2.536432702732e+01 
       1.528865355934e-01       4.798864818552e+01 
       1.580029992204e-01       6.163569378085e+01 
       1.632889290723e-01       5.947151691102e+01 
       1.687505775527e-01       4.293321981949e+01 
       1.743942559171e-01       2.079084881232e+01 
       1.802263517371e-01       4.206376012165e+00 
       1.862533508214e-01       3.197646780166e-01 
       1.924818644494e-01       8.152933501563e+00 
       1.989186627765e-01       1.959094452393e+01 
       2.055707152847e-01       2.512648385804e+01 
       2.124452391818e-01       2.066804502268e+01 
       2.195497567139e-01       1.007453539003e+01 
       2.268921624510e-01       1.532261285595e+00 
       2.344808017550e-01       6.081396514392e-01 
       2.423245618548e-01       5.615271046702e+00 
       2.504329772620e-01       9.884404133796e+00 
       2.588163516754e-01       8.677649944045e+00 
       2.674858990930e-01       3.608746498587e+00 
       2.764539076010e-01       1.588610687112e-01 
       2.857339303080e-01       1.044934990457e+00 
       2.953410092148e-01       3.526811104800e+00 
       3.052919395542e-01       3.617427884197e+00 
       3.156055844677e-01       1.361488056631e+00 
       3.263032530092e-01       3.856329130895e-03 
       3.374091587054e-01       7.798855280945e-01 
       3.489509817175e-01       1.528394939233e+00 
       3.609605657343e-01       8.014819811665e-01 
       3.734747921333e-01       1.782317388261e-02 
       3.865366902904e-01       3.006363862551e-01 
       4.001968667448e-01       5.464662104269e-01 
       4.145153713076e-01       1.490703340082e-01 
       4.295641718077e-01       2.690759772322e-02 
       4.454304922144e-01       1.986390978939e-01 
       4.622214006969e-01       7.172693781875e-02 
       4.800702491654e-01       1.204452582401e-02 
       4.991459272112e-01       6.530084972883e-02 
       5.196665217302e-01       3.606599692690e-03 
       5.419201087032e-01       1.976098617844e-02 
       5.662975451962e-01       3.796957746823e-03 
       5.933463737275e-01       6.232435732376e-03 
       6.238638458458e-01       5.083693306391e-05 
       6.590669257916e-01       1.239459721263e-03 
       7.009246080454e-01       5.107004766447e-04 
       7.528593308799e-01       1.477358867471e-04 
       8.213469537518e-01       7.547670825335e-06 
       9.196980813302e-01       9.669922197448e-07 
       1.075112183810e+00       1.699216691452e-08 
       1.322697471132e+00       6.002433893613e-12 
       1.662328205042e+00       1.620260585092e-09 
       2.092692408506e+00       1.720407615607e-10 
       2.634543445090e+00       1.981988874667e-11 
       3.316693691389e+00       1.441765255324e-13 
       4.175469971226e+00       1.432653392816e-12 
       5.256605252960e+00       1.422496579895e-13 
       6.617673932723e+00       5.326242851125e-16 
       8.331157880872e+00       8.485353080674e-17 
       1.048830636590e+01       9.417341530167e-20 
       1.320399541071e+01       3.915834668292e-20 
       1.662284535976e+01       5.031880581244e-20 
       2.092692243973e+01       1.995271667266e-22 
       2.634543445002e+01       2.528455985753e-22 
       3.316693691389e+01       2.151373221776e-23 
       4.175469971226e+01       4.954536954014e-24 
       5.256605252960e+01       6.235570118859e-25 
       6.617673932723e+01       2.724665248013e-25 
