# Matter power spectrum P(k) at redshift z=0
# for k=1.04775e-05 to 67.6233 h/Mpc,
# number of wavenumbers equal to 246
#    1:k (h/Mpc)              2:P (Mpc/h)^3        
       1.047750691046e-05       5.020960266902e+01 
       1.131335172503e-05       5.407048041909e+01 
       1.221587619537e-05       5.822820083733e+01 
       1.319039970183e-05       6.270560846684e+01 
       1.424266597921e-05       6.752729988821e+01 
       1.537887696968e-05       7.271975602579e+01 
       1.660572937635e-05       7.831145881830e+01 
       1.793045413292e-05       8.433312028813e+01 
       1.936085902198e-05       9.081779038687e+01 
       2.090537469327e-05       9.780106682000e+01 
       2.257310435294e-05       1.053212778549e+02 
       2.437387741694e-05       1.134197116340e+02 
       2.631830744443e-05       1.221408113327e+02 
       2.841785469300e-05       1.315324466173e+02 
       3.068489366414e-05       1.416461547813e+02 
       3.313278603720e-05       1.525374364451e+02 
       3.577595942169e-05       1.642660426894e+02 
       3.862999239199e-05       1.768963410235e+02 
       4.171170630578e-05       1.904975932608e+02 
       4.503926444729e-05       2.051444209725e+02 
       4.863227907969e-05       2.209171338581e+02 
       5.251192703764e-05       2.379022231964e+02 
       5.670107454120e-05       2.561927792702e+02 
       6.122441196689e-05       2.758890473488e+02 
       6.610859936996e-05       2.970989220036e+02 
       7.138242361596e-05       3.199385569550e+02 
       7.707696804727e-05       3.445329746164e+02 
       8.322579568497e-05       3.710167332905e+02 
       8.986514704559e-05       3.995346452495e+02 
       9.703415373875e-05       4.302425393251e+02 
       1.047750691046e-04       4.633080772634e+02 
       1.131335172503e-04       4.989116275242e+02 
       1.221587619537e-04       5.372471941262e+02 
       1.319039970183e-04       5.785234113741e+02 
       1.424266597921e-04       6.229645923907e+02 
       1.537887696968e-04       6.708118466619e+02 
       1.660572937635e-04       7.223242642503e+02 
       1.793045413292e-04       7.777801531655e+02 
       1.936085902198e-04       8.374783555503e+02 
       2.090537469327e-04       9.017396174535e+02 
       2.257310435294e-04       9.709080121050e+02 
       2.437387741694e-04       1.045352427767e+03 
       2.631830744443e-04       1.125468092298e+03 
       2.841785469300e-04       1.211678134918e+03 
       3.068489366414e-04       1.304435182407e+03 
       3.313278603720e-04       1.404222959699e+03 
       3.577595942169e-04       1.511557882891e+03 
       3.862999239199e-04       1.626990644080e+03 
       4.171170630578e-04       1.751107742932e+03 
       4.503926444729e-04       1.884532974829e+03 
       4.863227907969e-04       2.027928790149e+03 
       5.251192703764e-04       2.181997598214e+03 
       5.670107454121e-04       2.347482876401e+03 
       6.122441196689e-04       2.525170106545e+03 
       6.610859936996e-04       2.715887440141e+03 
       7.138242361596e-04       2.920506032541e+03 
       7.707696804727e-04       3.139939837026e+03 
       8.322579568497e-04       3.375144787292e+03 
       8.986514704559e-04       3.627117012306e+03 
       9.703415373875e-04       3.896889937991e+03 
       1.047750691046e-03       4.185529984904e+03 
       1.131335172503e-03       4.494130719843e+03 
       1.221587619537e-03       4.823805502269e+03 
       1.319039970183e-03       5.175678343638e+03 
       1.424266597921e-03       5.550927555726e+03 
       1.537887696968e-03       5.950656798976e+03 
       1.660572937635e-03       6.375935799869e+03 
       1.793045413292e-03       6.827808050962e+03 
       1.936085902198e-03       7.307249037179e+03 
       2.090537469327e-03       7.815140602990e+03 
       2.257310435294e-03       8.352242343847e+03 
       2.437387741694e-03       8.919160636815e+03 
       2.631830744443e-03       9.516312009970e+03 
       2.841785469300e-03       1.014388250164e+04 
       3.068489366414e-03       1.080178338745e+04 
       3.313278603720e-03       1.148960011502e+04 
       3.577595942169e-03       1.220653275082e+04 
       3.862999239199e-03       1.295132768586e+04 
       4.171170630578e-03       1.372220372765e+04 
       4.503926444729e-03       1.451677352569e+04 
       4.863227907969e-03       1.533193558801e+04 
       5.251192703764e-03       1.616390753603e+04 
       5.670107454120e-03       1.700801941535e+04 
       6.122441196689e-03       1.785845576389e+04 
       6.610859936996e-03       1.870842110150e+04 
       7.138242361596e-03       1.954986162214e+04 
       7.707696804727e-03       2.037332464864e+04 
       8.322579568496e-03       2.116785941806e+04 
       8.986514704559e-03       2.192071732098e+04 
       9.703415373875e-03       2.261741336594e+04 
       1.047750691046e-02       2.324143912953e+04 
       1.131335172503e-02       2.377420886369e+04 
       1.221587619537e-02       2.419489902716e+04 
       1.319039970183e-02       2.448074877604e+04 
       1.424266597920e-02       2.460695668406e+04 
       1.537887696964e-02       2.454740014822e+04 
       1.660572937560e-02       2.427504628582e+04 
       1.793045412207e-02       2.376343725441e+04 
       1.936085889642e-02       2.298824069956e+04 
       2.090537351881e-02       2.192956864584e+04 
       2.257309534705e-02       2.057542637155e+04 
       2.437382002240e-02       1.892504764367e+04 
       2.631799943729e-02       1.699424754637e+04 
       2.841644544598e-02       1.481992116483e+04 
       3.067933354524e-02       1.246528063832e+04 
       3.311368469821e-02       1.002429931341e+04 
       3.571840442514e-02       7.621528394199e+03 
       3.847720347390e-02       5.402739137025e+03 
       4.135335537314e-02       3.509022723569e+03 
       4.429361666563e-02       2.037328399371e+03 
       4.724366437916e-02       1.012042053777e+03 
       5.016480834039e-02       3.884569549328e+02 
       5.303989618930e-02       8.231469351361e+01 
       5.586870668205e-02       1.324507220176e-05 
       5.866042679206e-02       5.645062677580e+01 
       6.142798931504e-02       1.820487024916e+02 
       6.418496438662e-02       3.238721161024e+02 
       6.694418832236e-02       4.449098443597e+02 
       6.971731104453e-02       5.225389366735e+02 
       7.251476154108e-02       5.468663424345e+02 
       7.534587669814e-02       5.187552058050e+02 
       7.821907664495e-02       4.475245959651e+02 
       8.114203771084e-02       3.483123150064e+02 
       8.412184533139e-02       2.391334051903e+02 
       8.716512277352e-02       1.378023448484e+02 
       9.027813693913e-02       5.909286389003e+01 
       9.346688429613e-02       1.239594280843e+01 
       9.673716026122e-02       2.938558651031e-01 
       1.000946150608e-01       1.836206277464e+01 
       1.035447986307e-01       5.631145847406e+01 
       1.070931966524e-01       1.003866143124e+02 
       1.107452594180e-01       1.366074505884e+02 
       1.145064248899e-01       1.541704754229e+02 
       1.183821370656e-01       1.481783576801e+02 
       1.223778605591e-01       1.208672358962e+02 
       1.264990921707e-01       8.083512811636e+01 
       1.307513701078e-01       4.028210594263e+01 
       1.351402814485e-01       1.094760196501e+01 
       1.396714683894e-01       2.878114186983e-02 
       1.443506337875e-01       7.596055505630e+00 
       1.491835464900e-01       2.667525721239e+01 
       1.541760469368e-01       4.622784107239e+01 
       1.593340535209e-01       5.601702932054e+01 
       1.646635701934e-01       5.125867324312e+01 
       1.701706958081e-01       3.476775353681e+01 
       1.758616357070e-01       1.522780402683e+01 
       1.817427160581e-01       2.247129315430e+00 
       1.878204014651e-01       8.445106110911e-01 
       1.941013163855e-01       8.705377086397e+00 
       2.005922709060e-01       1.806167614132e+01 
       2.073002914514e-01       2.124571983374e+01 
       2.142326570343e-01       1.608800613996e+01 
       2.213969417044e-01       6.928678723877e+00 
       2.288010639201e-01       6.712070558869e-01 
       2.364533436625e-01       9.454798522061e-01 
       2.443625682390e-01       5.266069795542e+00 
       2.525380678946e-01       8.058696198790e+00 
       2.609898025770e-01       6.329585381027e+00 
       2.697284614969e-01       2.221815613859e+00 
       2.787655775073e-01       2.231474211220e-02 
       2.881136588192e-01       1.071242218060e+00 
       2.977863412019e-01       2.788796345998e+00 
       3.077985646248e-01       2.488169270724e+00 
       3.181667793367e-01       7.737433608890e-01 
       3.289091877084e-01       3.566353609161e-03 
       3.400460298905e-01       6.377559500313e-01 
       3.515999235695e-01       1.034595153473e+00 
       3.635962710278e-01       4.705493935782e-01 
       3.760637505499e-01       3.743639713009e-03 
       3.890349143014e-01       2.088487263612e-01 
       4.025469215929e-01       3.354807210638e-01 
       4.166424455447e-01       8.838238918964e-02 
       4.313708034899e-01       1.352207948193e-02 
       4.467893781976e-01       1.108838318263e-01 
       4.629654198623e-01       5.053356571792e-02 
       4.799783500912e-01       1.690388139643e-03 
       4.979227318246e-01       3.342584922815e-02 
       5.169121269689e-01       8.909027063906e-03 
       5.370841403262e-01       4.053774910396e-03 
       5.586070463286e-01       7.389256497349e-03 
       5.816885093582e-01       1.086561384746e-04 
       6.065870143577e-01       2.363010701497e-03 
       6.336266466978e-01       3.145327597168e-05 
       6.632156057925e-01       4.615350360898e-04 
       6.958678637575e-01       9.035722412884e-05 
       7.322247983784e-01       1.909621066142e-06 
       7.730680193171e-01       1.534477557870e-05 
       8.193049551574e-01       5.039836467691e-06 
       8.718988013754e-01       8.635108086029e-07 
       9.317218028590e-01       1.746303293355e-08 
       9.993660906273e-01       3.722948922948e-08 
       1.075037109879e+00       6.052655714533e-10 
       1.158653485387e+00       1.499339837880e-11 
       1.250099156961e+00       1.089013972389e-08 
       1.349432400897e+00       3.184669214462e-09 
       1.456947456991e+00       4.131007607834e-10 
       1.573135110893e+00       1.336489789037e-09 
       1.698621895119e+00       1.014455192015e-11 
       1.834127512423e+00       4.267110878703e-10 
       1.980444933977e+00       8.937905004243e-11 
       2.138435191130e+00       2.431972732102e-11 
       2.309029198543e+00       7.106930838290e-10 
       2.493232376993e+00       1.799832390776e-12 
       2.692130394536e+00       1.745565394452e-13 
       2.906895533764e+00       1.339368710837e-11 
       3.138793596840e+00       1.445235789487e-11 
       3.389191365541e+00       2.203355911670e-11 
       3.659564656886e+00       5.645158902948e-12 
       3.951507021438e+00       5.924590736965e-12 
       4.266739135513e+00       5.424420172123e-15 
       4.607118942658e+00       4.830908376677e-13 
       4.974652604172e+00       1.269879701172e-12 
       5.371506323193e+00       2.589323489233e-14 
       5.800019112071e+00       1.887778783743e-14 
       6.262716578240e+00       3.983848830522e-16 
       6.762325809881e+00       2.915151275049e-13 
       7.301791449077e+00       1.761622904429e-13 
       7.884293047211e+00       5.694062120401e-14 
       8.513263804891e+00       5.780938730924e-16 
       9.192410806865e+00       3.924171494770e-14 
       9.925736871166e+00       1.546990502903e-16 
       1.071756414128e+01       9.741841565828e-17 
       1.157255956041e+01       8.378796844588e-15 
       1.249576237789e+01       4.832300200629e-15 
       1.349261385000e+01       2.605735996477e-15 
       1.456898931011e+01       1.391854587131e-15 
       1.573123279727e+01       1.124966053790e-17 
       1.698619444729e+01       3.003795190775e-17 
       1.834127086665e+01       1.949201088382e-17 
       1.980444872733e+01       2.700924790004e-18 
       2.138435183937e+01       3.453082183136e-19 
       2.309029197863e+01       9.153409483114e-18 
       2.493232376942e+01       3.532097899879e-18 
       2.692130394533e+01       9.216763425032e-20 
       2.906895533764e+01       6.999595205436e-21 
       3.138793596840e+01       1.656318747561e-19 
       3.389191365541e+01       1.532160582197e-20 
       3.659564656886e+01       5.267270239314e-20 
       3.951507021438e+01       4.840942695192e-21 
       4.266739135513e+01       7.739135108819e-23 
       4.607118942658e+01       7.639976417804e-21 
       4.974652604172e+01       2.894334496504e-22 
       5.371506323193e+01       5.100115186210e-22 
       5.800019112071e+01       1.090226220698e-22 
       6.262716578240e+01       1.989633750515e-22 
       6.762325809881e+01       1.569837371982e-22 
