# Matter power spectrum P(k) at redshift z=0
# for k=1.04775e-05 to 66.1767 h/Mpc,
# number of wavenumbers equal to 130
#    1:k (h/Mpc)              2:P (Mpc/h)^3        
       1.047750691046e-05       5.020964811314e+01 
       1.319039970183e-05       6.270562594875e+01 
       1.660572937635e-05       7.831147247912e+01 
       2.090537469327e-05       9.780108069396e+01 
       2.631830744443e-05       1.221408203810e+02 
       3.313278603720e-05       1.525374501932e+02 
       4.171170630578e-05       1.904975994013e+02 
       5.251192703764e-05       2.379022224243e+02 
       6.610859936996e-05       2.970989227881e+02 
       8.322579568497e-05       3.710167318946e+02 
       1.047750691046e-04       4.633080766742e+02 
       1.319039970183e-04       5.785234129341e+02 
       1.660572937635e-04       7.223242666092e+02 
       2.090537469327e-04       9.017396271824e+02 
       2.631830744443e-04       1.125468123751e+03 
       3.313278603720e-04       1.404223053681e+03 
       4.171170630578e-04       1.751108028790e+03 
       5.251192703764e-04       2.181998448133e+03 
       6.610859936996e-04       2.715889983593e+03 
       8.322579568497e-04       3.375152337133e+03 
       1.047750691046e-03       4.185552174302e+03 
       1.319039970183e-03       5.175742742810e+03 
       1.660572937635e-03       6.376123051749e+03 
       2.090537469327e-03       7.815671866096e+03 
       2.631830744443e-03       9.517783068776e+03 
       3.313278603720e-03       1.149357460250e+04 
       4.171170630578e-03       1.373266012666e+04 
       5.251192703764e-03       1.619063613763e+04 
       6.610859936996e-03       1.877460416085e+04 
       8.322579568497e-03       2.132606899124e+04 
       1.047750691046e-02       2.360549437524e+04 
       1.319039970183e-02       2.528218641807e+04 
       1.660572937633e-02       2.595028119957e+04 
       2.090537453514e-02       2.520936192766e+04 
       2.631818545635e-02       2.287037964889e+04 
       3.311571692125e-02       1.928625749470e+04 
       4.113809243311e-02       1.568427143651e+04 
       4.792590854610e-02       1.361063031049e+04 
       5.284436902701e-02       1.259128400122e+04 
       5.689644391095e-02       1.195556700310e+04 
       6.051252627066e-02       1.147545039765e+04 
       6.388413457411e-02       1.105587991987e+04 
       6.711249296401e-02       1.064897951485e+04 
       7.025823437965e-02       1.022925265333e+04 
       7.336115587705e-02       9.784473981528e+03 
       7.644928796912e-02       9.311619843885e+03 
       7.954353299775e-02       8.814485480036e+03 
       8.266024078725e-02       8.302112844062e+03 
       8.581273398637e-02       7.786941764604e+03 
       8.901225918437e-02       7.283173150180e+03 
       9.226860540985e-02       6.805147083444e+03 
       9.559052048996e-02       6.365619501503e+03 
       9.898599946599e-02       5.974369930401e+03 
       1.024624891378e-01       5.637337450694e+03 
       1.060270359164e-01       5.355771060086e+03 
       1.096863943056e-01       5.126234888830e+03 
       1.134471073830e-01       4.940464897829e+03 
       1.173155669539e-01       4.786166860264e+03 
       1.212980586983e-01       4.647921662745e+03 
       1.254007961065e-01       4.509143996247e+03 
       1.296299459934e-01       4.354525408561e+03 
       1.339916477160e-01       4.173201140794e+03 
       1.384920277736e-01       3.961116234339e+03 
       1.431372111762e-01       3.722646315066e+03 
       1.479333307714e-01       3.469545889432e+03 
       1.528865355934e-01       3.218323949753e+03 
       1.580029992204e-01       2.986262908828e+03 
       1.632889290723e-01       2.786941912426e+03 
       1.687505775527e-01       2.626807703378e+03 
       1.743942559171e-01       2.503751335722e+03 
       1.802263517371e-01       2.407312928772e+03 
       1.862533508214e-01       2.322231701207e+03 
       1.924818644494e-01       2.231531441588e+03 
       1.989186627765e-01       2.122167610448e+03 
       2.055707152847e-01       1.992007485848e+03 
       2.124452391818e-01       1.850301197488e+03 
       2.195497567139e-01       1.712151154352e+03 
       2.268921624510e-01       1.590963795743e+03 
       2.344808017550e-01       1.493646646515e+03 
       2.423245618548e-01       1.418285848139e+03 
       2.504329772620e-01       1.354447551235e+03 
       2.588163516754e-01       1.288911368091e+03 
       2.674858990930e-01       1.213911930557e+03 
       2.764539076010e-01       1.130665858431e+03 
       2.857339303080e-01       1.048075265754e+03 
       2.953410092148e-01       9.761611049826e+02 
       3.052919395542e-01       9.177865041959e+02 
       3.156055844677e-01       8.678758918887e+02 
       3.263032530092e-01       8.185059326954e+02 
       3.374091587054e-01       7.651285885567e+02 
       3.489509817175e-01       7.106503470889e+02 
       3.609605657343e-01       6.607642386542e+02 
       3.734747921333e-01       6.180636796778e+02 
       3.865366902904e-01       5.792906919144e+02 
       4.001968667448e-01       5.403721212900e+02 
       4.145153713076e-01       5.011319542825e+02 
       4.295641718077e-01       4.644791380134e+02 
       4.454304922144e-01       4.313887317736e+02 
       4.622214006969e-01       4.000941663825e+02 
       4.800702491654e-01       3.690695614292e+02 
       4.991459272112e-01       3.394589907237e+02 
       5.196665217302e-01       3.119671320310e+02 
       5.419201087032e-01       2.852294341521e+02 
       5.662975451962e-01       2.593134168393e+02 
       5.933463737275e-01       2.345307331144e+02 
       6.238638458458e-01       2.102137897328e+02 
       6.590669257916e-01       1.864168880470e+02 
       7.009246080454e-01       1.627098317231e+02 
       7.528593308799e-01       1.388029837365e+02 
       8.213469537518e-01       1.141737984891e+02 
       9.196980813302e-01       8.834555944233e+01 
       1.075112183810e+00       6.171370438035e+01 
       1.322697471132e+00       3.803172478959e+01 
       1.662328205042e+00       2.208878653576e+01 
       2.092692408506e+00       1.266144231002e+01 
       2.634543445090e+00       7.196853305455e+00 
       3.316693691389e+00       4.059778511058e+00 
       4.175469971226e+00       2.274178644631e+00 
       5.256605252960e+00       1.265706546779e+00 
       6.617673932723e+00       7.001352649626e-01 
       8.331157880872e+00       3.850149802077e-01 
       1.048830636590e+01       2.104922829427e-01 
       1.320399541071e+01       1.143840815961e-01 
       1.662284535976e+01       6.174717254465e-02 
       2.092692243973e+01       3.307583214557e-02 
       2.634543445002e+01       1.754734565572e-02 
       3.316693691389e+01       9.190836893984e-03 
       4.175469971226e+01       4.729153664637e-03 
       5.256605252960e+01       2.371673505166e-03 
       6.617673932723e+01       1.145061894303e-03 
