# Matter power spectrum P(k) at redshift z=0
# for k=1.04775e-05 to 66.1767 h/Mpc,
# number of wavenumbers equal to 130
#    1:k (h/Mpc)              2:P (Mpc/h)^3        
       1.047750691046e-05       5.020963960298e+01 
       1.319039970183e-05       6.270562519245e+01 
       1.660572937635e-05       7.831148880580e+01 
       2.090537469327e-05       9.780106823280e+01 
       2.631830744443e-05       1.221408204104e+02 
       3.313278603720e-05       1.525374501969e+02 
       4.171170630578e-05       1.904975995540e+02 
       5.251192703764e-05       2.379022229134e+02 
       6.610859936996e-05       2.970989228169e+02 
       8.322579568497e-05       3.710167327878e+02 
       1.047750691046e-04       4.633080766610e+02 
       1.319039970183e-04       5.785234139052e+02 
       1.660572937635e-04       7.223242666089e+02 
       2.090537469327e-04       9.017396271825e+02 
       2.631830744443e-04       1.125468124012e+03 
       3.313278603720e-04       1.404223053669e+03 
       4.171170630578e-04       1.751108028610e+03 
       5.251192703764e-04       2.181998447066e+03 
       6.610859936996e-04       2.715889983517e+03 
       8.322579568497e-04       3.375152336258e+03 
       1.047750691046e-03       4.185552171787e+03 
       1.319039970183e-03       5.175742737295e+03 
       1.660572937635e-03       6.376123011187e+03 
       2.090537469327e-03       7.815671793962e+03 
       2.631830744443e-03       9.517782848354e+03 
       3.313278603720e-03       1.149357397920e+04 
       4.171170630578e-03       1.373265864319e+04 
       5.251192703764e-03       1.619063155502e+04 
       6.610859936996e-03       1.877459262557e+04 
       8.322579568497e-03       2.132603854868e+04 
       1.047750691046e-02       2.360542580205e+04 
       1.319039970183e-02       2.528202691762e+04 
       1.660572937633e-02       2.594990557914e+04 
       2.090537453514e-02       2.520857618227e+04 
       2.631818545635e-02       2.286888409136e+04 
       3.311571692125e-02       1.928354514583e+04 
       4.113809243311e-02       1.567981498672e+04 
       4.792590854610e-02       1.360458324912e+04 
       5.284436902701e-02       1.258408845446e+04 
       5.689644391095e-02       1.194737301429e+04 
       6.051252627066e-02       1.146648559605e+04 
       6.388413457411e-02       1.104619798181e+04 
       6.711249296401e-02       1.063868129977e+04 
       7.025823437965e-02       1.021841506373e+04 
       7.336115587705e-02       9.773129680365e+03 
       7.644928796912e-02       9.299833204451e+03 
       7.954353299775e-02       8.802341302801e+03 
       8.266024078725e-02       8.289585562796e+03 
       8.581273398637e-02       7.774056084351e+03 
       8.901225918437e-02       7.269984843483e+03 
       9.226860540985e-02       6.791629100443e+03 
       9.559052048996e-02       6.351783672167e+03 
       9.898599946599e-02       5.960141570933e+03 
       1.024624891378e-01       5.622686063009e+03 
       1.060270359164e-01       5.340672875262e+03 
       1.096863943056e-01       5.110619746518e+03 
       1.134471073830e-01       4.924282398584e+03 
       1.173155669539e-01       4.769392617847e+03 
       1.212980586983e-01       4.630566646743e+03 
       1.254007961065e-01       4.491243494303e+03 
       1.296299459934e-01       4.336169812478e+03 
       1.339916477160e-01       4.154465856207e+03 
       1.384920277736e-01       3.942129939865e+03 
       1.431372111762e-01       3.703426780713e+03 
       1.479333307714e-01       3.450181098320e+03 
       1.528865355934e-01       3.198857901334e+03 
       1.580029992204e-01       2.966652249255e+03 
       1.632889290723e-01       2.767131728676e+03 
       1.687505775527e-01       2.606667218049e+03 
       1.743942559171e-01       2.483193744567e+03 
       1.802263517371e-01       2.386272163904e+03 
       1.862533508214e-01       2.300685373527e+03 
       1.924818644494e-01       2.209568499660e+03 
       1.989186627765e-01       2.099920251849e+03 
       2.055707152847e-01       1.969623647272e+03 
       2.124452391818e-01       1.827900364335e+03 
       2.195497567139e-01       1.689766142754e+03 
       2.268921624510e-01       1.568508912060e+03 
       2.344808017550e-01       1.471003098977e+03 
       2.423245618548e-01       1.395343113992e+03 
       2.504329772620e-01       1.331162998913e+03 
       2.588163516754e-01       1.265360758801e+03 
       2.674858990930e-01       1.190231143434e+03 
       2.764539076010e-01       1.106995929615e+03 
       2.857339303080e-01       1.024455197318e+03 
       2.953410092148e-01       9.525235060045e+02 
       3.052919395542e-01       8.940250650180e+02 
       3.156055844677e-01       8.439388274527e+02 
       3.263032530092e-01       7.944450952266e+02 
       3.374091587054e-01       7.410617123659e+02 
       3.489509817175e-01       6.866577647374e+02 
       3.609605657343e-01       6.368218398056e+02 
       3.734747921333e-01       5.941032495364e+02 
       3.865366902904e-01       5.552920911928e+02 
       4.001968667448e-01       5.164037216359e+02 
       4.145153713076e-01       4.772632835950e+02 
       4.295641718077e-01       4.407095893727e+02 
       4.454304922144e-01       4.076922179739e+02 
       4.622214006969e-01       3.764826446670e+02 
       4.800702491654e-01       3.456040112896e+02 
       4.991459272112e-01       3.161543802041e+02 
       5.196665217302e-01       2.888230839157e+02 
       5.419201087032e-01       2.622861775855e+02 
       5.662975451962e-01       2.366102762733e+02 
       5.933463737275e-01       2.120911951505e+02 
       6.238638458458e-01       1.880922990193e+02 
       6.590669257916e-01       1.646705681611e+02 
       7.009246080454e-01       1.414223597742e+02 
       7.528593308799e-01       1.180943299784e+02 
       8.213469537518e-01       9.423421326155e+01 
       9.196980813302e-01       6.950463868950e+01 
       1.075112183810e+00       4.455113575712e+01 
       1.322697471132e+00       2.332894484542e+01 
       1.662328205042e+00       1.028114392636e+01 
       2.092692408506e+00       3.777836684155e+00 
       2.634543445090e+00       1.016210058392e+00 
       3.316693691389e+00       1.335450659476e-01 
       4.175469971226e+00       2.543221213616e-04 
       5.256605252960e+00       3.150124341648e-02 
       6.617673932723e+00       3.243541378787e-02 
       8.331157880872e+00       1.053663303983e-02 
       1.048830636590e+01       5.099076089760e-04 
       1.320399541071e+01       2.156778929045e-04 
       1.662284535976e+01       1.500529651874e-04 
       2.092692243973e+01       6.315440523759e-07 
       2.634543445002e+01       2.788003219259e-06 
       3.316693691389e+01       1.263638316985e-09 
       4.175469971226e+01       8.773336315061e-09 
       5.256605252960e+01       1.402739506101e-09 
       6.617673932723e+01       4.171863863551e-11 
