# Matter power spectrum P(k) at redshift z=0
# for k=1.04775e-05 to 66.1767 h/Mpc,
# number of wavenumbers equal to 130
#    1:k (h/Mpc)              2:P (Mpc/h)^3        
       1.047750691046e-05       5.020964825159e+01 
       1.319039970183e-05       6.270562723124e+01 
       1.660572937635e-05       7.831146767079e+01 
       2.090537469327e-05       9.780109129627e+01 
       2.631830744443e-05       1.221408348594e+02 
       3.313278603720e-05       1.525374505156e+02 
       4.171170630578e-05       1.904975994213e+02 
       5.251192703764e-05       2.379022254938e+02 
       6.610859936996e-05       2.970989280367e+02 
       8.322579568497e-05       3.710167324478e+02 
       1.047750691046e-04       4.633080765907e+02 
       1.319039970183e-04       5.785234119536e+02 
       1.660572937635e-04       7.223242669986e+02 
       2.090537469327e-04       9.017396268351e+02 
       2.631830744443e-04       1.125468123496e+03 
       3.313278603720e-04       1.404223053436e+03 
       4.171170630578e-04       1.751108026470e+03 
       5.251192703764e-04       2.181998438528e+03 
       6.610859936996e-04       2.715889965927e+03 
       8.322579568497e-04       3.375152275706e+03 
       1.047750691046e-03       4.185551993811e+03 
       1.319039970183e-03       5.175742219731e+03 
       1.660572937635e-03       6.376121314974e+03 
       2.090537469327e-03       7.815666394127e+03 
       2.631830744443e-03       9.517766893875e+03 
       3.313278603720e-03       1.149352834103e+04 
       4.171170630578e-03       1.373253287166e+04 
       5.251192703764e-03       1.619029754387e+04 
       6.610859936996e-03       1.877373462966e+04 
       8.322579568497e-03       2.132391268563e+04 
       1.047750691046e-02       2.360031385676e+04 
       1.319039970183e-02       2.527022205059e+04 
       1.660572937633e-02       2.592369269820e+04 
       2.090537453514e-02       2.515304995262e+04 
       2.631818545635e-02       2.275816564197e+04 
       3.311571692125e-02       1.907950019509e+04 
       4.113809243311e-02       1.534393719555e+04 
       4.792590854610e-02       1.314899630204e+04 
       5.284436902701e-02       1.204109835670e+04 
       5.689644391095e-02       1.133417386016e+04 
       6.051252627066e-02       1.079359553678e+04 
       6.388413457411e-02       1.032147068091e+04 
       6.711249296401e-02       9.868588903965e+03 
       7.025823437965e-02       9.408775156144e+03 
       7.336115587705e-02       8.929125719711e+03 
       7.644928796912e-02       8.426079556718e+03 
       7.954353299775e-02       7.902784689392e+03 
       8.266024078725e-02       7.367627943702e+03 
       8.581273398637e-02       6.831974414397e+03 
       8.901225918437e-02       6.309232548865e+03 
       9.226860540985e-02       5.812664434313e+03 
       9.559052048996e-02       5.353969865911e+03 
       9.898599946599e-02       4.941946735526e+03 
       1.024624891378e-01       4.581770208666e+03 
       1.060270359164e-01       4.274300075743e+03 
       1.096863943056e-01       4.016057576907e+03 
       1.134471073830e-01       3.799632367047e+03 
       1.173155669539e-01       3.613961572277e+03 
       1.212980586983e-01       3.445747245301e+03 
       1.254007961065e-01       3.280784070186e+03 
       1.296299459934e-01       3.106197750412e+03 
       1.339916477160e-01       2.912922051419e+03 
       1.384920277736e-01       2.697770626706e+03 
       1.431372111762e-01       2.464430514082e+03 
       1.479333307714e-01       2.222694705207e+03 
       1.528865355934e-01       1.985997364585e+03 
       1.580029992204e-01       1.767846611711e+03 
       1.632889290723e-01       1.578475446311e+03 
       1.687505775527e-01       1.422271727641e+03 
       1.743942559171e-01       1.297044754965e+03 
       1.802263517371e-01       1.195007136467e+03 
       1.862533508214e-01       1.105327535792e+03 
       1.924818644494e-01       1.016371195300e+03 
       1.989186627765e-01       9.194846313908e+02 
       2.055707152847e-01       8.134245744271e+02 
       2.124452391818e-01       7.042854132920e+02 
       2.195497567139e-01       6.014507809258e+02 
       2.268921624510e-01       5.125791738324e+02 
       2.344808017550e-01       4.409958706521e+02 
       2.423245618548e-01       3.849668168491e+02 
       2.504329772620e-01       3.386041191963e+02 
       2.588163516754e-01       2.951683067155e+02 
       2.674858990930e-01       2.509447927955e+02 
       2.764539076010e-01       2.065452164520e+02 
       2.857339303080e-01       1.657550048880e+02 
       2.953410092148e-01       1.322595744285e+02 
       3.052919395542e-01       1.065050860818e+02 
       3.156055844677e-01       8.621959058577e+01 
       3.263032530092e-01       6.858598071035e+01 
       3.374091587054e-01       5.217612218504e+01 
       3.489509817175e-01       3.770460263515e+01 
       3.609605657343e-01       2.629205598495e+01 
       3.734747921333e-01       1.805135782758e+01 
       3.865366902904e-01       1.199524913551e+01 
       4.001968667448e-01       7.275416698807e+00 
       4.145153713076e-01       3.751151907959e+00 
       4.295641718077e-01       1.532679591434e+00 
       4.454304922144e-01       3.997189079292e-01 
       4.622214006969e-01       8.610758694924e-03 
       4.800702491654e-01       1.720431123549e-01 
       4.991459272112e-01       7.506352233662e-01 
       5.196665217302e-01       1.526240461128e+00 
       5.419201087032e-01       2.394861411798e+00 
       5.662975451962e-01       3.235012508213e+00 
       5.933463737275e-01       3.881742012107e+00 
       6.238638458458e-01       4.281404261658e+00 
       6.590669257916e-01       4.325710512599e+00 
       7.009246080454e-01       3.972909754374e+00 
       7.528593308799e-01       3.195464972355e+00 
       8.213469537518e-01       2.065757616068e+00 
       9.196980813302e-01       8.409070829490e-01 
       1.075112183810e+00       7.768395493361e-02 
       1.322697471132e+00       2.454281978457e-02 
       1.662328205042e+00       1.943663334223e-02 
       2.092692408506e+00       6.244533436357e-06 
       2.634543445090e+00       3.191634370203e-04 
       3.316693691389e+00       1.596249299613e-06 
       4.175469971226e+00       2.191612106816e-07 
       5.256605252960e+00       1.089286571590e-07 
       6.617673932723e+00       4.165279251381e-09 
       8.331157880872e+00       4.247646011579e-09 
       1.048830636590e+01       1.659573259757e-09 
       1.320399541071e+01       6.702085708477e-10 
       1.662284535976e+01       2.504892882691e-10 
       2.092692243973e+01       9.174005007317e-11 
       2.634543445002e+01       3.193855504510e-11 
       3.316693691389e+01       1.102942219095e-11 
       4.175469971226e+01       3.556072505570e-12 
       5.256605252960e+01       1.114090636635e-12 
       6.617673932723e+01       3.224431694334e-13 
