# Matter power spectrum P(k) at redshift z=0
# for k=1.04775e-05 to 66.1767 h/Mpc,
# number of wavenumbers equal to 130
#    1:k (h/Mpc)              2:P (Mpc/h)^3        
       1.047750691046e-05       5.020963914623e+01 
       1.319039970183e-05       6.270562539911e+01 
       1.660572937635e-05       7.831147247960e+01 
       2.090537469327e-05       9.780106725501e+01 
       2.631830744443e-05       1.221408204053e+02 
       3.313278603720e-05       1.525374501945e+02 
       4.171170630578e-05       1.904975994193e+02 
       5.251192703764e-05       2.379022223343e+02 
       6.610859936996e-05       2.970989228099e+02 
       8.322579568497e-05       3.710167324651e+02 
       1.047750691046e-04       4.633080766731e+02 
       1.319039970183e-04       5.785234081448e+02 
       1.660572937635e-04       7.223242666083e+02 
       2.090537469327e-04       9.017396271813e+02 
       2.631830744443e-04       1.125468124247e+03 
       3.313278603720e-04       1.404223053672e+03 
       4.171170630578e-04       1.751108028707e+03 
       5.251192703764e-04       2.181998448085e+03 
       6.610859936996e-04       2.715889983526e+03 
       8.322579568497e-04       3.375152336749e+03 
       1.047750691046e-03       4.185552173272e+03 
       1.319039970183e-03       5.175742740711e+03 
       1.660572937635e-03       6.376123042105e+03 
       2.090537469327e-03       7.815671887159e+03 
       2.631830744443e-03       9.517782979918e+03 
       3.313278603720e-03       1.149357434795e+04 
       4.171170630578e-03       1.373265962292e+04 
       5.251192703764e-03       1.619063263733e+04 
       6.610859936996e-03       1.877459954018e+04 
       8.322579568497e-03       2.132609744049e+04 
       1.047750691046e-02       2.360545317265e+04 
       1.319039970183e-02       2.528211950586e+04 
       1.660572937633e-02       2.595011462268e+04 
       2.090537453514e-02       2.520900244703e+04 
       2.631818545635e-02       2.286964679807e+04 
       3.311571692125e-02       1.928493289324e+04 
       4.113809243311e-02       1.568208417979e+04 
       4.792590854610e-02       1.360764360959e+04 
       5.284436902701e-02       1.258769916355e+04 
       5.689644391095e-02       1.195142361697e+04 
       6.051252627066e-02       1.147088036056e+04 
       6.388413457411e-02       1.105088534792e+04 
       6.711249296401e-02       1.064362094624e+04 
       7.025823437965e-02       1.022360337809e+04 
       7.336115587705e-02       9.778514769076e+03 
       7.644928796912e-02       9.305347911101e+03 
       7.954353299775e-02       8.807923049595e+03 
       8.266024078725e-02       8.295280381539e+03 
       8.581273398637e-02       7.779884274533e+03 
       8.901225918437e-02       7.275839811225e+03 
       9.226860540985e-02       6.797606220250e+03 
       9.559052048996e-02       6.357763115062e+03 
       9.898599946599e-02       5.966279276821e+03 
       1.024624891378e-01       5.628912346974e+03 
       1.060270359164e-01       5.347051738457e+03 
       1.096863943056e-01       5.117194666747e+03 
       1.134471073830e-01       4.931010177077e+03 
       1.173155669539e-01       4.776333804420e+03 
       1.212980586983e-01       4.637718561948e+03 
       1.254007961065e-01       4.498539755189e+03 
       1.296299459934e-01       4.343600436364e+03 
       1.339916477160e-01       4.161973291637e+03 
       1.384920277736e-01       3.949684543548e+03 
       1.431372111762e-01       3.710996715798e+03 
       1.479333307714e-01       3.457693821061e+03 
       1.528865355934e-01       3.206340912438e+03 
       1.580029992204e-01       2.974132421345e+03 
       1.632889290723e-01       2.774590816277e+03 
       1.687505775527e-01       2.614193767372e+03 
       1.743942559171e-01       2.490804411073e+03 
       1.802263517371e-01       2.393985997150e+03 
       1.862533508214e-01       2.308530131279e+03 
       1.924818644494e-01       2.217487348592e+03 
       1.989186627765e-01       2.107869683067e+03 
       2.055707152847e-01       1.977547411455e+03 
       2.124452391818e-01       1.835753772342e+03 
       2.195497567139e-01       1.697533469311e+03 
       2.268921624510e-01       1.576218163306e+03 
       2.344808017550e-01       1.478705291810e+03 
       2.423245618548e-01       1.403078570464e+03 
       2.504329772620e-01       1.338936156508e+03 
       2.588163516754e-01       1.273152520175e+03 
       2.674858990930e-01       1.197994622750e+03 
       2.764539076010e-01       1.114677721767e+03 
       2.857339303080e-01       1.032043984015e+03 
       2.953410092148e-01       9.600444385650e+02 
       3.052919395542e-01       9.015146537544e+02 
       3.156055844677e-01       8.514112636902e+02 
       3.263032530092e-01       8.018803099959e+02 
       3.374091587054e-01       7.484240705917e+02 
       3.489509817175e-01       6.939243758422e+02 
       3.609605657343e-01       6.440034380301e+02 
       3.734747921333e-01       6.012156254448e+02 
       3.865366902904e-01       5.623481920539e+02 
       4.001968667448e-01       5.233761456848e+02 
       4.145153713076e-01       4.841345162011e+02 
       4.295641718077e-01       4.474806715312e+02 
       4.454304922144e-01       4.143647904588e+02 
       4.622214006969e-01       3.830588437776e+02 
       4.800702491654e-01       3.520630150231e+02 
       4.991459272112e-01       3.224927196548e+02 
       5.196665217302e-01       2.950401357830e+02 
       5.419201087032e-01       2.683671748489e+02 
       5.662975451962e-01       2.425434018587e+02 
       5.933463737275e-01       2.178678002749e+02 
       6.238638458458e-01       1.936934052423e+02 
       6.590669257916e-01       1.700767884454e+02 
       7.009246080454e-01       1.466034802986e+02 
       7.528593308799e-01       1.230072614155e+02 
       8.213469537518e-01       9.881354636169e+01 
       9.196980813302e-01       7.364027248333e+01 
       1.075112183810e+00       4.806388817481e+01 
       1.322697471132e+00       2.601918407646e+01 
       1.662328205042e+00       1.211572577923e+01 
       2.092692408506e+00       4.865887388886e+00 
       2.634543445090e+00       1.535306214034e+00 
       3.316693691389e+00       2.979822264471e-01 
       4.175469971226e+00       9.967950885048e-03 
       5.256605252960e+00       1.650540410628e-02 
       6.617673932723e+00       3.369172418780e-02 
       8.331157880872e+00       1.711861317473e-02 
       1.048830636590e+01       2.219255742357e-03 
       1.320399541071e+01       4.949800667019e-05 
       1.662284535976e+01       2.391978413135e-04 
       2.092692243973e+01       1.263208828583e-05 
       2.634543445002e+01       3.344726314946e-06 
       3.316693691389e+01       8.758084771257e-08 
       4.175469971226e+01       1.920478878125e-08 
       5.256605252960e+01       9.038822641545e-10 
       6.617673932723e+01       9.267760321646e-13 
