# Matter power spectrum P(k) at redshift z=0
# for k=1.04775e-05 to 67.6233 h/Mpc,
# number of wavenumbers equal to 246
#    1:k (h/Mpc)              2:P (Mpc/h)^3        
       1.047750691046e-05       5.020964811315e+01 
       1.131335172503e-05       5.407050701924e+01 
       1.221587619537e-05       5.822819068737e+01 
       1.319039970183e-05       6.270562594795e+01 
       1.424266597921e-05       6.752732240880e+01 
       1.537887696968e-05       7.271977206173e+01 
       1.660572937635e-05       7.831147247912e+01 
       1.793045413292e-05       8.433311821988e+01 
       1.936085902198e-05       9.081778249833e+01 
       2.090537469327e-05       9.780108069312e+01 
       2.257310435294e-05       1.053213197893e+02 
       2.437387741694e-05       1.134197377890e+02 
       2.631830744443e-05       1.221408203809e+02 
       2.841785469300e-05       1.315324642471e+02 
       3.068489366414e-05       1.416462094878e+02 
       3.313278603720e-05       1.525374501932e+02 
       3.577595942169e-05       1.642660688414e+02 
       3.862999239199e-05       1.768963506307e+02 
       4.171170630578e-05       1.904975994009e+02 
       4.503926444729e-05       2.051444491974e+02 
       4.863227907969e-05       2.209171465549e+02 
       5.251192703764e-05       2.379022224248e+02 
       5.670107454120e-05       2.561927927504e+02 
       6.122441196689e-05       2.758890444040e+02 
       6.610859936996e-05       2.970989227883e+02 
       7.138242361596e-05       3.199385560802e+02 
       7.707696804727e-05       3.445329783680e+02 
       8.322579568497e-05       3.710167318946e+02 
       8.986514704559e-05       3.995346444203e+02 
       9.703415373875e-05       4.302425407383e+02 
       1.047750691046e-04       4.633080766742e+02 
       1.131335172503e-04       4.989116271564e+02 
       1.221587619537e-04       5.372471950930e+02 
       1.319039970183e-04       5.785234129333e+02 
       1.424266597921e-04       6.229645936045e+02 
       1.537887696968e-04       6.708118490405e+02 
       1.660572937635e-04       7.223242666092e+02 
       1.793045413292e-04       7.777801560667e+02 
       1.936085902198e-04       8.374783614140e+02 
       2.090537469327e-04       9.017396271824e+02 
       2.257310435294e-04       9.709080268041e+02 
       2.437387741694e-04       1.045352449493e+03 
       2.631830744443e-04       1.125468123750e+03 
       2.841785469300e-04       1.211678180494e+03 
       3.068489366414e-04       1.304435250150e+03 
       3.313278603720e-04       1.404223053681e+03 
       3.577595942169e-04       1.511558014616e+03 
       3.862999239199e-04       1.626990837766e+03 
       4.171170630578e-04       1.751108028792e+03 
       4.503926444729e-04       1.884533382872e+03 
       4.863227907969e-04       2.027929378111e+03 
       5.251192703764e-04       2.181998448133e+03 
       5.670107454121e-04       2.347484102755e+03 
       6.122441196689e-04       2.525171871365e+03 
       6.610859936996e-04       2.715889983592e+03 
       7.138242361596e-04       2.920509688385e+03 
       7.707696804727e-04       3.139945100279e+03 
       8.322579568497e-04       3.375152337586e+03 
       8.986514704559e-04       3.627127831140e+03 
       9.703415373875e-04       3.896905453135e+03 
       1.047750691046e-03       4.185552174296e+03 
       1.131335172503e-03       4.494162430372e+03 
       1.221587619537e-03       4.823850706498e+03 
       1.319039970183e-03       5.175742739550e+03 
       1.424266597921e-03       5.551019596909e+03 
       1.537887696968e-03       5.950788340553e+03 
       1.660572937635e-03       6.376123051784e+03 
       1.793045413292e-03       6.828073901444e+03 
       1.936085902198e-03       7.307625381055e+03 
       2.090537469327e-03       7.815671864957e+03 
       2.257310435294e-03       8.352990375792e+03 
       2.437387741694e-03       8.920211064286e+03 
       2.631830744443e-03       9.517783069061e+03 
       2.841785469300e-03       1.014593704428e+04 
       3.068489366414e-03       1.080464502794e+04 
       3.313278603720e-03       1.149357460332e+04 
       3.577595942169e-03       1.221203621702e+04 
       3.862999239199e-03       1.295892539418e+04 
       4.171170630578e-03       1.373266009069e+04 
       4.503926444729e-03       1.453111835571e+04 
       4.863227907969e-03       1.535154985225e+04 
       5.251192703764e-03       1.619063614454e+04 
       5.670107454120e-03       1.704431257602e+04 
       6.122441196689e-03       1.790755939455e+04 
       6.610859936996e-03       1.877460422059e+04 
       7.138242361596e-03       1.963872430006e+04 
       7.707696804727e-03       2.049215714181e+04 
       8.322579568496e-03       2.132607231282e+04 
       8.986514704559e-03       2.213054687338e+04 
       9.703415373875e-03       2.289445471019e+04 
       1.047750691046e-02       2.360548640724e+04 
       1.131335172503e-02       2.425023316755e+04 
       1.221587619537e-02       2.481423920812e+04 
       1.319039970183e-02       2.528218619184e+04 
       1.424266597920e-02       2.563814324263e+04 
       1.537887696964e-02       2.586608174548e+04 
       1.660572937560e-02       2.595026415017e+04 
       1.793045412207e-02       2.587636299116e+04 
       1.936085889642e-02       2.563220541176e+04 
       2.090537351881e-02       2.520934388758e+04 
       2.257309534705e-02       2.460445290591e+04 
       2.437382002240e-02       2.382089739264e+04 
       2.631799943729e-02       2.287042699170e+04 
       2.841644544598e-02       2.177450457922e+04 
       3.067933354524e-02       2.056557001539e+04 
       3.311368469821e-02       1.928730665012e+04 
       3.571840442514e-02       1.799394021345e+04 
       3.847720347390e-02       1.674681060761e+04 
       4.135335537314e-02       1.560463147457e+04 
       4.429361666563e-02       1.461038802403e+04 
       4.724366437916e-02       1.378053402121e+04 
       5.016480834039e-02       1.310506693865e+04 
       5.303989618930e-02       1.255717126828e+04 
       5.586870668205e-02       1.210424723958e+04 
       5.866042679206e-02       1.171466969290e+04 
       6.142798931504e-02       1.136046202786e+04 
       6.418496438662e-02       1.101855692296e+04 
       6.694418832236e-02       1.067070172707e+04 
       6.971731104453e-02       1.030355366770e+04 
       7.251476154108e-02       9.909010572786e+03 
       7.534587669814e-02       9.483747470522e+03 
       7.821907664495e-02       9.029512724580e+03 
       8.114203771084e-02       8.552307257029e+03 
       8.412184533139e-02       8.061931949066e+03 
       8.716512277352e-02       7.570775552399e+03 
       9.027813693913e-02       7.092462896073e+03 
       9.346688429613e-02       6.640538831042e+03 
       9.673716026122e-02       6.226712290521e+03 
       1.000946150608e-01       5.859934861772e+03 
       1.035447986307e-01       5.545269909877e+03 
       1.070931966524e-01       5.283145436910e+03 
       1.107452594180e-01       5.069434802657e+03 
       1.145064248899e-01       4.895267253372e+03 
       1.183821370656e-01       4.747852764632e+03 
       1.223778605591e-01       4.611730824772e+03 
       1.264990921707e-01       4.470606212661e+03 
       1.307513701078e-01       4.310267147136e+03 
       1.351402814485e-01       4.121362629672e+03 
       1.396714683894e-01       3.902057596161e+03 
       1.443506337875e-01       3.658647552903e+03 
       1.491835464900e-01       3.404507242964e+03 
       1.541760469368e-01       3.156687484600e+03 
       1.593340535209e-01       2.931954774851e+03 
       1.646635701934e-01       2.742373647159e+03 
       1.701706958081e-01       2.592249200466e+03 
       1.758616357070e-01       2.477239695393e+03 
       1.817427160581e-01       2.385179272321e+03 
       1.878204014651e-01       2.300359462671e+03 
       1.941013163855e-01       2.205759252278e+03 
       2.005922709060e-01       2.090813523216e+03 
       2.073002914514e-01       1.956465192182e+03 
       2.142326570343e-01       1.814196379976e+03 
       2.213969417044e-01       1.679278461589e+03 
       2.288010639201e-01       1.563845450039e+03 
       2.364533436625e-01       1.472680783474e+03 
       2.443625682390e-01       1.401516224258e+03 
       2.525380678946e-01       1.338410961379e+03 
       2.609898025770e-01       1.270899978680e+03 
       2.697284614969e-01       1.193381374906e+03 
       2.787655775073e-01       1.109337474245e+03 
       2.881136588192e-01       1.028766711583e+03 
       2.977863412019e-01       9.604799608221e+02 
       3.077985646248e-01       9.050215320769e+02 
       3.181667793367e-01       8.561444103777e+02 
       3.289091877084e-01       8.061885756998e+02 
       3.400460298905e-01       7.523893176158e+02 
       3.515999235695e-01       6.989197392920e+02 
       3.635962710278e-01       6.510590429011e+02 
       3.760637505499e-01       6.101205174736e+02 
       3.890349143014e-01       5.721293342785e+02 
       4.025469215929e-01       5.337801505909e+02 
       4.166424455447e-01       4.956292862924e+02 
       4.313708034899e-01       4.604666238424e+02 
       4.467893781976e-01       4.287750536536e+02 
       4.629654198623e-01       3.987710798275e+02 
       4.799783500912e-01       3.692401740660e+02 
       4.979227318246e-01       3.412370063468e+02 
       5.169121269689e-01       3.154822624793e+02 
       5.370841403262e-01       2.908338726438e+02 
       5.586070463286e-01       2.671041766653e+02 
       5.816885093582e-01       2.448078320039e+02 
       6.065870143577e-01       2.235658213286e+02 
       6.336266466978e-01       2.032090802185e+02 
       6.632156057925e-01       1.838771643567e+02 
       6.958678637575e-01       1.653525720499e+02 
       7.322247983784e-01       1.476931330824e+02 
       7.730680193171e-01       1.308319243896e+02 
       8.193049551574e-01       1.148296022872e+02 
       8.718988013754e-01       9.976031797845e+01 
       9.317218028590e-01       8.577633992338e+01 
       9.993660906273e-01       7.305332733170e+01 
       1.075037109879e+00       6.173443264131e+01 
       1.158653485387e+00       5.187784408670e+01 
       1.250099156961e+00       4.343877174019e+01 
       1.349432400897e+00       3.628800560655e+01 
       1.456947456991e+00       3.026665938560e+01 
       1.573135110893e+00       2.521327674457e+01 
       1.698621895119e+00       2.098085381814e+01 
       1.834127512423e+00       1.744124647538e+01 
       1.980444933977e+00       1.448470626217e+01 
       2.138435191130e+00       1.201795036031e+01 
       2.309029198543e+00       9.962247247473e+00 
       2.493232376993e+00       8.250931013302e+00 
       2.692130394536e+00       6.827783614562e+00 
       2.906895533764e+00       5.645476445808e+00 
       3.138793596840e+00       4.664171702302e+00 
       3.389191365541e+00       3.850438363603e+00 
       3.659564656886e+00       3.176303657307e+00 
       3.951507021438e+00       2.618277305442e+00 
       4.266739135513e+00       2.156798604893e+00 
       4.607118942658e+00       1.775428599651e+00 
       4.974652604172e+00       1.460505432519e+00 
       5.371506323193e+00       1.200676312315e+00 
       5.800019112071e+00       9.864626879649e-01 
       6.262716578240e+00       8.099648798145e-01 
       6.762325809881e+00       6.646508519030e-01 
       7.301791449077e+00       5.450953730738e-01 
       7.884293047211e+00       4.467919099719e-01 
       8.513263804891e+00       3.660131022267e-01 
       9.192410806865e+00       2.996789964242e-01 
       9.925736871166e+00       2.452383259267e-01 
       1.071756414128e+01       2.005856792925e-01 
       1.157255956041e+01       1.639789921344e-01 
       1.249576237789e+01       1.339877285645e-01 
       1.349261385000e+01       1.094287219344e-01 
       1.456898931011e+01       8.932856028610e-02 
       1.573123279727e+01       7.288623409157e-02 
       1.698619444729e+01       5.944295214485e-02 
       1.834127086665e+01       4.845666084275e-02 
       1.980444872733e+01       3.948288002520e-02 
       2.138435183937e+01       3.215647150853e-02 
       2.309029197863e+01       2.617748989801e-02 
       2.493232376942e+01       2.130030229639e-02 
       2.692130394533e+01       1.732417232185e-02 
       2.906895533764e+01       1.408344363803e-02 
       3.138793596840e+01       1.144369874725e-02 
       3.389191365541e+01       9.294157560632e-03 
       3.659564656886e+01       7.544639351530e-03 
       3.951507021438e+01       6.121347255627e-03 
       4.266739135513e+01       4.963835332513e-03 
       4.607118942658e+01       4.022982649557e-03 
       4.974652604172e+01       3.258556698471e-03 
       5.371506323193e+01       2.637737298094e-03 
       5.800019112071e+01       2.133760318449e-03 
       6.262716578240e+01       1.724805021843e-03 
       6.762325809881e+01       1.393206271365e-03 
