# Matter power spectrum P(k) at redshift z=0
# for k=1.04775e-05 to 66.1767 h/Mpc,
# number of wavenumbers equal to 130
#    1:k (h/Mpc)              2:P (Mpc/h)^3        
       1.047750691046e-05       5.020964824780e+01 
       1.319039970183e-05       6.270560594274e+01 
       1.660572937635e-05       7.831146994071e+01 
       2.090537469327e-05       9.780106872702e+01 
       2.631830744443e-05       1.221408199970e+02 
       3.313278603720e-05       1.525374508221e+02 
       4.171170630578e-05       1.904975994546e+02 
       5.251192703764e-05       2.379022233510e+02 
       6.610859936996e-05       2.970989293808e+02 
       8.322579568497e-05       3.710167315688e+02 
       1.047750691046e-04       4.633080765468e+02 
       1.319039970183e-04       5.785234108372e+02 
       1.660572937635e-04       7.223242666612e+02 
       2.090537469327e-04       9.017396247879e+02 
       2.631830744443e-04       1.125468123675e+03 
       3.313278603720e-04       1.404223052071e+03 
       4.171170630578e-04       1.751108026238e+03 
       5.251192703764e-04       2.181998445924e+03 
       6.610859936996e-04       2.715889977691e+03 
       8.322579568497e-04       3.375152316641e+03 
       1.047750691046e-03       4.185552113482e+03 
       1.319039970183e-03       5.175742565807e+03 
       1.660572937635e-03       6.376122466676e+03 
       2.090537469327e-03       7.815670037145e+03 
       2.631830744443e-03       9.517777655758e+03 
       3.313278603720e-03       1.149355910856e+04 
       4.171170630578e-03       1.373261721390e+04 
       5.251192703764e-03       1.619052222489e+04 
       6.610859936996e-03       1.877430929384e+04 
       8.322579568497e-03       2.132533655287e+04 
       1.047750691046e-02       2.360372628670e+04 
       1.319039970183e-02       2.527810108666e+04 
       1.660572937633e-02       2.594120670571e+04 
       2.090537453514e-02       2.519011111535e+04 
       2.631818545635e-02       2.283188082647e+04 
       3.311571692125e-02       1.921526494146e+04 
       4.113809243311e-02       1.556710593468e+04 
       4.792590854610e-02       1.345119377453e+04 
       5.284436902701e-02       1.240072188526e+04 
       5.689644391095e-02       1.173972934762e+04 
       6.051252627066e-02       1.123796571606e+04 
       6.388413457411e-02       1.079930954847e+04 
       6.711249296401e-02       1.037547034133e+04 
       7.025823437965e-02       9.940693094288e+03 
       7.336115587705e-02       9.482522813528e+03 
       7.644928796912e-02       8.997700620121e+03 
       7.954353299775e-02       8.489897828137e+03 
       8.266024078725e-02       7.967789597066e+03 
       8.581273398637e-02       7.443558465476e+03 
       8.901225918437e-02       6.931103610476e+03 
       9.226860540985e-02       6.444339805579e+03 
       9.559052048996e-02       5.995814621571e+03 
       9.898599946599e-02       5.594738817955e+03 
       1.024624891378e-01       5.246928166407e+03 
       1.060270359164e-01       4.953429672353e+03 
       1.096863943056e-01       4.710775650215e+03 
       1.134471073830e-01       4.510979315593e+03 
       1.173155669539e-01       4.342171285245e+03 
       1.212980586983e-01       4.189729610334e+03 
       1.254007961065e-01       4.037845887859e+03 
       1.296299459934e-01       3.872115286912e+03 
       1.339916477160e-01       3.682303391321e+03 
       1.384920277736e-01       3.464695774259e+03 
       1.431372111762e-01       3.223404252119e+03 
       1.479333307714e-01       2.969466024279e+03 
       1.528865355934e-01       2.718351349353e+03 
       1.580029992204e-01       2.485884584609e+03 
       1.632889290723e-01       2.284469085014e+03 
       1.687505775527e-01       2.119714844875e+03 
       1.743942559171e-01       1.989581042354e+03 
       1.802263517371e-01       1.884497562113e+03 
       1.862533508214e-01       1.791057152300e+03 
       1.924818644494e-01       1.694320952084e+03 
       1.989186627765e-01       1.582985295924e+03 
       2.055707152847e-01       1.455306385737e+03 
       2.124452391818e-01       1.319306465307e+03 
       2.195497567139e-01       1.187856583478e+03 
       2.268921624510e-01       1.072060500915e+03 
       2.344808017550e-01       9.774314190308e+02 
       2.423245618548e-01       9.021167165790e+02 
       2.504329772620e-01       8.377118042679e+02 
       2.588163516754e-01       7.737696973463e+02 
       2.674858990930e-01       7.043091684013e+02 
       2.764539076010e-01       6.303204229307e+02 
       2.857339303080e-01       5.585134981730e+02 
       2.953410092148e-01       4.961343976446e+02 
       3.052919395542e-01       4.450227649101e+02 
       3.156055844677e-01       4.014643211867e+02 
       3.263032530092e-01       3.599786072224e+02 
       3.374091587054e-01       3.175435409868e+02 
       3.489509817175e-01       2.760596820080e+02 
       3.609605657343e-01       2.390136546218e+02 
       3.734747921333e-01       2.078313387330e+02 
       3.865366902904e-01       1.804745690939e+02 
       4.001968667448e-01       1.545898005178e+02 
       4.145153713076e-01       1.300533322922e+02 
       4.295641718077e-01       1.083027095779e+02 
       4.454304922144e-01       8.970080016686e+01 
       4.622214006969e-01       7.333180320714e+01 
       4.800702491654e-01       5.847660901979e+01 
       4.991459272112e-01       4.554148275644e+01 
       5.196665217302e-01       3.471305524561e+01 
       5.419201087032e-01       2.545072891465e+01 
       5.662975451962e-01       1.772582132223e+01 
       5.933463737275e-01       1.157099392379e+01 
       6.238638458458e-01       6.782510576913e+00 
       6.590669257916e-01       3.336381453178e+00 
       7.009246080454e-01       1.135587328964e+00 
       7.528593308799e-01       1.097035028899e-01 
       8.213469537518e-01       1.276595692229e-01 
       9.196980813302e-01       8.774810991529e-01 
       1.075112183810e+00       1.523904174777e+00 
       1.322697471132e+00       9.991846753942e-01 
       1.662328205042e+00       1.736919298281e-01 
       2.092692408506e+00       1.635710262752e-04 
       2.634543445090e+00       1.157648666348e-02 
       3.316693691389e+00       1.011835965965e-03 
       4.175469971226e+00       1.361550622848e-04 
       5.256605252960e+00       1.165562121540e-05 
       6.617673932723e+00       1.378335459251e-06 
       8.331157880872e+00       4.953829857067e-08 
       1.048830636590e+01       4.055780165475e-09 
       1.320399541071e+01       2.175189346739e-09 
       1.662284535976e+01       9.434595640754e-10 
       2.092692243973e+01       3.917155350862e-10 
       2.634543445002e+01       1.526525390898e-10 
       3.316693691389e+01       5.498127780923e-11 
       4.175469971226e+01       1.922969241273e-11 
       5.256605252960e+01       6.311422691789e-12 
       6.617673932723e+01       1.978300442762e-12 
