# Matter power spectrum P(k) at redshift z=0
# for k=1.04775e-05 to 66.1767 h/Mpc,
# number of wavenumbers equal to 130
#    1:k (h/Mpc)              2:P (Mpc/h)^3        
       1.047750691046e-05       5.020964242145e+01 
       1.319039970183e-05       6.270560796205e+01 
       1.660572937635e-05       7.831145992548e+01 
       2.090537469327e-05       9.780107886613e+01 
       2.631830744443e-05       1.221408351372e+02 
       3.313278603720e-05       1.525374401469e+02 
       4.171170630578e-05       1.904976040702e+02 
       5.251192703764e-05       2.379022225514e+02 
       6.610859936996e-05       2.970989212108e+02 
       8.322579568497e-05       3.710167340381e+02 
       1.047750691046e-04       4.633080766413e+02 
       1.319039970183e-04       5.785234122809e+02 
       1.660572937635e-04       7.223242664432e+02 
       2.090537469327e-04       9.017396272010e+02 
       2.631830744443e-04       1.125468122510e+03 
       3.313278603720e-04       1.404223048677e+03 
       4.171170630578e-04       1.751108016788e+03 
       5.251192703764e-04       2.181998410748e+03 
       6.610859936996e-04       2.715889879018e+03 
       8.322579568497e-04       3.375152021062e+03 
       1.047750691046e-03       4.185551245406e+03 
       1.319039970183e-03       5.175740032389e+03 
       1.660572937635e-03       6.376114399026e+03 
       2.090537469327e-03       7.815645584149e+03 
       2.631830744443e-03       9.517707099703e+03 
       3.313278603720e-03       1.149336290662e+04 
       4.171170630578e-03       1.373209048376e+04 
       5.251192703764e-03       1.618915038684e+04 
       6.610859936996e-03       1.877085523534e+04 
       8.322579568497e-03       2.131690654577e+04 
       1.047750691046e-02       2.358385415733e+04 
       1.319039970183e-02       2.523304906992e+04 
       1.660572937633e-02       2.584316402423e+04 
       2.090537453514e-02       2.498753061423e+04 
       2.631818545635e-02       2.243894933931e+04 
       3.311571692125e-02       1.851290258069e+04 
       4.113809243311e-02       1.445160451330e+04 
       4.792590854610e-02       1.198465878669e+04 
       5.284436902701e-02       1.069430136597e+04 
       5.689644391095e-02       9.852627633408e+03 
       6.051252627066e-02       9.207897575234e+03 
       6.388413457411e-02       8.655511097201e+03 
       6.711249296401e-02       8.142918570268e+03 
       7.025823437965e-02       7.641932967875e+03 
       7.336115587705e-02       7.137890073315e+03 
       7.644928796912e-02       6.625451666628e+03 
       7.954353299775e-02       6.105646021366e+03 
       8.266024078725e-02       5.584358123638e+03 
       8.581273398637e-02       5.070486035454e+03 
       8.901225918437e-02       4.574492264468e+03 
       9.226860540985e-02       4.106884798245e+03 
       9.559052048996e-02       3.676784106363e+03 
       9.898599946599e-02       3.290963171783e+03 
       1.024624891378e-01       2.952885938540e+03 
       1.060270359164e-01       2.662720497980e+03 
       1.096863943056e-01       2.417257209678e+03 
       1.134471073830e-01       2.210421500394e+03 
       1.173155669539e-01       2.033863247668e+03 
       1.212980586983e-01       1.877769121718e+03 
       1.254007961065e-01       1.732071815548e+03 
       1.296299459934e-01       1.587752000435e+03 
       1.339916477160e-01       1.438435703369e+03 
       1.384920277736e-01       1.281678790245e+03 
       1.431372111762e-01       1.119547273762e+03 
       1.479333307714e-01       9.579385463883e+02 
       1.528865355934e-01       8.048651897877e+02 
       1.580029992204e-01       6.680564531751e+02 
       1.632889290723e-01       5.527909078345e+02 
       1.687505775527e-01       4.606558583127e+02 
       1.743942559171e-01       3.895053063249e+02 
       1.802263517371e-01       3.345062144243e+02 
       1.862533508214e-01       2.897517038458e+02 
       1.924818644494e-01       2.493400914592e+02 
       1.989186627765e-01       2.089636013028e+02 
       2.055707152847e-01       1.678035862077e+02 
       2.124452391818e-01       1.282618692628e+02 
       2.195497567139e-01       9.384155155699e+01 
       2.268921624510e-01       6.687527533879e+01 
       2.344808017550e-01       4.768550355573e+01 
       2.423245618548e-01       3.482975219322e+01 
       2.504329772620e-01       2.593413669554e+01 
       2.588163516754e-01       1.886144443975e+01 
       2.674858990930e-01       1.255813114942e+01 
       2.764539076010e-01       7.113749909333e+00 
       2.857339303080e-01       3.186366202771e+00 
       2.953410092148e-01       1.045572519095e+00 
       3.052919395542e-01       1.999896034756e-01 
       3.156055844677e-01       8.123450982092e-04 
       3.263032530092e-01       1.071643008497e-01 
       3.374091587054e-01       4.935915979868e-01 
       3.489509817175e-01       1.178059660774e+00 
       3.609605657343e-01       1.974189102903e+00 
       3.734747921333e-01       2.577800729446e+00 
       3.865366902904e-01       2.944381804437e+00 
       4.001968667448e-01       3.242378101196e+00 
       4.145153713076e-01       3.539626489733e+00 
       4.295641718077e-01       3.683313693349e+00 
       4.454304922144e-01       3.570033075495e+00 
       4.622214006969e-01       3.290054505463e+00 
       4.800702491654e-01       2.981709382758e+00 
       4.991459272112e-01       2.614448443367e+00 
       5.196665217302e-01       2.147939406355e+00 
       5.419201087032e-01       1.683193578099e+00 
       5.662975451962e-01       1.249485931631e+00 
       5.933463737275e-01       8.443937403969e-01 
       6.238638458458e-01       5.114871627781e-01 
       6.590669257916e-01       2.575030751491e-01 
       7.009246080454e-01       9.342974367047e-02 
       7.528593308799e-01       1.412330878971e-02 
       8.213469537518e-01       1.150582116445e-03 
       9.196980813302e-01       1.481268949782e-02 
       1.075112183810e+00       1.130466470797e-02 
       1.322697471132e+00       4.313837198625e-04 
       1.662328205042e+00       1.305477673985e-04 
       2.092692408506e+00       4.414819364667e-06 
       2.634543445090e+00       1.879161672093e-07 
       3.316693691389e+00       8.766048470356e-08 
       4.175469971226e+00       1.928429866317e-08 
       5.256605252960e+00       8.138991606585e-09 
       6.617673932723e+00       3.225054628900e-09 
       8.331157880872e+00       1.199725669315e-09 
       1.048830636590e+01       4.226512008439e-10 
       1.320399541071e+01       1.782861858669e-10 
       1.662284535976e+01       7.138301968312e-11 
       2.092692243973e+01       1.722302020151e-11 
       2.634543445002e+01       9.912511654004e-12 
       3.316693691389e+01       4.116536839855e-12 
       4.175469971226e+01       1.186211670686e-12 
       5.256605252960e+01       8.897001052173e-13 
       6.617673932723e+01       7.407479702572e-16 
