# Matter power spectrum P(k) at redshift z=0
# for k=1.04775e-05 to 66.1767 h/Mpc,
# number of wavenumbers equal to 130
#    1:k (h/Mpc)              2:P (Mpc/h)^3        
       1.047750691046e-05       5.020964811312e+01 
       1.319039970183e-05       6.270562594781e+01 
       1.660572937635e-05       7.831147247912e+01 
       2.090537469327e-05       9.780108069297e+01 
       2.631830744443e-05       1.221408203809e+02 
       3.313278603720e-05       1.525374501932e+02 
       4.171170630578e-05       1.904975994010e+02 
       5.251192703764e-05       2.379022224249e+02 
       6.610859936996e-05       2.970989227881e+02 
       8.322579568497e-05       3.710167318946e+02 
       1.047750691046e-04       4.633080766742e+02 
       1.319039970183e-04       5.785234129334e+02 
       1.660572937635e-04       7.223242666092e+02 
       2.090537469327e-04       9.017396271824e+02 
       2.631830744443e-04       1.125468123750e+03 
       3.313278603720e-04       1.404223053681e+03 
       4.171170630578e-04       1.751108028791e+03 
       5.251192703764e-04       2.181998448133e+03 
       6.610859936996e-04       2.715889983592e+03 
       8.322579568497e-04       3.375152337135e+03 
       1.047750691046e-03       4.185552174305e+03 
       1.319039970183e-03       5.175742743801e+03 
       1.660572937635e-03       6.376123051774e+03 
       2.090537469327e-03       7.815671866198e+03 
       2.631830744443e-03       9.517783069107e+03 
       3.313278603720e-03       1.149357460344e+04 
       4.171170630578e-03       1.373266009681e+04 
       5.251192703764e-03       1.619063614541e+04 
       6.610859936996e-03       1.877460421426e+04 
       8.322579568497e-03       2.132607231871e+04 
       1.047750691046e-02       2.360547992866e+04 
       1.319039970183e-02       2.528218808049e+04 
       1.660572937633e-02       2.595025665683e+04 
       2.090537453514e-02       2.520933958093e+04 
       2.631818545635e-02       2.287033149757e+04 
       3.311571692125e-02       1.928624492381e+04 
       4.113809243311e-02       1.568430142597e+04 
       4.792590854610e-02       1.361064927321e+04 
       5.284436902701e-02       1.259129045129e+04 
       5.689644391095e-02       1.195553936238e+04 
       6.051252627066e-02       1.147547490638e+04 
       6.388413457411e-02       1.105589836360e+04 
       6.711249296401e-02       1.064899553216e+04 
       7.025823437965e-02       1.022929784707e+04 
       7.336115587705e-02       9.784512344920e+03 
       7.644928796912e-02       9.311651446863e+03 
       7.954353299775e-02       8.814532768504e+03 
       8.266024078725e-02       8.302115592358e+03 
       8.581273398637e-02       7.786965994738e+03 
       8.901225918437e-02       7.283185798872e+03 
       9.226860540985e-02       6.805161367830e+03 
       9.559052048996e-02       6.365637750444e+03 
       9.898599946599e-02       5.974374597437e+03 
       1.024624891378e-01       5.637343431405e+03 
       1.060270359164e-01       5.355813225734e+03 
       1.096863943056e-01       5.126272157644e+03 
       1.134471073830e-01       4.940470270212e+03 
       1.173155669539e-01       4.786185127754e+03 
       1.212980586983e-01       4.647944506931e+03 
       1.254007961065e-01       4.509154469478e+03 
       1.296299459934e-01       4.354545606559e+03 
       1.339916477160e-01       4.173233161710e+03 
       1.384920277736e-01       3.961178948221e+03 
       1.431372111762e-01       3.722688343103e+03 
       1.479333307714e-01       3.469532885888e+03 
       1.528865355934e-01       3.218355489212e+03 
       1.580029992204e-01       2.986274114790e+03 
       1.632889290723e-01       2.786969483875e+03 
       1.687505775527e-01       2.626827611596e+03 
       1.743942559171e-01       2.503771127232e+03 
       1.802263517371e-01       2.407331172236e+03 
       1.862533508214e-01       2.322250723763e+03 
       1.924818644494e-01       2.231552525397e+03 
       1.989186627765e-01       2.122192132803e+03 
       2.055707152847e-01       1.992013563688e+03 
       2.124452391818e-01       1.850320956266e+03 
       2.195497567139e-01       1.712180242272e+03 
       2.268921624510e-01       1.590982755450e+03 
       2.344808017550e-01       1.493667055008e+03 
       2.423245618548e-01       1.418311529864e+03 
       2.504329772620e-01       1.354464144414e+03 
       2.588163516754e-01       1.288928978137e+03 
       2.674858990930e-01       1.213938366629e+03 
       2.764539076010e-01       1.130693459544e+03 
       2.857339303080e-01       1.048095716375e+03 
       2.953410092148e-01       9.761826071608e+02 
       3.052919395542e-01       9.178106132132e+02 
       3.156055844677e-01       8.678968610016e+02 
       3.263032530092e-01       8.185259323780e+02 
       3.374091587054e-01       7.651452729607e+02 
       3.489509817175e-01       7.106713851437e+02 
       3.609605657343e-01       6.607862241956e+02 
       3.734747921333e-01       6.180839706971e+02 
       3.865366902904e-01       5.793092943710e+02 
       4.001968667448e-01       5.403906687902e+02 
       4.145153713076e-01       5.011520654135e+02 
       4.295641718077e-01       4.644982388193e+02 
       4.454304922144e-01       4.314071115096e+02 
       4.622214006969e-01       4.001137899311e+02 
       4.800702491654e-01       3.690883599754e+02 
       4.991459272112e-01       3.394759296019e+02 
       5.196665217302e-01       3.119838424696e+02 
       5.419201087032e-01       2.852463257732e+02 
       5.662975451962e-01       2.593308174081e+02 
       5.933463737275e-01       2.345473069681e+02 
       6.238638458458e-01       2.102298890271e+02 
       6.590669257916e-01       1.864337801273e+02 
       7.009246080454e-01       1.627248031417e+02 
       7.528593308799e-01       1.388184266362e+02 
       8.213469537518e-01       1.141882669382e+02 
       9.196980813302e-01       8.835933927484e+01 
       1.075112183810e+00       6.172584462441e+01 
       1.322697471132e+00       3.804270018513e+01 
       1.662328205042e+00       2.209787509329e+01 
       2.092692408506e+00       1.266908137755e+01 
       2.634543445090e+00       7.203268908009e+00 
       3.316693691389e+00       4.065075696481e+00 
       4.175469971226e+00       2.278569841314e+00 
       5.256605252960e+00       1.269314167826e+00 
       6.617673932723e+00       7.030976762237e-01 
       8.331157880872e+00       3.874460154156e-01 
       1.048830636590e+01       2.124857547032e-01 
       1.320399541071e+01       1.160160024730e-01 
       1.662284535976e+01       6.308275644125e-02 
       2.092692243973e+01       3.416739157786e-02 
       2.634543445002e+01       1.843626271493e-02 
       3.316693691389e+01       9.911526691979e-03 
       4.175469971226e+01       5.308605939414e-03 
       5.256605252960e+01       2.831994516370e-03 
       6.617673932723e+01       1.504009795438e-03 
