# Matter power spectrum P(k) at redshift z=0
# for k=1.04775e-05 to 67.6233 h/Mpc,
# number of wavenumbers equal to 246
#    1:k (h/Mpc)              2:P (Mpc/h)^3        
       1.047750691046e-05       5.020964620825e+01 
       1.131335172503e-05       5.407047754589e+01 
       1.221587619537e-05       5.822819830192e+01 
       1.319039970183e-05       6.270561031655e+01 
       1.424266597921e-05       6.752730246852e+01 
       1.537887696968e-05       7.271976078429e+01 
       1.660572937635e-05       7.831146196059e+01 
       1.793045413292e-05       8.433311736576e+01 
       1.936085902198e-05       9.081779122290e+01 
       2.090537469327e-05       9.780105919628e+01 
       2.257310435294e-05       1.053212857282e+02 
       2.437387741694e-05       1.134197155194e+02 
       2.631830744443e-05       1.221408152913e+02 
       2.841785469300e-05       1.315324460624e+02 
       3.068489366414e-05       1.416461556177e+02 
       3.313278603720e-05       1.525374369414e+02 
       3.577595942169e-05       1.642660461314e+02 
       3.862999239199e-05       1.768963370475e+02 
       4.171170630578e-05       1.904975961453e+02 
       4.503926444729e-05       2.051444209807e+02 
       4.863227907969e-05       2.209171366650e+02 
       5.251192703764e-05       2.379022219539e+02 
       5.670107454120e-05       2.561927805762e+02 
       6.122441196689e-05       2.758890499604e+02 
       6.610859936996e-05       2.970989229758e+02 
       7.138242361596e-05       3.199385572269e+02 
       7.707696804727e-05       3.445329742568e+02 
       8.322579568497e-05       3.710167330287e+02 
       8.986514704559e-05       3.995346455243e+02 
       9.703415373875e-05       4.302425400781e+02 
       1.047750691046e-04       4.633080777538e+02 
       1.131335172503e-04       4.989116277583e+02 
       1.221587619537e-04       5.372471950305e+02 
       1.319039970183e-04       5.785234109585e+02 
       1.424266597921e-04       6.229645933021e+02 
       1.537887696968e-04       6.708118481589e+02 
       1.660572937635e-04       7.223242650942e+02 
       1.793045413292e-04       7.777801529045e+02 
       1.936085902198e-04       8.374783556330e+02 
       2.090537469327e-04       9.017396182723e+02 
       2.257310435294e-04       9.709080143952e+02 
       2.437387741694e-04       1.045352429981e+03 
       2.631830744443e-04       1.125468094380e+03 
       2.841785469300e-04       1.211678138378e+03 
       3.068489366414e-04       1.304435187520e+03 
       3.313278603720e-04       1.404222963466e+03 
       3.577595942169e-04       1.511557889253e+03 
       3.862999239199e-04       1.626990651553e+03 
       4.171170630578e-04       1.751107754529e+03 
       4.503926444729e-04       1.884532988975e+03 
       4.863227907969e-04       2.027928811259e+03 
       5.251192703764e-04       2.181997625331e+03 
       5.670107454121e-04       2.347482916986e+03 
       6.122441196689e-04       2.525170161279e+03 
       6.610859936996e-04       2.715887520145e+03 
       7.138242361596e-04       2.920506143290e+03 
       7.707696804727e-04       3.139939990181e+03 
       8.322579568497e-04       3.375145006804e+03 
       8.986514704559e-04       3.627117322041e+03 
       9.703415373875e-04       3.896890368655e+03 
       1.047750691046e-03       4.185530587899e+03 
       1.131335172503e-03       4.494131588917e+03 
       1.221587619537e-03       4.823806710722e+03 
       1.319039970183e-03       5.175680040348e+03 
       1.424266597921e-03       5.550929938011e+03 
       1.537887696968e-03       5.950660215919e+03 
       1.660572937635e-03       6.375940572898e+03 
       1.793045413292e-03       6.827814783368e+03 
       1.936085902198e-03       7.307258527325e+03 
       2.090537469327e-03       7.815153870841e+03 
       2.257310435294e-03       8.352260936854e+03 
       2.437387741694e-03       8.919186614095e+03 
       2.631830744443e-03       9.516348203008e+03 
       2.841785469300e-03       1.014393277903e+04 
       3.068489366414e-03       1.080185308552e+04 
       3.313278603720e-03       1.148969697890e+04 
       3.577595942169e-03       1.220666669531e+04 
       3.862999239199e-03       1.295151176675e+04 
       4.171170630578e-03       1.372245653551e+04 
       4.503926444729e-03       1.451712096589e+04 
       4.863227907969e-03       1.533240916657e+04 
       5.251192703764e-03       1.616455199576e+04 
       5.670107454120e-03       1.700889382368e+04 
       6.122441196689e-03       1.785963779522e+04 
       6.610859936996e-03       1.871001321963e+04 
       7.138242361596e-03       1.955199548169e+04 
       7.707696804727e-03       2.037617517981e+04 
       8.322579568496e-03       2.117165366472e+04 
       8.986514704559e-03       2.192573849608e+04 
       9.703415373875e-03       2.262403886618e+04 
       1.047750691046e-02       2.325013263940e+04 
       1.131335172503e-02       2.378555732559e+04 
       1.221587619537e-02       2.420963779368e+04 
       1.319039970183e-02       2.449977756256e+04 
       1.424266597920e-02       2.463136951706e+04 
       1.537887696964e-02       2.457851448637e+04 
       1.660572937560e-02       2.431443526528e+04 
       1.793045412207e-02       2.381281945790e+04 
       1.936085889642e-02       2.304962378227e+04 
       2.090537351881e-02       2.200510356557e+04 
       2.257309534705e-02       2.066717827856e+04 
       2.437382002240e-02       1.903492997734e+04 
       2.631799943729e-02       1.712366035752e+04 
       2.841644544598e-02       1.496930572743e+04 
       3.067933354524e-02       1.263350634454e+04 
       3.311368469821e-02       1.020799535767e+04 
       3.571840442514e-02       7.814594122946e+03 
       3.847720347390e-02       5.596247119607e+03 
       4.135335537314e-02       3.691576813786e+03 
       4.429361666563e-02       2.197198196204e+03 
       4.724366437916e-02       1.139167183460e+03 
       5.016480834039e-02       4.762168351338e+02 
       5.303989618930e-02       1.282229417006e+02 
       5.586870668205e-02       5.483366896425e+00 
       5.866042679206e-02       2.623475710163e+01 
       6.142798931504e-02       1.233631952686e+02 
       6.418496438662e-02       2.456067121580e+02 
       6.694418832236e-02       3.566740881055e+02 
       6.971731104453e-02       4.337936231458e+02 
       7.251476154108e-02       4.659946387942e+02 
       7.534587669814e-02       4.522383086241e+02 
       7.821907664495e-02       3.993239449593e+02 
       8.114203771084e-02       3.194747711847e+02 
       8.412184533139e-02       2.277377008612e+02 
       8.716512277352e-02       1.393394482375e+02 
       9.027813693913e-02       6.718712054569e+01 
       9.346688429613e-02       1.991200828474e+01 
       9.673716026122e-02       6.373023055517e-01 
       1.000946150608e-01       6.767348018034e+00 
       1.035447986307e-01       3.086575699636e+01 
       1.070931966524e-01       6.251380816435e+01 
       1.107452594180e-01       9.082225266967e+01 
       1.145064248899e-01       1.070492893728e+02 
       1.183821370656e-01       1.066919997235e+02 
       1.223778605591e-01       9.046374907536e+01 
       1.264990921707e-01       6.379582384414e+01 
       1.307513701078e-01       3.494059379815e+01 
       1.351402814485e-01       1.216020808101e+01 
       1.396714683894e-01       9.116476633044e-01 
       1.443506337875e-01       2.053809394253e+00 
       1.491835464900e-01       1.180014840897e+01 
       1.541760469368e-01       2.352017533768e+01 
       1.593340535209e-01       3.071735144832e+01 
       1.646635701934e-01       2.988524955398e+01 
       1.701706958081e-01       2.187608133604e+01 
       1.758616357070e-01       1.106622699714e+01 
       1.817427160581e-01       2.717720467738e+00 
       1.878204014651e-01       5.616976266756e-03 
       1.941013163855e-01       2.445929113913e+00 
       2.005922709060e-01       6.647880225188e+00 
       2.073002914514e-01       8.850987050765e+00 
       2.142326570343e-01       7.508604919191e+00 
       2.213969417044e-01       3.930922474245e+00 
       2.288010639201e-01       8.344026416953e-01 
       2.364533436625e-01       3.584801258600e-02 
       2.443625682390e-01       1.112702734485e+00 
       2.525380678946e-01       2.247763134977e+00 
       2.609898025770e-01       2.138486728249e+00 
       2.697284614969e-01       1.038224996804e+00 
       2.787655775073e-01       1.327689312187e-01 
       2.881136588192e-01       6.945588550510e-02 
       2.977863412019e-01       4.451382115976e-01 
       3.077985646248e-01       5.523588561976e-01 
       3.181667793367e-01       2.781969577601e-01 
       3.289091877084e-01       2.607963972617e-02 
       3.400460298905e-01       3.109164486391e-02 
       3.515999235695e-01       1.185456224461e-01 
       3.635962710278e-01       9.528137091795e-02 
       3.760637505499e-01       1.792972111554e-02 
       3.890349143014e-01       2.796336591435e-03 
       4.025469215929e-01       2.242995977106e-02 
       4.166424455447e-01       1.571736939652e-02 
       4.313708034899e-01       1.104668202485e-03 
       4.467893781976e-01       2.178800976991e-03 
       4.629654198623e-01       3.970292041885e-03 
       4.799783500912e-01       7.051643087421e-04 
       4.979227318246e-01       1.882938745222e-04 
       5.169121269689e-01       5.347377097446e-04 
       5.370841403262e-01       4.514309892123e-05 
       5.586070463286e-01       6.196207472891e-05 
       5.816885093582e-01       4.001190692882e-05 
       6.065870143577e-01       1.847535805624e-06 
       6.336266466978e-01       6.544775803398e-06 
       6.632156057925e-01       3.669221605689e-07 
       6.958678637575e-01       1.793485208643e-06 
       7.322247983784e-01       1.626020157780e-08 
       7.730680193171e-01       2.118695341443e-08 
       8.193049551574e-01       9.066460618456e-09 
       8.718988013754e-01       5.851216736250e-09 
       9.317218028590e-01       3.373712341712e-08 
       9.993660906273e-01       5.104684490838e-08 
       1.075037109879e+00       4.585070101327e-10 
       1.158653485387e+00       7.108335120572e-11 
       1.250099156961e+00       1.370935254109e-08 
       1.349432400897e+00       1.711487795401e-09 
       1.456947456991e+00       3.658429151243e-10 
       1.573135110893e+00       1.845253034644e-09 
       1.698621895119e+00       3.090106383139e-13 
       1.834127512423e+00       5.750528946087e-10 
       1.980444933977e+00       8.063032245771e-11 
       2.138435191130e+00       3.823425167610e-13 
       2.309029198543e+00       5.984527592229e-10 
       2.493232376993e+00       3.714597986972e-13 
       2.692130394536e+00       8.617563921272e-12 
       2.906895533764e+00       2.020285353198e-11 
       3.138793596840e+00       1.243464320943e-11 
       3.389191365541e+00       1.991052480046e-11 
       3.659564656886e+00       5.406963462585e-12 
       3.951507021438e+00       7.066768070875e-12 
       4.266739135513e+00       1.383027047022e-13 
       4.607118942658e+00       1.113716398701e-12 
       4.974652604172e+00       1.889623439896e-12 
       5.371506323193e+00       1.172826749732e-13 
       5.800019112071e+00       7.964357883649e-14 
       6.262716578240e+00       2.061292076310e-14 
       6.762325809881e+00       5.180302736046e-13 
       7.301791449077e+00       3.315793703454e-13 
       7.884293047211e+00       1.330598650199e-13 
       8.513263804891e+00       9.170553646671e-15 
       9.192410806865e+00       1.043606666719e-13 
       9.925736871166e+00       3.803115056684e-15 
       1.071756414128e+01       1.737962842829e-15 
       1.157255956041e+01       3.256676505729e-14 
       1.249576237789e+01       2.342629082500e-14 
       1.349261385000e+01       1.614983790018e-14 
       1.456898931011e+01       1.107788470195e-14 
       1.573123279727e+01       3.216842994483e-16 
       1.698619444729e+01       1.760490475625e-16 
       1.834127086665e+01       1.544835756363e-16 
       1.980444872733e+01       2.156185268816e-16 
       2.138435183937e+01       2.315068610480e-16 
       2.309029197863e+01       1.171287934692e-15 
       2.493232376942e+01       7.763597458437e-16 
       2.692130394533e+01       1.839581009612e-19 
       2.906895533764e+01       5.111222478145e-17 
       3.138793596840e+01       8.982976703708e-17 
       3.389191365541e+01       1.619088953071e-16 
       3.659564656886e+01       1.173393979923e-19 
       3.951507021438e+01       1.190075241704e-17 
       4.266739135513e+01       6.202525851531e-17 
       4.607118942658e+01       3.892883560234e-17 
       4.974652604172e+01       1.841990237788e-18 
       5.371506323193e+01       3.220116907591e-19 
       5.800019112071e+01       2.502264558423e-19 
       6.262716578240e+01       7.721449930651e-18 
       6.762325809881e+01       8.047183452498e-19 
