# Matter power spectrum P(k) at redshift z=99
# for k=1.04775e-05 to 66.1767 h/Mpc,
# number of wavenumbers equal to 130
#    1:k (h/Mpc)              2:P (Mpc/h)^3        
       1.047750691046e-05       7.262051954952e-03 
       1.319039970183e-05       9.069413445619e-03 
       1.660572937635e-05       1.132658515575e-02 
       2.090537469327e-05       1.414551183923e-02 
       2.631830744443e-05       1.766599621099e-02 
       3.313278603720e-05       2.206263102655e-02 
       4.171170630578e-05       2.755344883097e-02 
       5.251192703764e-05       3.441072457270e-02 
       6.610859936996e-05       4.297445898288e-02 
       8.322579568497e-05       5.366918664496e-02 
       1.047750691046e-04       6.702494465827e-02 
       1.319039970183e-04       8.370336132580e-02 
       1.660572937635e-04       1.045301140596e-01 
       2.090537469327e-04       1.305351247857e-01 
       2.631830744443e-04       1.630021946452e-01 
       3.313278603720e-04       2.035297910085e-01 
       4.171170630578e-04       2.541046347457e-01 
       5.251192703764e-04       3.171890052921e-01 
       6.610859936996e-04       3.958207467883e-01 
       8.322579568497e-04       4.937205406809e-01 
       1.047750691046e-03       6.153916637092e-01 
       1.319039970183e-03       7.661790441059e-01 
       1.660572937635e-03       9.522625479081e-01 
       2.090537469327e-03       1.180305371343e+00 
       2.631830744443e-03       1.456765275894e+00 
       3.313278603720e-03       1.786393427725e+00 
       4.171170630578e-03       2.169608878289e+00 
       5.251192703764e-03       2.598712722050e+00 
       6.610859936996e-03       3.053904600088e+00 
       8.322579568497e-03       3.501460146856e+00 
       1.047750691046e-02       3.895436562048e+00 
       1.319039970183e-02       4.178036722572e+00 
       1.660572937633e-02       4.275159474370e+00 
       2.090537453514e-02       4.106750330325e+00 
       2.631818545635e-02       3.624277944732e+00 
       3.311571692125e-02       2.871230381398e+00 
       4.113809243311e-02       2.066514178973e+00 
       4.792590854610e-02       1.555656501289e+00 
       5.284436902701e-02       1.279061435840e+00 
       5.689644391095e-02       1.096907879756e+00 
       6.051252627066e-02       9.600658802422e-01 
       6.388413457411e-02       8.482154465052e-01 
       6.711249296401e-02       7.512673860337e-01 
       7.025823437965e-02       6.637139149504e-01 
       7.336115587705e-02       5.825258191620e-01 
       7.644928796912e-02       5.061607612848e-01 
       7.954353299775e-02       4.340899491484e-01 
       8.266024078725e-02       3.664409429994e-01 
       8.581273398637e-02       3.037506707291e-01 
       8.901225918437e-02       2.467388566456e-01 
       9.226860540985e-02       1.961085265546e-01 
       9.559052048996e-02       1.523687777574e-01 
       9.898599946599e-02       1.157123643080e-01 
       1.024624891378e-01       8.596298510493e-02 
       1.060270359164e-01       6.259350659835e-02 
       1.096863943056e-01       4.479523214770e-02 
       1.134471073830e-01       3.160181373182e-02 
       1.173155669539e-01       2.201431100190e-02 
       1.212980586983e-01       1.510611435135e-02 
       1.254007961065e-01       1.010226518510e-02 
       1.296299459934e-01       6.420848780684e-03 
       1.339916477160e-01       3.684316089308e-03 
       1.384920277736e-01       1.708229725677e-03 
       1.431372111762e-01       4.635038082607e-04 
       1.479333307714e-01       1.727478796352e-06 
       1.528865355934e-01       3.515131055168e-04 
       1.580029992204e-01       1.416911256527e-03 
       1.632889290723e-01       2.927823552516e-03 
       1.687505775527e-01       4.487462580913e-03 
       1.743942559171e-01       5.707350221019e-03 
       1.802263517371e-01       6.358440595161e-03 
       1.862533508214e-01       6.433873142161e-03 
       1.924818644494e-01       6.118174384216e-03 
       1.989186627765e-01       5.681631001320e-03 
       2.055707152847e-01       5.313739075250e-03 
       2.124452391818e-01       5.059830340614e-03 
       2.195497567139e-01       4.850262334572e-03 
       2.268921624510e-01       4.561390022138e-03 
       2.344808017550e-01       4.073108862649e-03 
       2.423245618548e-01       3.352093849806e-03 
       2.504329772620e-01       2.510147321379e-03 
       2.588163516754e-01       1.726132451350e-03 
       2.674858990930e-01       1.119919481966e-03 
       2.764539076010e-01       7.134075566170e-04 
       2.857339303080e-01       4.532796335517e-04 
       2.953410092148e-01       2.688251868163e-04 
       3.052919395542e-01       1.279692356976e-04 
       3.156055844677e-01       3.531533516130e-05 
       3.263032530092e-01       7.322418599346e-07 
       3.374091587054e-01       9.603601601670e-06 
       3.489509817175e-01       3.228102936592e-05 
       3.609605657343e-01       5.261776284492e-05 
       3.734747921333e-01       7.143071267625e-05 
       3.865366902904e-01       8.821373629460e-05 
       4.001968667448e-01       9.503833910352e-05 
       4.145153713076e-01       8.586333270878e-05 
       4.295641718077e-01       6.752881394301e-05 
       4.454304922144e-01       4.870189548840e-05 
       4.622214006969e-01       3.232685093412e-05 
       4.800702491654e-01       1.766384964698e-05 
       4.991459272112e-01       6.840865641677e-06 
       5.196665217302e-01       1.533544299278e-06 
       5.419201087032e-01       9.444644728354e-09 
       5.662975451962e-01       6.662360983509e-07 
       5.933463737275e-01       1.833041358219e-06 
       6.238638458458e-01       2.342753626533e-06 
       6.590669257916e-01       1.853542164008e-06 
       7.009246080454e-01       8.465395395776e-07 
       7.528593308799e-01       1.219460598825e-07 
       8.213469537518e-01       1.167088032310e-08 
       9.196980813302e-01       3.562615532463e-08 
       1.075112183810e+00       4.877034348643e-10 
       1.322697471132e+00       2.618318181961e-10 
       1.662328205042e+00       1.884679414253e-11 
       2.092692408506e+00       5.872447120773e-12 
       2.634543445090e+00       2.236536154864e-12 
       3.316693691389e+00       7.123475589814e-13 
       4.175469971226e+00       2.570182877028e-13 
       5.256605252960e+00       8.690222802928e-14 
       6.617673932723e+00       2.719558395234e-14 
       8.331157880872e+00       9.163304712752e-15 
       1.048830636590e+01       2.809464583595e-15 
       1.320399541071e+01       8.743261714748e-16 
       1.662284535976e+01       2.433885891934e-16 
       2.092692243973e+01       5.853186495748e-17 
       2.634543445002e+01       1.312873111899e-17 
       3.316693691389e+01       2.059158063443e-18 
       4.175469971226e+01       1.848640244156e-19 
       5.256605252960e+01       8.310590620783e-21 
       6.617673932723e+01       4.434671255743e-22 
