# Matter power spectrum P(k) at redshift z=0
# for k=1.04775e-05 to 66.1767 h/Mpc,
# number of wavenumbers equal to 130
#    1:k (h/Mpc)              2:P (Mpc/h)^3        
       1.047750691046e-05       5.020965702029e+01 
       1.319039970183e-05       6.270561349704e+01 
       1.660572937635e-05       7.831146978632e+01 
       2.090537469327e-05       9.780106894508e+01 
       2.631830744443e-05       1.221408188555e+02 
       3.313278603720e-05       1.525374434997e+02 
       4.171170630578e-05       1.904975939589e+02 
       5.251192703764e-05       2.379022209602e+02 
       6.610859936996e-05       2.970989222624e+02 
       8.322579568497e-05       3.710167329465e+02 
       1.047750691046e-04       4.633080773433e+02 
       1.319039970183e-04       5.785234114585e+02 
       1.660572937635e-04       7.223242641647e+02 
       2.090537469327e-04       9.017396196218e+02 
       2.631830744443e-04       1.125468098234e+03 
       3.313278603720e-04       1.404222979845e+03 
       4.171170630578e-04       1.751107802788e+03 
       5.251192703764e-04       2.181997769222e+03 
       6.610859936996e-04       2.715887945527e+03 
       8.322579568497e-04       3.375146277885e+03 
       1.047750691046e-03       4.185534312687e+03 
       1.319039970183e-03       5.175690868365e+03 
       1.660572937635e-03       6.375971466052e+03 
       2.090537469327e-03       7.815240603877e+03 
       2.631830744443e-03       9.516587224070e+03 
       3.313278603720e-03       1.149034022907e+04 
       4.171170630578e-03       1.372414347919e+04 
       5.251192703764e-03       1.616884626268e+04 
       6.610859936996e-03       1.872059248757e+04 
       8.322579568497e-03       2.119676818290e+04 
       1.047750691046e-02       2.330745800299e+04 
       1.319039970183e-02       2.462443959856e+04 
       1.660572937633e-02       2.457019186270e+04 
       2.090537453514e-02       2.249114254403e+04 
       2.631818545635e-02       1.794990548389e+04 
       3.311571692125e-02       1.137953511892e+04 
       4.113809243311e-02       5.032407736642e+03 
       4.792590854610e-02       1.828237144491e+03 
       5.284436902701e-02       6.443748417568e+02 
       5.689644391095e-02       1.834746798308e+02 
       6.051252627066e-02       2.508198929298e+01 
       6.388413457411e-02       1.515940638112e+00 
       6.711249296401e-02       3.271077170728e+01 
       7.025823437965e-02       7.749974372622e+01 
       7.336115587705e-02       1.151878706000e+02 
       7.644928796912e-02       1.370064725045e+02 
       7.954353299775e-02       1.413967176554e+02 
       8.266024078725e-02       1.309739456395e+02 
       8.581273398637e-02       1.104391544266e+02 
       8.901225918437e-02       8.501491019704e+01 
       9.226860540985e-02       5.938741456764e+01 
       9.559052048996e-02       3.702773424878e+01 
       9.898599946599e-02       1.991417972541e+01 
       1.024624891378e-01       8.586275211288e+00 
       1.060270359164e-01       2.438901558501e+00 
       1.096863943056e-01       1.686146572308e-01 
       1.134471073830e-01       2.408898505024e-01 
       1.173155669539e-01       1.282022962293e+00 
       1.212980586983e-01       2.322496362259e+00 
       1.254007961065e-01       2.869222755599e+00 
       1.296299459934e-01       2.833601359603e+00 
       1.339916477160e-01       2.376019407867e+00 
       1.384920277736e-01       1.739718302989e+00 
       1.431372111762e-01       1.129319043964e+00 
       1.479333307714e-01       6.566808686899e-01 
       1.528865355934e-01       3.453516727670e-01 
       1.580029992204e-01       1.656941862528e-01 
       1.632889290723e-01       7.229535427253e-02 
       1.687505775527e-01       2.730610891299e-02 
       1.743942559171e-01       7.084510601634e-03 
       1.802263517371e-01       2.154362270156e-04 
       1.862533508214e-01       2.599950841605e-03 
       1.924818644494e-01       1.200276109807e-02 
       1.989186627765e-01       2.512100558438e-02 
       2.055707152847e-01       3.776856107293e-02 
       2.124452391818e-01       4.241707149553e-02 
       2.195497567139e-01       3.575734501801e-02 
       2.268921624510e-01       2.346775858723e-02 
       2.344808017550e-01       1.147108151364e-02 
       2.423245618548e-01       3.144365566460e-03 
       2.504329772620e-01       1.594737301501e-04 
       2.588163516754e-01       2.017720677876e-04 
       2.674858990930e-01       8.733144779894e-04 
       2.764539076010e-01       1.259514406054e-03 
       2.857339303080e-01       1.057010755664e-03 
       2.953410092148e-01       8.145812924697e-04 
       3.052919395542e-01       4.650032266785e-04 
       3.156055844677e-01       1.442662908133e-04 
       3.263032530092e-01       1.629359997116e-05 
       3.374091587054e-01       2.243474021496e-05 
       3.489509817175e-01       7.352221702609e-05 
       3.609605657343e-01       1.059323672057e-04 
       3.734747921333e-01       7.312731549204e-05 
       3.865366902904e-01       4.715873786730e-05 
       4.001968667448e-01       2.041379695095e-05 
       4.145153713076e-01       1.232686436225e-05 
       4.295641718077e-01       2.708929079677e-06 
       4.454304922144e-01       1.116007435511e-06 
       4.622214006969e-01       2.646414689148e-07 
       4.800702491654e-01       2.249961722289e-07 
       4.991459272112e-01       1.141965111844e-06 
       5.196665217302e-01       1.788329371933e-06 
       5.419201087032e-01       1.366401814283e-06 
       5.662975451962e-01       7.249410381522e-07 
       5.933463737275e-01       3.841906169706e-07 
       6.238638458458e-01       2.920594385411e-07 
       6.590669257916e-01       2.058113324323e-07 
       7.009246080454e-01       5.684575669326e-07 
       7.528593308799e-01       3.697539683041e-07 
       8.213469537518e-01       3.749043506080e-08 
       9.196980813302e-01       3.284177937540e-08 
       1.075112183810e+00       8.978877379248e-09 
       1.322697471132e+00       3.068954466964e-09 
       1.662328205042e+00       2.054815912990e-10 
       2.092692408506e+00       7.274226481162e-10 
       2.634543445090e+00       1.937208700713e-10 
       3.316693691389e+00       1.445381386154e-10 
       4.175469971226e+00       9.527933476526e-13 
       5.256605252960e+00       3.580156872081e-13 
       6.617673932723e+00       1.273283135189e-13 
       8.331157880872e+00       2.249532617236e-13 
       1.048830636590e+01       9.959951203081e-17 
       1.320399541071e+01       1.190137675502e-13 
       1.662284535976e+01       1.777156154879e-14 
       2.092692243973e+01       2.483264665178e-15 
       2.634543445002e+01       1.581978521856e-15 
       3.316693691389e+01       4.753244317151e-16 
       4.175469971226e+01       1.247401657230e-16 
       5.256605252960e+01       6.008040454162e-17 
       6.617673932723e+01       3.203611717000e-18 
