# Matter power spectrum P(k) at redshift z=0
# for k=1.04775e-05 to 66.1767 h/Mpc,
# number of wavenumbers equal to 130
#    1:k (h/Mpc)              2:P (Mpc/h)^3        
       1.047750691046e-05       5.020958247054e+01 
       1.319039970183e-05       6.270554545187e+01 
       1.660572937635e-05       7.831141171814e+01 
       2.090537469327e-05       9.780088378696e+01 
       2.631830744443e-05       1.221407846704e+02 
       3.313278603720e-05       1.525374130834e+02 
       4.171170630578e-05       1.904975810831e+02 
       5.251192703764e-05       2.379021654562e+02 
       6.610859936996e-05       2.970989029292e+02 
       8.322579568497e-05       3.710166855944e+02 
       1.047750691046e-04       4.633080281401e+02 
       1.319039970183e-04       5.785233704692e+02 
       1.660572937635e-04       7.223242334514e+02 
       2.090537469327e-04       9.017395885144e+02 
       2.631830744443e-04       1.125468063384e+03 
       3.313278603720e-04       1.404222925732e+03 
       4.171170630578e-04       1.751107707677e+03 
       5.251192703764e-04       2.181997546638e+03 
       6.610859936996e-04       2.715887374293e+03 
       8.322579568497e-04       3.375144667916e+03 
       1.047750691046e-03       4.185529713238e+03 
       1.319039970183e-03       5.175677915081e+03 
       1.660572937635e-03       6.375934763409e+03 
       2.090537469327e-03       7.815138040113e+03 
       2.631830744443e-03       9.516304873661e+03 
       3.313278603720e-03       1.148958028580e+04 
       4.171170630578e-03       1.372215010748e+04 
       5.251192703764e-03       1.616375571691e+04 
       6.610859936996e-03       1.870690234131e+04 
       8.322579568497e-03       2.116698645652e+04 
       1.047750691046e-02       2.323862378341e+04 
       1.319039970183e-02       2.447586192727e+04 
       1.660572937633e-02       2.426583191552e+04 
       2.090537453514e-02       2.191291544797e+04 
       2.631818545635e-02       1.696633205314e+04 
       3.311571692125e-02       9.983746201168e+03 
       4.113809243311e-02       3.597836938221e+03 
       4.792590854610e-02       8.111294315430e+02 
       5.284436902701e-02       8.666240409551e+01 
       5.689644391095e-02       1.155098812300e+01 
       6.051252627066e-02       1.471955090893e+02 
       6.388413457411e-02       3.243014627512e+02 
       6.711249296401e-02       4.680434489107e+02 
       7.025823437965e-02       5.476102415349e+02 
       7.336115587705e-02       5.568870559545e+02 
       7.644928796912e-02       5.049077459125e+02 
       7.954353299775e-02       4.097349234093e+02 
       8.266024078725e-02       2.936120169740e+02 
       8.581273398637e-02       1.788931499002e+02 
       8.901225918437e-02       8.452458055454e+01 
       9.226860540985e-02       2.331324465088e+01 
       9.559052048996e-02       2.684007103076e-01 
       9.898599946599e-02       1.227264042919e+01 
       1.024624891378e-01       4.922120748313e+01 
       1.060270359164e-01       9.652773528458e+01 
       1.096863943056e-01       1.386038806325e+02 
       1.134471073830e-01       1.626258272759e+02 
       1.173155669539e-01       1.617091351908e+02 
       1.212980586983e-01       1.366351690017e+02 
       1.254007961065e-01       9.545166447475e+01 
       1.296299459934e-01       5.090201367568e+01 
       1.339916477160e-01       1.621754771567e+01 
       1.384920277736e-01       5.548520328394e-01 
       1.431372111762e-01       5.690462581134e+00 
       1.479333307714e-01       2.540410735509e+01 
       1.528865355934e-01       4.808082360940e+01 
       1.580029992204e-01       6.177059579807e+01 
       1.632889290723e-01       5.961785035259e+01 
       1.687505775527e-01       4.305131571190e+01 
       1.743942559171e-01       2.085696206504e+01 
       1.802263517371e-01       4.224092307504e+00 
       1.862533508214e-01       3.192545420713e-01 
       1.924818644494e-01       8.173247014989e+00 
       1.989186627765e-01       1.965276588097e+01 
       2.055707152847e-01       2.521794923248e+01 
       2.124452391818e-01       2.075326354027e+01 
       2.195497567139e-01       1.012212418523e+01 
       2.268921624510e-01       1.541808800167e+00 
       2.344808017550e-01       6.093612140810e-01 
       2.423245618548e-01       5.640466384313e+00 
       2.504329772620e-01       9.936548976399e+00 
       2.588163516754e-01       8.729745252799e+00 
       2.674858990930e-01       3.633769807476e+00 
       2.764539076010e-01       1.606450900987e-01 
       2.857339303080e-01       1.050637519103e+00 
       2.953410092148e-01       3.551648102089e+00 
       3.052919395542e-01       3.646597317027e+00 
       3.156055844677e-01       1.374245340043e+00 
       3.263032530092e-01       3.973442702274e-03 
       3.374091587054e-01       7.865318535968e-01 
       3.489509817175e-01       1.544022661191e+00 
       3.609605657343e-01       8.108846475744e-01 
       3.734747921333e-01       1.817076975664e-02 
       3.865366902904e-01       3.040111672789e-01 
       4.001968667448e-01       5.538086989047e-01 
       4.145153713076e-01       1.514535802513e-01 
       4.295641718077e-01       2.721706631049e-02 
       4.454304922144e-01       2.018699044886e-01 
       4.622214006969e-01       7.311613393030e-02 
       4.800702491654e-01       1.222503148230e-02 
       4.991459272112e-01       6.665015185949e-02 
       5.196665217302e-01       3.707741213914e-03 
       5.419201087032e-01       2.022289122288e-02 
       5.662975451962e-01       3.911342790652e-03 
       5.933463737275e-01       6.406440036068e-03 
       6.238638458458e-01       5.353685252143e-05 
       6.590669257916e-01       1.285632104609e-03 
       7.009246080454e-01       5.312848766326e-04 
       7.528593308799e-01       1.544698725839e-04 
       8.213469537518e-01       7.988904048343e-06 
       9.196980813302e-01       1.034969616100e-06 
       1.075112183810e+00       1.865533924896e-08 
       1.322697471132e+00       8.420138217584e-12 
       1.662328205042e+00       2.032420325408e-09 
       2.092692408506e+00       2.945580554332e-10 
       2.634543445090e+00       4.517230820073e-11 
       3.316693691389e+00       4.539443305378e-13 
       4.175469971226e+00       5.277895359050e-12 
       5.256605252960e+00       9.960238206945e-13 
       6.617673932723e+00       3.619065011580e-14 
       8.331157880872e+00       2.261965886146e-14 
       1.048830636590e+01       4.274598734661e-16 
       1.320399541071e+01       1.874503571905e-15 
       1.662284535976e+01       5.553316286101e-16 
       2.092692243973e+01       7.343430168946e-17 
       2.634543445002e+01       6.825619630209e-17 
       3.316693691389e+01       5.828192208550e-18 
       4.175469971226e+01       4.912343704237e-18 
       5.256605252960e+01       2.012409110183e-18 
       6.617673932723e+01       2.185686439535e-18 
