# Matter power spectrum P(k) at redshift z=99
# for k=1.04775e-05 to 66.1767 h/Mpc,
# number of wavenumbers equal to 130
#    1:k (h/Mpc)              2:P (Mpc/h)^3        
       1.047750691046e-05       7.261927680921e-03 
       1.319039970183e-05       9.069258201923e-03 
       1.660572937635e-05       1.132639106734e-02 
       2.090537469327e-05       1.414527123411e-02 
       2.631830744443e-05       1.766569584072e-02 
       3.313278603720e-05       2.206225515960e-02 
       4.171170630578e-05       2.755297766299e-02 
       5.251192703764e-05       3.441013522975e-02 
       6.610859936996e-05       4.297372172812e-02 
       8.322579568497e-05       5.366826852988e-02 
       1.047750691046e-04       6.702379872829e-02 
       1.319039970183e-04       8.370193441354e-02 
       1.660572937635e-04       1.045283355393e-01 
       2.090537469327e-04       1.305329134114e-01 
       2.631830744443e-04       1.629994506618e-01 
       3.313278603720e-04       2.035264004617e-01 
       4.171170630578e-04       2.541004744262e-01 
       5.251192703764e-04       3.171839528581e-01 
       6.610859936996e-04       3.958147256542e-01 
       8.322579568497e-04       4.937136006324e-01 
       1.047750691046e-03       6.153841636077e-01 
       1.319039970183e-03       7.661720592490e-01 
       1.660572937635e-03       9.522588016491e-01 
       2.090537469327e-03       1.180312991695e+00 
       2.631830744443e-03       1.456802684668e+00 
       3.313278603720e-03       1.786503853982e+00 
       4.171170630578e-03       2.169896194646e+00 
       5.251192703764e-03       2.599430630357e+00 
       6.610859936996e-03       3.055668699508e+00 
       8.322579568497e-03       3.505725596097e+00 
       1.047750691046e-02       3.905490949174e+00 
       1.319039970183e-02       4.200915392233e+00 
       1.660572937633e-02       4.325061011810e+00 
       2.090537453514e-02       4.210203645965e+00 
       2.631818545635e-02       3.825144988885e+00 
       3.311571692125e-02       3.229060522686e+00 
       4.113809243311e-02       2.627732239048e+00 
       4.792590854610e-02       2.280791796894e+00 
       5.284436902701e-02       2.110092431027e+00 
       5.689644391095e-02       2.003535466040e+00 
       6.051252627066e-02       1.923056188151e+00 
       6.388413457411e-02       1.852736724323e+00 
       6.711249296401e-02       1.784562582082e+00 
       7.025823437965e-02       1.714275094776e+00 
       7.336115587705e-02       1.639812850423e+00 
       7.644928796912e-02       1.560662429322e+00 
       7.954353299775e-02       1.477457664325e+00 
       8.266024078725e-02       1.391698295866e+00 
       8.581273398637e-02       1.305463441487e+00 
       8.901225918437e-02       1.221125900369e+00 
       9.226860540985e-02       1.141077699135e+00 
       9.559052048996e-02       1.067454969978e+00 
       9.898599946599e-02       1.001889975047e+00 
       1.024624891378e-01       9.453825940295e-01 
       1.060270359164e-01       8.981479432706e-01 
       1.096863943056e-01       8.596112371643e-01 
       1.134471073830e-01       8.284033221895e-01 
       1.173155669539e-01       8.024649002633e-01 
       1.212980586983e-01       7.792298213987e-01 
       1.254007961065e-01       7.559171850750e-01 
       1.296299459934e-01       7.299815737442e-01 
       1.339916477160e-01       6.995925616172e-01 
       1.384920277736e-01       6.640778343352e-01 
       1.431372111762e-01       6.241459740499e-01 
       1.479333307714e-01       5.817637565165e-01 
       1.528865355934e-01       5.396889907725e-01 
       1.580029992204e-01       5.008128000718e-01 
       1.632889290723e-01       4.673971466691e-01 
       1.687505775527e-01       4.405329622999e-01 
       1.743942559171e-01       4.198655113048e-01 
       1.802263517371e-01       4.036581007354e-01 
       1.862533508214e-01       3.893597147668e-01 
       1.924818644494e-01       3.741338657836e-01 
       1.989186627765e-01       3.558015892525e-01 
       2.055707152847e-01       3.339998911189e-01 
       2.124452391818e-01       3.102658573224e-01 
       2.195497567139e-01       2.871215907707e-01 
       2.268921624510e-01       2.668065725804e-01 
       2.344808017550e-01       2.504817981302e-01 
       2.423245618548e-01       2.378321807855e-01 
       2.504329772620e-01       2.271108151002e-01 
       2.588163516754e-01       2.161167044938e-01 
       2.674858990930e-01       2.035442015350e-01 
       2.764539076010e-01       1.895964867945e-01 
       2.857339303080e-01       1.757562305668e-01 
       2.953410092148e-01       1.636986264296e-01 
       3.052919395542e-01       1.539055375833e-01 
       3.156055844677e-01       1.455302834508e-01 
       3.263032530092e-01       1.372489689539e-01 
       3.374091587054e-01       1.283011074280e-01 
       3.489509817175e-01       1.191702988886e-01 
       3.609605657343e-01       1.108063688740e-01 
       3.734747921333e-01       1.036441587205e-01 
       3.865366902904e-01       9.714035801087e-02 
       4.001968667448e-01       9.061457356620e-02 
       4.145153713076e-01       8.403613040305e-02 
       4.295641718077e-01       7.789036177384e-02 
       4.454304922144e-01       7.234076982380e-02 
       4.622214006969e-01       6.709270341576e-02 
       4.800702491654e-01       6.189101447409e-02 
       4.991459272112e-01       5.692544914657e-02 
       5.196665217302e-01       5.231535182960e-02 
       5.419201087032e-01       4.783168215261e-02 
       5.662975451962e-01       4.348595831844e-02 
       5.933463737275e-01       3.933030418797e-02 
       6.238638458458e-01       3.525250527072e-02 
       6.590669257916e-01       3.126202207275e-02 
       7.009246080454e-01       2.728663439835e-02 
       7.528593308799e-01       2.327765000425e-02 
       8.213469537518e-01       1.914750387862e-02 
       9.196980813302e-01       1.481636370727e-02 
       1.075112183810e+00       1.035030860427e-02 
       1.322697471132e+00       6.378923444242e-03 
       1.662328205042e+00       3.705195194069e-03 
       2.092692408506e+00       2.124167139937e-03 
       2.634543445090e+00       1.207644189102e-03 
       3.316693691389e+00       6.814482095107e-04 
       4.175469971226e+00       3.819071293972e-04 
       5.256605252960e+00       2.127006546993e-04 
       6.617673932723e+00       1.177804474938e-04 
       8.331157880872e+00       6.487276868949e-05 
       1.048830636590e+01       3.555260507504e-05 
       1.320399541071e+01       1.939141407839e-05 
       1.662284535976e+01       1.052750570073e-05 
       2.092692243973e+01       5.688666081618e-06 
       2.634543445002e+01       3.058816056122e-06 
       3.316693691389e+01       1.635741197570e-06 
       4.175469971226e+01       8.690744691158e-07 
       5.256605252960e+01       4.579658450301e-07 
       6.617673932723e+01       2.386883880548e-07 
