# Matter power spectrum P(k) at redshift z=0
# for k=1.04775e-05 to 66.1767 h/Mpc,
# number of wavenumbers equal to 130
#    1:k (h/Mpc)              2:P (Mpc/h)^3        
       1.047750691046e-05       5.020963733075e+01 
       1.319039970183e-05       6.270561507605e+01 
       1.660572937635e-05       7.831145524436e+01 
       2.090537469327e-05       9.780108835942e+01 
       2.631830744443e-05       1.221408354814e+02 
       3.313278603720e-05       1.525374306910e+02 
       4.171170630578e-05       1.904975935699e+02 
       5.251192703764e-05       2.379022350337e+02 
       6.610859936996e-05       2.970989231349e+02 
       8.322579568497e-05       3.710167326283e+02 
       1.047750691046e-04       4.633080761719e+02 
       1.319039970183e-04       5.785234119589e+02 
       1.660572937635e-04       7.223242653332e+02 
       2.090537469327e-04       9.017396249968e+02 
       2.631830744443e-04       1.125468118105e+03 
       3.313278603720e-04       1.404223041220e+03 
       4.171170630578e-04       1.751107982116e+03 
       5.251192703764e-04       2.181998315733e+03 
       6.610859936996e-04       2.715889586767e+03 
       8.322579568497e-04       3.375151154597e+03 
       1.047750691046e-03       4.185548678346e+03 
       1.319039970183e-03       5.175732579652e+03 
       1.660572937635e-03       6.376091153827e+03 
       2.090537469327e-03       7.815577110790e+03 
       2.631830744443e-03       9.517513290651e+03 
       3.313278603720e-03       1.149283278361e+04 
       4.171170630578e-03       1.373067963441e+04 
       5.251192703764e-03       1.618549917358e+04 
       6.610859936996e-03       1.876166914135e+04 
       8.322579568497e-03       2.129453500068e+04 
       1.047750691046e-02       2.353119694690e+04 
       1.319039970183e-02       2.511368655197e+04 
       1.660572937633e-02       2.558401212927e+04 
       2.090537453514e-02       2.445385921455e+04 
       2.631818545635e-02       2.141238489470e+04 
       3.311571692125e-02       1.671080790164e+04 
       4.113809243311e-02       1.169128233132e+04 
       4.792590854610e-02       8.509105748211e+03 
       5.284436902701e-02       6.796184970215e+03 
       5.689644391095e-02       5.680639433006e+03 
       6.051252627066e-02       4.855934476157e+03 
       6.388413457411e-02       4.195506142366e+03 
       6.711249296401e-02       3.636593865942e+03 
       7.025823437965e-02       3.144605465123e+03 
       7.336115587705e-02       2.700218407171e+03 
       7.644928796912e-02       2.292750752196e+03 
       7.954353299775e-02       1.917500884277e+03 
       8.266024078725e-02       1.573554201582e+03 
       8.581273398637e-02       1.262238566077e+03 
       8.901225918437e-02       9.859689306208e+02 
       9.226860540985e-02       7.471165211343e+02 
       9.559052048996e-02       5.470222860663e+02 
       9.898599946599e-02       3.854641550086e+02 
       1.024624891378e-01       2.603047341408e+02 
       1.060270359164e-01       1.676844884918e+02 
       1.096863943056e-01       1.024375216048e+02 
       1.134471073830e-01       5.882600797706e+01 
       1.173155669539e-01       3.122945335372e+01 
       1.212980586983e-01       1.477011281185e+01 
       1.254007961065e-01       5.643615803172e+00 
       1.296299459934e-01       1.233302575578e+00 
       1.339916477160e-01       1.030186226067e-03 
       1.384920277736e-01       1.259974355735e+00 
       1.431372111762e-01       4.870213731080e+00 
       1.479333307714e-01       1.086636855848e+01 
       1.528865355934e-01       1.903945373807e+01 
       1.580029992204e-01       2.858568756904e+01 
       1.632889290723e-01       3.799208986348e+01 
       1.687505775527e-01       4.536104786278e+01 
       1.743942559171e-01       4.909621384856e+01 
       1.802263517371e-01       4.859578880038e+01 
       1.862533508214e-01       4.447276688085e+01 
       1.924818644494e-01       3.827596029216e+01 
       1.989186627765e-01       3.185271878181e+01 
       2.055707152847e-01       2.638181059143e+01 
       2.124452391818e-01       2.212431499641e+01 
       2.195497567139e-01       1.873948397277e+01 
       2.268921624510e-01       1.568380499427e+01 
       2.344808017550e-01       1.246497237283e+01 
       2.423245618548e-01       8.956706279770e+00 
       2.504329772620e-01       5.575869182770e+00 
       2.588163516754e-01       2.911323404108e+00 
       2.674858990930e-01       1.233069871958e+00 
       2.764539076010e-01       4.065685206472e-01 
       2.857339303080e-01       8.729754107402e-02 
       2.953410092148e-01       8.837621474842e-04 
       3.052919395542e-01       4.607438997812e-02 
       3.156055844677e-01       2.085576593185e-01 
       3.263032530092e-01       4.488195359976e-01 
       3.374091587054e-01       6.432302955215e-01 
       3.489509817175e-01       7.015169460073e-01 
       3.609605657343e-01       6.420021079833e-01 
       3.734747921333e-01       5.509773946816e-01 
       3.865366902904e-01       4.603203872320e-01 
       4.001968667448e-01       3.549627618954e-01 
       4.145153713076e-01       2.288471834537e-01 
       4.295641718077e-01       1.182507797600e-01 
       4.454304922144e-01       4.775866641028e-02 
       4.622214006969e-01       1.314521488745e-02 
       4.800702491654e-01       5.180623731502e-04 
       4.991459272112e-01       3.199502125459e-03 
       5.196665217302e-01       1.136444448630e-02 
       5.419201087032e-01       1.665179674504e-02 
       5.662975451962e-01       1.733986392945e-02 
       5.933463737275e-01       1.262963116679e-02 
       6.238638458458e-01       6.215937634825e-03 
       6.590669257916e-01       1.573758398383e-03 
       7.009246080454e-01       2.115386959217e-05 
       7.528593308799e-01       2.685172711725e-04 
       8.213469537518e-01       2.658437439313e-04 
       9.196980813302e-01       1.306032739049e-06 
       1.075112183810e+00       1.624902656757e-05 
       1.322697471132e+00       4.032180643547e-09 
       1.662328205042e+00       1.465565764660e-07 
       2.092692408506e+00       2.503916326330e-08 
       2.634543445090e+00       8.149878461044e-09 
       3.316693691389e+00       2.643709682469e-09 
       4.175469971226e+00       9.796160864837e-10 
       5.256605252960e+00       3.246848845737e-10 
       6.617673932723e+00       1.004839321542e-10 
       8.331157880872e+00       3.285585626354e-11 
       1.048830636590e+01       9.784943100603e-12 
       1.320399541071e+01       3.024269275353e-12 
       1.662284535976e+01       8.241464122940e-13 
       2.092692243973e+01       1.871158607495e-13 
       2.634543445002e+01       4.088617089018e-14 
       3.316693691389e+01       5.888788318899e-15 
       4.175469971226e+01       4.472817696397e-16 
       5.256605252960e+01       5.313529293827e-18 
       6.617673932723e+01       2.711797817346e-18 
