# Matter power spectrum P(k) at redshift z=0
# for k=1.04775e-05 to 67.6233 h/Mpc,
# number of wavenumbers equal to 246
#    1:k (h/Mpc)              2:P (Mpc/h)^3        
       1.047750691338e-05       5.020962693805e+01 
       1.131335172818e-05       5.407047531088e+01 
       1.221587619877e-05       5.822819227416e+01 
       1.319039970550e-05       6.270561406401e+01 
       1.424266598317e-05       6.752730552881e+01 
       1.537887697396e-05       7.271975125064e+01 
       1.660572938097e-05       7.831146378800e+01 
       1.793045413791e-05       8.433312206750e+01 
       1.936085902737e-05       9.081779767707e+01 
       2.090537469909e-05       9.780106079972e+01 
       2.257310435923e-05       1.053212901778e+02 
       2.437387742372e-05       1.134197125688e+02 
       2.631830745176e-05       1.221408081088e+02 
       2.841785470091e-05       1.315324511685e+02 
       3.068489367268e-05       1.416461585550e+02 
       3.313278604643e-05       1.525374354329e+02 
       3.577595943165e-05       1.642660450158e+02 
       3.862999240274e-05       1.768963364738e+02 
       4.171170631739e-05       1.904975912336e+02 
       4.503926445983e-05       2.051444188955e+02 
       4.863227909323e-05       2.209171356678e+02 
       5.251192705226e-05       2.379022216380e+02 
       5.670107455699e-05       2.561927794413e+02 
       6.122441198393e-05       2.758890470594e+02 
       6.610859938837e-05       2.970989219270e+02 
       7.138242363583e-05       3.199385574197e+02 
       7.707696806873e-05       3.445329740123e+02 
       8.322579570814e-05       3.710167328239e+02 
       8.986514707061e-05       3.995346449206e+02 
       9.703415376577e-05       4.302425392982e+02 
       1.047750691338e-04       4.633080770881e+02 
       1.131335172818e-04       4.989116272559e+02 
       1.221587619877e-04       5.372471944543e+02 
       1.319039970550e-04       5.785234111383e+02 
       1.424266598317e-04       6.229645923856e+02 
       1.537887697396e-04       6.708118459022e+02 
       1.660572938097e-04       7.223242631346e+02 
       1.793045413791e-04       7.777801523602e+02 
       1.936085902737e-04       8.374783548315e+02 
       2.090537469909e-04       9.017396169961e+02 
       2.257310435923e-04       9.709080115617e+02 
       2.437387742372e-04       1.045352428831e+03 
       2.631830745176e-04       1.125468091136e+03 
       2.841785470091e-04       1.211678135984e+03 
       3.068489367268e-04       1.304435183579e+03 
       3.313278604643e-04       1.404222961073e+03 
       3.577595943165e-04       1.511557883918e+03 
       3.862999240274e-04       1.626990646115e+03 
       4.171170631739e-04       1.751107746859e+03 
       4.503926445983e-04       1.884532977870e+03 
       4.863227909323e-04       2.027928790541e+03 
       5.251192705226e-04       2.181997601801e+03 
       5.670107455699e-04       2.347482881514e+03 
       6.122441198393e-04       2.525170110275e+03 
       6.610859938837e-04       2.715887449868e+03 
       7.138242363583e-04       2.920506039106e+03 
       7.707696806873e-04       3.139939845597e+03 
       8.322579570814e-04       3.375144792010e+03 
       8.986514707061e-04       3.627117019304e+03 
       9.703415376577e-04       3.896889936788e+03 
       1.047750691338e-03       4.185529975417e+03 
       1.131335172818e-03       4.494130695937e+03 
       1.221587619877e-03       4.823805449444e+03 
       1.319039970550e-03       5.175678259974e+03 
       1.424266598317e-03       5.550927406603e+03 
       1.537887697396e-03       5.950656598155e+03 
       1.660572938097e-03       6.375935440624e+03 
       1.793045413791e-03       6.827807558808e+03 
       1.936085902737e-03       7.307248309692e+03 
       2.090537469909e-03       7.815139439052e+03 
       2.257310435923e-03       8.352240703462e+03 
       2.437387742372e-03       8.919158207614e+03 
       2.631830745176e-03       9.516308515782e+03 
       2.841785470091e-03       1.014387745420e+04 
       3.068489367268e-03       1.080177627993e+04 
       3.313278604643e-03       1.148958995076e+04 
       3.577595943165e-03       1.220651839163e+04 
       3.862999240274e-03       1.295130726498e+04 
       4.171170631739e-03       1.372217555698e+04 
       4.503926445983e-03       1.451673466712e+04 
       4.863227909323e-03       1.533188079966e+04 
       5.251192705226e-03       1.616383326807e+04 
       5.670107455699e-03       1.700791810812e+04 
       6.122441198393e-03       1.785831761622e+04 
       6.610859938837e-03       1.870823419774e+04 
       7.138242363583e-03       1.954960808172e+04 
       7.707696806873e-03       2.037298525068e+04 
       8.322579570814e-03       2.116740525878e+04 
       8.986514707061e-03       2.192010255203e+04 
       9.703415376577e-03       2.261661580853e+04 
       1.047750691338e-02       2.324038806333e+04 
       1.131335172818e-02       2.377284279449e+04 
       1.221587619877e-02       2.419312425932e+04 
       1.319039970550e-02       2.447845241048e+04 
       1.424266598317e-02       2.460402165539e+04 
       1.537887697392e-02       2.454366004378e+04 
       1.660572938023e-02       2.427035259478e+04 
       1.793045412706e-02       2.375755918906e+04 
       1.936085890181e-02       2.298099019701e+04 
       2.090537352463e-02       2.192071769158e+04 
       2.257309535333e-02       2.056471940335e+04 
       2.437382002918e-02       1.891231379890e+04 
       2.631799944462e-02       1.697939526681e+04 
       2.841644545389e-02       1.480290286303e+04 
       3.067933355377e-02       1.244641183342e+04 
       3.311368470740e-02       1.000390803643e+04 
       3.571840443502e-02       7.600409022468e+03 
       3.847720348444e-02       5.381983245401e+03 
       4.135335538431e-02       3.489763901022e+03 
       4.429361667738e-02       2.020871746408e+03 
       4.724366439141e-02       9.993230879884e+02 
       5.016480835311e-02       3.800552855927e+02 
       5.303989620246e-02       7.829959347118e+01 
       5.586870669566e-02       5.387263975724e-02 
       5.866042680613e-02       5.992125053229e+01 
       6.142798932958e-02       1.880530416554e+02 
       6.418496440164e-02       3.314030878854e+02 
       6.694418833788e-02       4.529305445566e+02 
       6.971731106057e-02       5.301024132632e+02 
       7.251476155766e-02       5.531850253742e+02 
       7.534587671527e-02       5.232908317531e+02 
       7.821907666265e-02       4.500526635289e+02 
       8.114203772912e-02       3.489258334895e+02 
       8.412184535029e-02       2.382342695104e+02 
       8.716512279304e-02       1.360413000236e+02 
       9.027813695930e-02       5.725900993095e+01 
       9.346688431697e-02       1.128194045972e+01 
       9.673716028276e-02       5.478592178434e-01 
       1.000946150830e-01       2.035153700018e+01 
       1.035447986537e-01       6.003250805928e+01 
       1.070931966762e-01       1.054433432210e+02 
       1.107452594425e-01       1.422851327097e+02 
       1.145064249153e-01       1.595934893336e+02 
       1.183821370918e-01       1.525355116232e+02 
       1.223778605862e-01       1.236334912639e+02 
       1.264990921987e-01       8.194650799637e+01 
       1.307513701367e-01       4.017020419397e+01 
       1.351402814784e-01       1.042071732693e+01 
       1.396714684203e-01       5.090569443034e-04 
       1.443506338194e-01       8.745651062108e+00 
       1.491835465229e-01       2.916470521386e+01 
       1.541760469708e-01       4.962382495450e+01 
       1.593340535561e-01       5.945390167950e+01 
       1.646635702297e-01       5.385103875427e+01 
       1.701706958456e-01       3.604125010358e+01 
       1.758616357459e-01       1.537977145651e+01 
       1.817427160982e-01       2.036857345379e+00 
       1.878204015065e-01       1.147231588112e+00 
       1.941013164283e-01       9.967744333126e+00 
       2.005922709503e-01       2.001477070878e+01 
       2.073002914972e-01       2.311090871197e+01 
       2.142326570816e-01       1.716729110392e+01 
       2.213969417533e-01       7.135583128242e+00 
       2.288010639706e-01       5.741583047609e-01 
       2.364533437147e-01       1.248113129117e+00 
       2.443625682930e-01       6.166334709047e+00 
       2.525380679504e-01       9.107788569909e+00 
       2.609898026346e-01       6.937742416221e+00 
       2.697284615565e-01       2.292411043438e+00 
       2.787655775689e-01       5.685950592916e-03 
       2.881136588829e-01       1.381656381266e+00 
       2.977863412677e-01       3.316748544938e+00 
       3.077985646929e-01       2.822280684210e+00 
       3.181667794071e-01       8.010201351410e-01 
       3.289091877812e-01       1.713185696423e-02 
       3.400460299658e-01       8.378518598510e-01 
       3.515999236474e-01       1.248285863519e+00 
       3.635962711085e-01       5.165914894114e-01 
       3.760637506334e-01       2.651606642003e-04 
       3.890349143879e-01       2.947296184540e-01 
       4.025469216825e-01       4.171213059323e-01 
       4.166424456376e-01       9.136720148234e-02 
       4.313708035863e-01       2.775056181630e-02 
       4.467893782977e-01       1.517135526931e-01 
       4.629654199664e-01       5.704495492496e-02 
       4.799783501994e-01       5.388592540623e-03 
       4.979227319373e-01       4.813727647673e-02 
       5.169121270864e-01       9.120226861030e-03 
       5.370841404489e-01       8.054473716799e-03 
       5.586070464571e-01       9.704667617646e-03 
       5.816885094930e-01       5.848827438534e-04 
       6.065870144995e-01       3.435516205522e-03 
       6.336266468475e-01       2.021677722832e-04 
       6.632156059511e-01       6.223132990422e-04 
       6.958678639263e-01       2.323657767862e-04 
       7.322247985589e-01       6.256509588115e-07 
       7.730680195114e-01       1.685896048597e-05 
       8.193049553677e-01       8.110263995824e-06 
       8.718988016039e-01       1.555456033636e-06 
       9.317218031082e-01       2.288474486770e-08 
       9.993660908989e-01       8.488909873314e-09 
       1.075037110174e+00       4.995449421762e-09 
       1.158653485707e+00       1.925755014872e-10 
       1.250099157308e+00       1.008744346533e-08 
       1.349432401273e+00       3.578175822532e-09 
       1.456947457397e+00       4.164735267659e-10 
       1.573135111331e+00       1.369365006024e-09 
       1.698621895592e+00       1.608936922246e-11 
       1.834127512934e+00       4.425966302702e-10 
       1.980444934528e+00       9.586373772643e-11 
       2.138435191726e+00       3.246991044741e-11 
       2.309029199186e+00       7.849779521327e-10 
       2.493232377687e+00       3.317395522098e-12 
       2.692130395285e+00       2.809555702102e-13 
       2.906895534573e+00       1.321982891476e-11 
       3.138793597714e+00       1.859011001774e-11 
       3.389191366484e+00       2.253294624521e-11 
       3.659564657905e+00       7.353635471456e-12 
       3.951507022538e+00       7.787819475918e-12 
       4.266739136701e+00       6.075319632939e-15 
       4.607118943941e+00       3.384041028615e-13 
       4.974652605557e+00       1.306841932938e-12 
       5.371506324689e+00       2.362399917041e-14 
       5.800019113685e+00       1.012081716403e-14 
       6.262716579983e+00       6.846322640416e-15 
       6.762325811764e+00       3.587259052881e-13 
       7.301791451110e+00       3.138454824140e-13 
       7.884293049406e+00       6.383634388011e-14 
       8.513263807261e+00       7.083072169826e-15 
       9.192410809424e+00       6.045383985039e-14 
       9.925736873929e+00       1.692436098124e-16 
       1.071756414427e+01       8.668713559476e-17 
       1.157255956364e+01       2.151460996471e-14 
       1.249576238137e+01       1.570302336609e-14 
       1.349261385375e+01       1.191479468304e-14 
       1.456898931416e+01       7.758838383367e-15 
       1.573123280165e+01       1.821342151989e-17 
       1.698619445202e+01       1.127742607687e-17 
       1.834127087176e+01       1.978881939326e-17 
       1.980444873285e+01       4.084522726464e-17 
       2.138435184532e+01       6.891994163126e-17 
       2.309029198506e+01       6.062387056335e-16 
       2.493232377636e+01       3.989861879498e-16 
       2.692130395282e+01       5.879845357691e-17 
       2.906895534573e+01       1.101844037238e-17 
       3.138793597714e+01       3.829945433978e-18 
       3.389191366484e+01       5.259586927132e-17 
       3.659564657905e+01       1.688839011968e-18 
       3.951507022538e+01       1.279227637341e-17 
       4.266739136701e+01       1.192373470688e-17 
       4.607118943941e+01       7.027249936048e-18 
       4.974652605557e+01       2.750579391599e-19 
       5.371506324689e+01       7.334414508782e-20 
       5.800019113685e+01       7.877848143565e-19 
       6.262716579983e+01       4.862408445997e-19 
       6.762325811764e+01       1.197894262277e-19 
