# Matter power spectrum P(k) at redshift z=99
# for k=1.04775e-05 to 67.6233 h/Mpc,
# number of wavenumbers equal to 246
#    1:k (h/Mpc)              2:P (Mpc/h)^3        
       1.047750691046e-05       7.261927680914e-03 
       1.131335172503e-05       7.820331652488e-03 
       1.221587619537e-05       8.421675995514e-03 
       1.319039970183e-05       9.069258201914e-03 
       1.424266597921e-05       9.766638412203e-03 
       1.537887696968e-05       1.051764070809e-02 
       1.660572937635e-05       1.132639106733e-02 
       1.793045413292e-05       1.219733232724e-02 
       1.936085902198e-05       1.313524225788e-02 
       2.090537469327e-05       1.414527123409e-02 
       2.257310435294e-05       1.523296273834e-02 
       2.437387741694e-05       1.640429446300e-02 
       2.631830744443e-05       1.766569584071e-02 
       2.841785469300e-05       1.902408737019e-02 
       3.068489366414e-05       2.048692972787e-02 
       3.313278603720e-05       2.206225515958e-02 
       3.577595942169e-05       2.375870707455e-02 
       3.862999239199e-05       2.558560730221e-02 
       4.171170630578e-05       2.755297766297e-02 
       4.503926444729e-05       2.967161930496e-02 
       4.863227907969e-05       3.195316454256e-02 
       5.251192703764e-05       3.441013522972e-02 
       5.670107454120e-05       3.705601726500e-02 
       6.122441196689e-05       3.990533417826e-02 
       6.610859936996e-05       4.297372172808e-02 
       7.138242361596e-05       4.627802146648e-02 
       7.707696804727e-05       4.983636199500e-02 
       8.322579568497e-05       5.366826852983e-02 
       8.986514704559e-05       5.779476400762e-02 
       9.703415373875e-05       6.223848250555e-02 
       1.047750691046e-04       6.702379872822e-02 
       1.131335172503e-04       7.217695161116e-02 
       1.221587619537e-04       7.772619081904e-02 
       1.319039970183e-04       8.370193441345e-02 
       1.424266597921e-04       9.013692517206e-02 
       1.537887696968e-04       9.706641252972e-02 
       1.660572937635e-04       1.045283355392e-01 
       1.793045413292e-04       1.125635350274e-01 
       1.936085902198e-04       1.212159616267e-01 
       2.090537469327e-04       1.305329134113e-01 
       2.257310435294e-04       1.405652847721e-01 
       2.437387741694e-04       1.513678304162e-01 
       2.631830744443e-04       1.629994506617e-01 
       2.841785469300e-04       1.755234923105e-01 
       3.068489366414e-04       1.890080672438e-01 
       3.313278603720e-04       2.035264004616e-01 
       3.577595942169e-04       2.191571806029e-01 
       3.862999239199e-04       2.359849440120e-01 
       4.171170630578e-04       2.541004744260e-01 
       4.503926444729e-04       2.736012083207e-01 
       4.863227907969e-04       2.945916794119e-01 
       5.251192703764e-04       3.171839528578e-01 
       5.670107454121e-04       3.414980767657e-01 
       6.122441196689e-04       3.676625417036e-01 
       6.610859936996e-04       3.958147256539e-01 
       7.138242361596e-04       4.261013289382e-01 
       7.707696804727e-04       4.586787797379e-01 
       8.322579568497e-04       4.937136006313e-01 
       8.986514704559e-04       5.313826807079e-01 
       9.703415373875e-04       5.718734978265e-01 
       1.047750691046e-03       6.153841636072e-01 
       1.131335172503e-03       6.621233246527e-01 
       1.221587619537e-03       7.123098228018e-01 
       1.319039970183e-03       7.661720592857e-01 
       1.424266597921e-03       8.239546306490e-01 
       1.537887696968e-03       8.859011182875e-01 
       1.660572937635e-03       9.522588016499e-01 
       1.793045413292e-03       1.023280100902e+00 
       1.936085902198e-03       1.099216305740e+00 
       2.090537469327e-03       1.180312991696e+00 
       2.257310435294e-03       1.266804117180e+00 
       2.437387741694e-03       1.358904854823e+00 
       2.631830744443e-03       1.456802684670e+00 
       2.841785469300e-03       1.560646892133e+00 
       3.068489366414e-03       1.670536064211e+00 
       3.313278603720e-03       1.786503853998e+00 
       3.577595942169e-03       1.908502932704e+00 
       3.862999239199e-03       2.036387732722e+00 
       4.171170630578e-03       2.169896195694e+00 
       4.503926444729e-03       2.308631881185e+00 
       4.863227907969e-03       2.452047293222e+00 
       5.251192703764e-03       2.599430630399e+00 
       5.670107454120e-03       2.749896934153e+00 
       6.122441196689e-03       2.902386515681e+00 
       6.610859936996e-03       3.055668709498e+00 
       7.138242361596e-03       3.208356463581e+00 
       7.707696804727e-03       3.358923894633e+00 
       8.322579568496e-03       3.505725596578e+00 
       8.986514704559e-03       3.647009253472e+00 
       9.703415373875e-03       3.780923304308e+00 
       1.047750691046e-02       3.905490798833e+00 
       1.131335172503e-02       4.018587638769e+00 
       1.221587619537e-02       4.117901578721e+00 
       1.319039970183e-02       4.200915314078e+00 
       1.424266597920e-02       4.264942501274e+00 
       1.537887696964e-02       4.307219237839e+00 
       1.660572937560e-02       4.325063768126e+00 
       1.793045412207e-02       4.316059157639e+00 
       1.936085889642e-02       4.278231962865e+00 
       2.090537351881e-02       4.210201164165e+00 
       2.257309534705e-02       4.111410183303e+00 
       2.437382002240e-02       3.982419957308e+00 
       2.631799943729e-02       3.825169613554e+00 
       2.841644544598e-02       3.643283294291e+00 
       3.067933354524e-02       3.442197472534e+00 
       3.311368469821e-02       3.229235165464e+00 
       3.571840442514e-02       3.013521552340e+00 
       3.847720347390e-02       2.805276433548e+00 
       4.135335537314e-02       2.614416330207e+00 
       4.429361666563e-02       2.448134270105e+00 
       4.724366437916e-02       2.309233146491e+00 
       5.016480834039e-02       2.196111028496e+00 
       5.303989618930e-02       2.104360909859e+00 
       5.586870668205e-02       2.028466428750e+00 
       5.866042679206e-02       1.963156223004e+00 
       6.142798931504e-02       1.903780336005e+00 
       6.418496438662e-02       1.846477329744e+00 
       6.694418832236e-02       1.788198653923e+00 
       6.971731104453e-02       1.726713843547e+00 
       7.251476154108e-02       1.660653311130e+00 
       7.534587669814e-02       1.589468248214e+00 
       7.821907664495e-02       1.513439091558e+00 
       8.114203771084e-02       1.433567943113e+00 
       8.412184533139e-02       1.351491937530e+00 
       8.716512277352e-02       1.269271769450e+00 
       9.027813693913e-02       1.189195010700e+00 
       9.346688429613e-02       1.113501932859e+00 
       9.673716026122e-02       1.044175130003e+00 
       1.000946150608e-01       9.827043756352e-01 
       1.035447986307e-01       9.299369487683e-01 
       1.070931966524e-01       8.859591197839e-01 
       1.107452594180e-01       8.500703238378e-01 
       1.145064248899e-01       8.208037477300e-01 
       1.183821370656e-01       7.960262214676e-01 
       1.223778605591e-01       7.731469732092e-01 
       1.264990921707e-01       7.494512845431e-01 
       1.307513701078e-01       7.225566772897e-01 
       1.351402814485e-01       6.909091521163e-01 
       1.396714683894e-01       6.541793819469e-01 
       1.443506337875e-01       6.134261014055e-01 
       1.491835464900e-01       5.708667455883e-01 
       1.541760469368e-01       5.293637777638e-01 
       1.593340535209e-01       4.917091857389e-01 
       1.646635701934e-01       4.599184194430e-01 
       1.701706958081e-01       4.347278439843e-01 
       1.758616357070e-01       4.154067783649e-01 
       1.817427160581e-01       3.999363867726e-01 
       1.878204014651e-01       3.856830848936e-01 
       1.941013163855e-01       3.698084832866e-01 
       2.005922709060e-01       3.505447591734e-01 
       2.073002914514e-01       3.280425031766e-01 
       2.142326570343e-01       3.042129982377e-01 
       2.213969417044e-01       2.816108940084e-01 
       2.288010639201e-01       2.622562104366e-01 
       2.364533436625e-01       2.469611504287e-01 
       2.443625682390e-01       2.350128466386e-01 
       2.525380678946e-01       2.244167386812e-01 
       2.609898025770e-01       2.130926059944e-01 
       2.697284614969e-01       2.001014274026e-01 
       2.787655775073e-01       1.860190588556e-01 
       2.881136588192e-01       1.725159169531e-01 
       2.977863412019e-01       1.610648797557e-01 
       3.077985646248e-01       1.517601184203e-01 
       3.181667793367e-01       1.435580911047e-01 
       3.289091877084e-01       1.351806259257e-01 
       3.400460298905e-01       1.261630613409e-01 
       3.515999235695e-01       1.172012169437e-01 
       3.635962710278e-01       1.091760804671e-01 
       3.760637505499e-01       1.023086654301e-01 
       3.890349143014e-01       9.593688975056e-02 
       4.025469215929e-01       8.950696955510e-02 
       4.166424455447e-01       8.311069950127e-02 
       4.313708034899e-01       7.721481730477e-02 
       4.467893781976e-01       7.190005643946e-02 
       4.629654198623e-01       6.686809874187e-02 
       4.799783500912e-01       6.191682199400e-02 
       4.979227318246e-01       5.722142746719e-02 
       5.169121269689e-01       5.290201627146e-02 
       5.370841403262e-01       4.876901893271e-02 
       5.586070463286e-01       4.479017696115e-02 
       5.816885093582e-01       4.105121362815e-02 
       6.065870143577e-01       3.748912170275e-02 
       6.336266466978e-01       3.407549386000e-02 
       6.632156057925e-01       3.083383340985e-02 
       6.958678637575e-01       2.772755743834e-02 
       7.322247983784e-01       2.476635575417e-02 
       7.730680193171e-01       2.193884571222e-02 
       8.193049551574e-01       1.925547704391e-02 
       8.718988013754e-01       1.672867271459e-02 
       9.317218028590e-01       1.438357600268e-02 
       9.993660906273e-01       1.225008026387e-02 
       1.075037109879e+00       1.035202577568e-02 
       1.158653485387e+00       8.699205891368e-03 
       1.250099156961e+00       7.284083906724e-03 
       1.349432400897e+00       6.085016058990e-03 
       1.456947456991e+00       5.075286909205e-03 
       1.573135110893e+00       4.227894418845e-03 
       1.698621895119e+00       3.518145936339e-03 
       1.834127512423e+00       2.924609547505e-03 
       1.980444933977e+00       2.428815212418e-03 
       2.138435191130e+00       2.015190056633e-03 
       2.309029198543e+00       1.670468941874e-03 
       2.493232376993e+00       1.383506402310e-03 
       2.692130394536e+00       1.144859838191e-03 
       2.906895533764e+00       9.466056252008e-04 
       3.138793596840e+00       7.820551952709e-04 
       3.389191365541e+00       6.456053115081e-04 
       3.659564656886e+00       5.325689906659e-04 
       3.951507021438e+00       4.389999584426e-04 
       4.266739135513e+00       3.616160824260e-04 
       4.607118942658e+00       2.976678521062e-04 
       4.974652604172e+00       2.448635278062e-04 
       5.371506323193e+00       2.012972824834e-04 
       5.800019112071e+00       1.653788312907e-04 
       6.262716578240e+00       1.357844971150e-04 
       6.762325809881e+00       1.114202824077e-04 
       7.301791449077e+00       9.137413371250e-05 
       7.884293047211e+00       7.489281646863e-05 
       8.513263804891e+00       6.134957052399e-05 
       9.192410806865e+00       5.022830987907e-05 
       9.925736871166e+00       4.110152131062e-05 
       1.071756414128e+01       3.361571106739e-05 
       1.157255956041e+01       2.747884817354e-05 
       1.249576237789e+01       2.245136821888e-05 
       1.349261385000e+01       1.833470087120e-05 
       1.456898931011e+01       1.496561503086e-05 
       1.573123279727e+01       1.220981617671e-05 
       1.698619444729e+01       9.956709096545e-06 
       1.834127086665e+01       8.115513927220e-06 
       1.980444872733e+01       6.611797092347e-06 
       2.138435183937e+01       5.384129752646e-06 
       2.309029197863e+01       4.382379977446e-06 
       2.493232376942e+01       3.565359059203e-06 
       2.692130394533e+01       2.899283511156e-06 
       2.906895533764e+01       2.356546671357e-06 
       3.138793596840e+01       1.914455142813e-06 
       3.389191365541e+01       1.554546518831e-06 
       3.659564656886e+01       1.261678498623e-06 
       3.951507021438e+01       1.023427162980e-06 
       4.266739135513e+01       8.297344779391e-07 
       4.607118942658e+01       6.723230123624e-07 
       4.974652604172e+01       5.444517603067e-07 
       5.371506323193e+01       4.406295949635e-07 
       5.800019112071e+01       3.563782089140e-07 
       6.262716578240e+01       2.880338690081e-07 
       6.762325809881e+01       2.326253855818e-07 
