# Matter power spectrum P(k) at redshift z=0
# for k=1.04775e-05 to 66.1767 h/Mpc,
# number of wavenumbers equal to 130
#    1:k (h/Mpc)              2:P (Mpc/h)^3        
       1.047750691046e-05       5.020964824742e+01 
       1.319039970183e-05       6.270559171450e+01 
       1.660572937635e-05       7.831145582634e+01 
       2.090537469327e-05       9.780109270837e+01 
       2.631830744443e-05       1.221408204131e+02 
       3.313278603720e-05       1.525374464450e+02 
       4.171170630578e-05       1.904975988242e+02 
       5.251192703764e-05       2.379022288756e+02 
       6.610859936996e-05       2.970989230461e+02 
       8.322579568497e-05       3.710167334193e+02 
       1.047750691046e-04       4.633080761357e+02 
       1.319039970183e-04       5.785234118887e+02 
       1.660572937635e-04       7.223242665601e+02 
       2.090537469327e-04       9.017396261430e+02 
       2.631830744443e-04       1.125468123342e+03 
       3.313278603720e-04       1.404223053323e+03 
       4.171170630578e-04       1.751108027263e+03 
       5.251192703764e-04       2.181998442851e+03 
       6.610859936996e-04       2.715889971553e+03 
       8.322579568497e-04       3.375152297434e+03 
       1.047750691046e-03       4.185552057646e+03 
       1.319039970183e-03       5.175742400487e+03 
       1.660572937635e-03       6.376121937397e+03 
       2.090537469327e-03       7.815668391744e+03 
       2.631830744443e-03       9.517772979076e+03 
       3.313278603720e-03       1.149354600113e+04 
       4.171170630578e-03       1.373258183121e+04 
       5.251192703764e-03       1.619042929030e+04 
       6.610859936996e-03       1.877407372284e+04 
       8.322579568497e-03       2.132476236328e+04 
       1.047750691046e-02       2.360236038517e+04 
       1.319039970183e-02       2.527500913400e+04 
       1.660572937633e-02       2.593442485533e+04 
       2.090537453514e-02       2.517608851929e+04 
       2.631818545635e-02       2.280443891767e+04 
       3.311571692125e-02       1.916573385429e+04 
       4.113809243311e-02       1.548743785835e+04 
       4.792590854610e-02       1.334494227849e+04 
       5.284436902701e-02       1.227576084181e+04 
       5.689644391095e-02       1.160017329605e+04 
       6.051252627066e-02       1.108646613001e+04 
       6.388413457411e-02       1.063790670535e+04 
       6.711249296401e-02       1.020583630942e+04 
       7.025823437965e-02       9.764389267839e+03 
       7.336115587705e-02       9.300894216229e+03 
       7.644928796912e-02       8.811956669813e+03 
       7.954353299775e-02       8.301029935107e+03 
       8.266024078725e-02       7.776601698321e+03 
       8.581273398637e-02       7.250643162156e+03 
       8.901225918437e-02       6.736796111160e+03 
       9.226860540985e-02       6.248697333808e+03 
       9.559052048996e-02       5.798601602542e+03 
       9.898599946599e-02       5.395606450417e+03 
       1.024624891378e-01       5.045321351764e+03 
       1.060270359164e-01       4.748729849249e+03 
       1.096863943056e-01       4.502393819211e+03 
       1.134471073830e-01       4.298516799842e+03 
       1.173155669539e-01       4.125545997068e+03 
       1.212980586983e-01       3.969215419704e+03 
       1.254007961065e-01       3.814312539159e+03 
       1.296299459934e-01       3.646841304735e+03 
       1.339916477160e-01       3.456916283997e+03 
       1.384920277736e-01       3.240954368507e+03 
       1.431372111762e-01       3.002881837534e+03 
       1.479333307714e-01       2.753315570059e+03 
       1.528865355934e-01       2.507059787033e+03 
       1.580029992204e-01       2.279269272591e+03 
       1.632889290723e-01       2.081669514640e+03 
       1.687505775527e-01       1.919588920825e+03 
       1.743942559171e-01       1.790970387002e+03 
       1.802263517371e-01       1.686804976461e+03 
       1.862533508214e-01       1.594421654726e+03 
       1.924818644494e-01       1.499858700317e+03 
       1.989186627765e-01       1.392526541413e+03 
       2.055707152847e-01       1.270778784304e+03 
       2.124452391818e-01       1.142050129173e+03 
       2.195497567139e-01       1.018214073404e+03 
       2.268921624510e-01       9.094705127144e+02 
       2.344808017550e-01       8.207105382777e+02 
       2.423245618548e-01       7.502468972186e+02 
       2.504329772620e-01       6.903389597616e+02 
       2.588163516754e-01       6.315801886931e+02 
       2.674858990930e-01       5.685906902204e+02 
       2.764539076010e-01       5.022364643408e+02 
       2.857339303080e-01       4.384048575721e+02 
       2.953410092148e-01       3.834261399919e+02 
       3.052919395542e-01       3.387995163158e+02 
       3.156055844677e-01       3.012400735172e+02 
       3.263032530092e-01       2.659890456122e+02 
       3.374091587054e-01       2.304432716538e+02 
       3.489509817175e-01       1.961667721050e+02 
       3.609605657343e-01       1.660284027028e+02 
       3.734747921333e-01       1.411291383249e+02 
       3.865366902904e-01       1.197318001921e+02 
       4.001968667448e-01       9.988619435161e+01 
       4.145153713076e-01       8.145427774672e+01 
       4.295641718077e-01       6.551795449768e+01 
       4.454304922144e-01       5.228984697258e+01 
       4.622214006969e-01       4.101464826214e+01 
       4.800702491654e-01       3.110974814715e+01 
       4.991459272112e-01       2.282182566545e+01 
       5.196665217302e-01       1.622196447875e+01 
       5.419201087032e-01       1.088157148708e+01 
       5.662975451962e-01       6.726313387346e+00 
       5.933463737275e-01       3.714705467373e+00 
       6.238638458458e-01       1.658898329278e+00 
       6.590669257916e-01       4.709912078203e-01 
       7.009246080454e-01       1.538537621160e-02 
       7.528593308799e-01       1.469768595067e-01 
       8.213469537518e-01       6.547296020177e-01 
       9.196980813302e-01       1.181963466293e+00 
       1.075112183810e+00       1.162230265845e+00 
       1.322697471132e+00       4.554553809016e-01 
       1.662328205042e+00       3.133808844510e-02 
       2.092692408506e+00       4.500672005989e-03 
       2.634543445090e+00       4.378414562963e-03 
       3.316693691389e+00       4.799878321844e-05 
       4.175469971226e+00       5.530738669571e-05 
       5.256605252960e+00       3.101756206764e-07 
       6.617673932723e+00       1.319521729528e-07 
       8.331157880872e+00       2.559715901022e-08 
       1.048830636590e+01       3.115010657390e-09 
       1.320399541071e+01       1.827724357188e-09 
       1.662284535976e+01       7.492653334999e-10 
       2.092692243973e+01       2.992715643543e-10 
       2.634543445002e+01       1.153234338602e-10 
       3.316693691389e+01       4.214044574138e-11 
       4.175469971226e+01       1.525273035593e-11 
       5.256605252960e+01       5.183083216252e-12 
       6.617673932723e+01       1.679373952293e-12 
