# Matter power spectrum P(k) at redshift z=99
# for k=1.04775e-05 to 67.6233 h/Mpc,
# number of wavenumbers equal to 246
#    1:k (h/Mpc)              2:P (Mpc/h)^3        
       1.047750691046e-05       7.261931377427e-03 
       1.131335172503e-05       7.820335733853e-03 
       1.221587619537e-05       8.421680303479e-03 
       1.319039970183e-05       9.069262837939e-03 
       1.424266597921e-05       9.766641561271e-03 
       1.537887696968e-05       1.051764606124e-02 
       1.660572937635e-05       1.132639719454e-02 
       1.793045413292e-05       1.219733852571e-02 
       1.936085902198e-05       1.313524893093e-02 
       2.090537469327e-05       1.414527615502e-02 
       2.257310435294e-05       1.523297204341e-02 
       2.437387741694e-05       1.640430269752e-02 
       2.631830744443e-05       1.766570468370e-02 
       2.841785469300e-05       1.902409711942e-02 
       3.068489366414e-05       2.048694096156e-02 
       3.313278603720e-05       2.206226635187e-02 
       3.577595942169e-05       2.375871970352e-02 
       3.862999239199e-05       2.558561880115e-02 
       4.171170630578e-05       2.755299137100e-02 
       4.503926444729e-05       2.967163438162e-02 
       4.863227907969e-05       3.195318083992e-02 
       5.251192703764e-05       3.441015283653e-02 
       5.670107454120e-05       3.705603638840e-02 
       6.122441196689e-05       3.990535315200e-02 
       6.610859936996e-05       4.297374356907e-02 
       7.138242361596e-05       4.627804471952e-02 
       7.707696804727e-05       4.983638730656e-02 
       8.322579568497e-05       5.366829656157e-02 
       8.986514704559e-05       5.779479348743e-02 
       9.703415373875e-05       6.223851579948e-02 
       1.047750691046e-04       6.702383273176e-02 
       1.131335172503e-04       7.217698777664e-02 
       1.221587619537e-04       7.772623020538e-02 
       1.319039970183e-04       8.370197780492e-02 
       1.424266597921e-04       9.013697181433e-02 
       1.537887696968e-04       9.706646160431e-02 
       1.660572937635e-04       1.045283883673e-01 
       1.793045413292e-04       1.125635915718e-01 
       1.936085902198e-04       1.212160227353e-01 
       2.090537469327e-04       1.305329790666e-01 
       2.257310435294e-04       1.405653553454e-01 
       2.437387741694e-04       1.513679062225e-01 
       2.631830744443e-04       1.629995315598e-01 
       2.841785469300e-04       1.755235797740e-01 
       3.068489366414e-04       1.890081611233e-01 
       3.313278603720e-04       2.035265007010e-01 
       3.577595942169e-04       2.191572884860e-01 
       3.862999239199e-04       2.359850600566e-01 
       4.171170630578e-04       2.541005980522e-01 
       4.503926444729e-04       2.736013402319e-01 
       4.863227907969e-04       2.945918202887e-01 
       5.251192703764e-04       3.171841029022e-01 
       5.670107454121e-04       3.414982355154e-01 
       6.122441196689e-04       3.676627106774e-01 
       6.610859936996e-04       3.958149041959e-01 
       7.138242361596e-04       4.261015175965e-01 
       7.707696804727e-04       4.586789776381e-01 
       8.322579568497e-04       4.937138070437e-01 
       8.986514704559e-04       5.313828927931e-01 
       9.703415373875e-04       5.718737176734e-01 
       1.047750691046e-03       6.153843870427e-01 
       1.131335172503e-03       6.621235482907e-01 
       1.221587619537e-03       7.123100414219e-01 
       1.319039970183e-03       7.661722683183e-01 
       1.424266597921e-03       8.239548253049e-01 
       1.537887696968e-03       8.859012843505e-01 
       1.660572937635e-03       9.522589179664e-01 
       1.793045413292e-03       1.023280140415e+00 
       1.936085902198e-03       1.099216227609e+00 
       2.090537469327e-03       1.180312756956e+00 
       2.257310435294e-03       1.266803643187e+00 
       2.437387741694e-03       1.358904058611e+00 
       2.631830744443e-03       1.456801445640e+00 
       2.841785469300e-03       1.560645052171e+00 
       3.068489366414e-03       1.670533396058e+00 
       3.313278603720e-03       1.786500072411e+00 
       3.577595942169e-03       1.908497638918e+00 
       3.862999239199e-03       2.036380388683e+00 
       4.171170630578e-03       2.169886058149e+00 
       4.503926444729e-03       2.308617994408e+00 
       4.863227907969e-03       2.452028293702e+00 
       5.251192703764e-03       2.599404707975e+00 
       5.670107454120e-03       2.749861601325e+00 
       6.122441196689e-03       2.902338528944e+00 
       6.610859936996e-03       3.055603428870e+00 
       7.138242361596e-03       3.208267958177e+00 
       7.707696804727e-03       3.358804722712e+00 
       8.322579568496e-03       3.505564360212e+00 
       8.986514704559e-03       3.646795101811e+00 
       9.703415373875e-03       3.780634417864e+00 
       1.047750691046e-02       3.905104400357e+00 
       1.131335172503e-02       4.018074724930e+00 
       1.221587619537e-02       4.117222845345e+00 
       1.319039970183e-02       4.200023659220e+00 
       1.424266597920e-02       4.263772428992e+00 
       1.537887696964e-02       4.305686373641e+00 
       1.660572937560e-02       4.323074073014e+00 
       1.793045412207e-02       4.313490334016e+00 
       1.936085889642e-02       4.274930552273e+00 
       2.090537351881e-02       4.205989344132e+00 
       2.257309534705e-02       4.106075688948e+00 
       2.437382002240e-02       3.975688410522e+00 
       2.631799943729e-02       3.816751602218e+00 
       2.841644544598e-02       3.632856833609e+00 
       3.067933354524e-02       3.429397850960e+00 
       3.311368469821e-02       3.213664697264e+00 
       3.571840442514e-02       2.994824384629e+00 
       3.847720347390e-02       2.783088372071e+00 
       4.135335537314e-02       2.588443535840e+00 
       4.429361666563e-02       2.418193250938e+00 
       4.724366437916e-02       2.275237778785e+00 
       5.016480834039e-02       2.158066012372e+00 
       5.303989618930e-02       2.062335753169e+00 
       5.586870668205e-02       1.982567138996e+00 
       5.866042679206e-02       1.913533058821e+00 
       6.142798931504e-02       1.850608890970e+00 
       6.418496438662e-02       1.789944850935e+00 
       6.694418832236e-02       1.728524310050e+00 
       6.971731104453e-02       1.664124595411e+00 
       7.251476154108e-02       1.595380899981e+00 
       7.534587669814e-02       1.521750197938e+00 
       7.821907664495e-02       1.443493007327e+00 
       8.114203771084e-02       1.361576927830e+00 
       8.412184533139e-02       1.277614594035e+00 
       8.716512277352e-02       1.193601856122e+00 
       9.027813693913e-02       1.111762153477e+00 
       9.346688429613e-02       1.034274801332e+00 
       9.673716026122e-02       9.630451848606e-01 
       1.000946150608e-01       8.995025443011e-01 
       1.035447986307e-01       8.444338789128e-01 
       1.070931966524e-01       7.979039691167e-01 
       1.107452594180e-01       7.592273035486e-01 
       1.145064248899e-01       7.270007005468e-01 
       1.183821370656e-01       6.992095600162e-01 
       1.223778605591e-01       6.734299520337e-01 
       1.264990921707e-01       6.471355847967e-01 
       1.307513701078e-01       6.181229921410e-01 
       1.351402814485e-01       5.849603523089e-01 
       1.396714683894e-01       5.473706946605e-01 
       1.443506337875e-01       5.063274736202e-01 
       1.491835464900e-01       4.638784794744e-01 
       1.541760469368e-01       4.226168398252e-01 
       1.593340535209e-01       3.850427724664e-01 
       1.646635701934e-01       3.529174007325e-01 
       1.701706958081e-01       3.268477737215e-01 
       1.758616357070e-01       3.061638296640e-01 
       1.817427160581e-01       2.890959075321e-01 
       1.878204014651e-01       2.734147537538e-01 
       1.941013163855e-01       2.567414951394e-01 
       2.005922709060e-01       2.376137021864e-01 
       2.073002914514e-01       2.161742307464e-01 
       2.142326570343e-01       1.940026322000e-01 
       2.213969417044e-01       1.731520797603e-01 
       2.288010639201e-01       1.551838669810e-01 
       2.364533436625e-01       1.406745945695e-01 
       2.443625682390e-01       1.290364580266e-01 
       2.525380678946e-01       1.187708261313e-01 
       2.609898025770e-01       1.083587612210e-01 
       2.697284614969e-01       9.714155446705e-02 
       2.787655775073e-01       8.553452379346e-02 
       2.881136588192e-01       7.467220540045e-02 
       2.977863412019e-01       6.549768172024e-02 
       3.077985646248e-01       5.802381434125e-02 
       3.181667793367e-01       5.156993980173e-02 
       3.289091877084e-01       4.535363457013e-02 
       3.400460298905e-01       3.910494897645e-02 
       3.515999235695e-01       3.320894598663e-02 
       3.635962710278e-01       2.811594875492e-02 
       3.760637505499e-01       2.390319183383e-02 
       3.890349143014e-01       2.021765765178e-02 
       4.025469215929e-01       1.678744402297e-02 
       4.166424455447e-01       1.364230544392e-02 
       4.313708034899e-01       1.095454110455e-02 
       4.467893781976e-01       8.726097475420e-03 
       4.629654198623e-01       6.825925348155e-03 
       4.799783500912e-01       5.170209204135e-03 
       4.979227318246e-01       3.793452201680e-03 
       5.169121269689e-01       2.703321888385e-03 
       5.370841403262e-01       1.831850683587e-03 
       5.586070463286e-01       1.152927979848e-03 
       5.816885093582e-01       6.603938057665e-04 
       6.065870143577e-01       3.226218015060e-04 
       6.336266466978e-01       1.150962905317e-04 
       6.632156057925e-01       1.708637004669e-05 
       6.958678637575e-01       3.350031595464e-06 
       7.322247983784e-01       4.959375520092e-05 
       7.730680193171e-01       1.305410726283e-04 
       8.193049551574e-01       2.202724751156e-04 
       8.718988013754e-01       2.946359690907e-04 
       9.317218028590e-01       3.342849485765e-04 
       9.993660906273e-01       3.298403574742e-04 
       1.075037109879e+00       2.854369800899e-04 
       1.158653485387e+00       2.164938243557e-04 
       1.250099156961e+00       1.424441623988e-04 
       1.349432400897e+00       7.935917040875e-05 
       1.456947456991e+00       3.541035467304e-05 
       1.573135110893e+00       1.101709863846e-05 
       1.698621895119e+00       1.424604077089e-06 
       1.834127512423e+00       1.110048473966e-07 
       1.980444933977e+00       1.567284546244e-06 
       2.138435191130e+00       2.653611864701e-06 
       2.309029198543e+00       2.513592496933e-06 
       2.493232376993e+00       1.617758346707e-06 
       2.692130394536e+00       7.055418702967e-07 
       2.906895533764e+00       1.739843487818e-07 
       3.138793596840e+00       7.861780222681e-09 
       3.389191365541e+00       1.176956097315e-08 
       3.659564656886e+00       3.269601081744e-08 
       3.951507021438e+00       2.691054135831e-08 
       4.266739135513e+00       1.085710628543e-08 
       4.607118942658e+00       1.701878351073e-09 
       4.974652604172e+00       1.976901698342e-12 
       5.371506323193e+00       3.362457939774e-10 
       5.800019112071e+00       2.749665855543e-10 
       6.262716578240e+00       5.498132568104e-11 
       6.762325809881e+00       1.874723584312e-13 
       7.301791449077e+00       1.355176265578e-11 
       7.884293047211e+00       1.107632400318e-11 
       8.513263804891e+00       3.316049096338e-12 
       9.192410806865e+00       6.485493764845e-13 
       9.925736871166e+00       3.020225130195e-13 
       1.071756414128e+01       4.158034050322e-13 
       1.157255956041e+01       4.842763797912e-13 
       1.249576237789e+01       3.865741332959e-13 
       1.349261385000e+01       2.701496950689e-13 
       1.456898931011e+01       1.957720816108e-13 
       1.573123279727e+01       1.462549550711e-13 
       1.698619444729e+01       1.098440607953e-13 
       1.834127086665e+01       8.137066891958e-14 
       1.980444872733e+01       5.964821594020e-14 
       2.138435183937e+01       4.333231713164e-14 
       2.309029197863e+01       3.130769555002e-14 
       2.493232376942e+01       2.260314868216e-14 
       2.692130394533e+01       1.623046236116e-14 
       2.906895533764e+01       1.154109869961e-14 
       3.138793596840e+01       8.214066519815e-15 
       3.389191365541e+01       5.730070803783e-15 
       3.659564656886e+01       4.019240737493e-15 
       3.951507021438e+01       2.804213338529e-15 
       4.266739135513e+01       1.947223454887e-15 
       4.607118942658e+01       1.351016697832e-15 
       4.974652604172e+01       9.283223885121e-16 
       5.371506323193e+01       6.287639382365e-16 
       5.800019112071e+01       4.337715148363e-16 
       6.262716578240e+01       2.895576006002e-16 
       6.762325809881e+01       1.914736221861e-16 
