# Matter power spectrum P(k) at redshift z=99
# for k=1.04775e-05 to 67.6233 h/Mpc,
# number of wavenumbers equal to 246
#    1:k (h/Mpc)              2:P (Mpc/h)^3        
       1.047750691338e-05       7.262699989577e-03 
       1.131335172818e-05       7.821164771118e-03 
       1.221587619877e-05       8.422571744356e-03 
       1.319039970550e-05       9.070222619104e-03 
       1.424266598317e-05       9.767677252750e-03 
       1.537887697396e-05       1.051875762887e-02 
       1.660572938097e-05       1.132759409099e-02 
       1.793045413791e-05       1.219862589884e-02 
       1.936085902737e-05       1.313663516166e-02 
       2.090537469909e-05       1.414677181984e-02 
       2.257310435923e-05       1.523458393918e-02 
       2.437387742372e-05       1.640603755700e-02 
       2.631830745176e-05       1.766756993869e-02 
       2.841785470091e-05       1.902610653397e-02 
       3.068489367268e-05       2.048910614828e-02 
       3.313278604643e-05       2.206459778114e-02 
       3.577595943165e-05       2.376123091332e-02 
       3.862999240274e-05       2.558832248982e-02 
       4.171170631739e-05       2.755590330013e-02 
       4.503926445983e-05       2.967476962435e-02 
       4.863227909323e-05       3.195655803824e-02 
       5.251192705226e-05       3.441378851664e-02 
       5.670107455699e-05       3.705995272909e-02 
       6.122441198393e-05       3.990956951254e-02 
       6.610859938837e-05       4.297828216261e-02 
       7.138242363583e-05       4.628293278929e-02 
       7.707696806873e-05       4.984165033178e-02 
       8.322579570814e-05       5.367396192879e-02 
       8.986514707061e-05       5.780089317429e-02 
       9.703415376577e-05       6.224508164684e-02 
       1.047750691338e-04       6.703090114890e-02 
       1.131335172818e-04       7.218459613424e-02 
       1.221587619877e-04       7.773441892008e-02 
       1.319039970550e-04       8.371078941459e-02 
       1.424266598317e-04       9.014645414051e-02 
       1.537887697396e-04       9.707666616418e-02 
       1.660572938097e-04       1.045393680826e-01 
       1.793045413791e-04       1.125754007417e-01 
       1.936085902737e-04       1.212287220022e-01 
       2.090537469909e-04       1.305466333947e-01 
       2.257310435923e-04       1.405800323931e-01 
       2.437387742372e-04       1.513836763995e-01 
       2.631830745176e-04       1.630164736744e-01 
       2.841785470091e-04       1.755417692513e-01 
       3.068489367268e-04       1.890276829442e-01 
       3.313278604643e-04       2.035474389295e-01 
       3.577595943165e-04       2.191797294464e-01 
       3.862999240274e-04       2.360090920539e-01 
       4.171170631739e-04       2.541263079002e-01 
       4.503926445983e-04       2.736288150505e-01 
       4.863227909323e-04       2.946211401123e-01 
       5.251192705226e-04       3.172153410803e-01 
       5.670107455699e-04       3.415314530288e-01 
       6.122441198393e-04       3.676979490422e-01 
       6.610859938837e-04       3.958521798393e-01 
       7.138242363583e-04       4.261408125838e-01 
       7.707696806873e-04       4.587202285383e-01 
       8.322579570814e-04       4.937568803524e-01 
       8.986514707061e-04       5.314275779572e-01 
       9.703415376577e-04       5.719196845879e-01 
       1.047750691338e-03       6.154311651231e-01 
       1.131335172818e-03       6.621704715424e-01 
       1.221587619877e-03       7.123561937924e-01 
       1.319039970550e-03       7.662164037727e-01 
       1.424266598317e-03       8.239953341341e-01 
       1.537887697396e-03       8.859358000944e-01 
       1.660572938097e-03       9.522842801503e-01 
       1.793045413791e-03       1.023292194419e+00 
       1.936085902737e-03       1.099209514904e+00 
       2.090537469909e-03       1.180280065251e+00 
       2.257310435923e-03       1.266735498835e+00 
       2.437387742372e-03       1.358787903738e+00 
       2.631830745176e-03       1.456620611484e+00 
       2.841785470091e-03       1.560377465844e+00 
       3.068489367268e-03       1.670149687410e+00 
       3.313278604643e-03       1.785961130378e+00 
       3.577595943165e-03       1.907751232810e+00 
       3.862999240274e-03       2.035356827149e+00 
       4.171170631739e-03       2.168491988219e+00 
       4.503926445983e-03       2.306728365690e+00 
       4.863227909323e-03       2.449475993763e+00 
       5.251192705226e-03       2.595966232637e+00 
       5.670107455699e-03       2.745238791011e+00 
       6.122441198393e-03       2.896134445876e+00 
       6.610859938837e-03       3.047292268745e+00 
       7.138242363583e-03       3.197156296548e+00 
       7.707696806873e-03       3.343982298806e+00 
       8.322579570814e-03       3.485846488145e+00 
       8.986514707061e-03       3.620644872678e+00 
       9.703415376577e-03       3.746085328639e+00 
       1.047750691338e-02       3.859645741603e+00 
       1.131335172818e-02       3.958531117858e+00 
       1.221587619877e-02       4.039616504038e+00 
       1.319039970550e-02       4.099400567091e+00 
       1.424266598317e-02       4.134032578269e+00 
       1.537887697392e-02       4.139383360402e+00 
       1.660572938023e-02       4.111230194287e+00 
       1.793045412706e-02       4.045450895699e+00 
       1.936085890181e-02       3.938300177732e+00 
       2.090537352463e-02       3.786678636532e+00 
       2.257309535333e-02       3.588518634007e+00 
       2.437382002918e-02       3.343319086434e+00 
       2.631799944462e-02       3.052846068335e+00 
       2.841644545389e-02       2.721793435060e+00 
       3.067933355377e-02       2.358480166306e+00 
       3.311368470740e-02       1.975445788352e+00 
       3.571840443502e-02       1.589658539328e+00 
       3.847720348444e-02       1.221561745169e+00 
       4.135335538431e-02       8.918334201653e-01 
       4.429361667738e-02       6.162734279384e-01 
       4.724366439141e-02       4.015012489863e-01 
       5.016480835311e-02       2.447575648714e-01 
       5.303989620246e-02       1.373313415741e-01 
       5.586870669566e-02       6.855800343791e-02 
       5.866042680613e-02       2.828752811411e-02 
       6.142798932958e-02       7.911004084566e-03 
       6.418496440164e-02       5.387012016673e-04 
       6.694418833788e-02       8.963293694615e-04 
       6.971731106057e-02       5.107675715662e-03 
       7.251476155766e-02       1.047852898708e-02 
       7.534587671527e-02       1.528975220001e-02 
       7.821907666265e-02       1.860565648131e-02 
       8.114203772912e-02       2.008512900341e-02 
       8.412184535029e-02       1.981301915446e-02 
       8.716512279304e-02       1.813824249768e-02 
       9.027813695930e-02       1.553616066121e-02 
       9.346688431697e-02       1.249598410365e-02 
       9.673716028276e-02       9.440929333194e-03 
       1.000946150830e-01       6.681775854870e-03 
       1.035447986537e-01       4.402085094292e-03 
       1.070931966762e-01       2.667606539398e-03 
       1.107452594425e-01       1.454535161844e-03 
       1.145064249153e-01       6.828587340775e-04 
       1.183821370918e-01       2.487971458045e-04 
       1.223778605862e-01       4.992104205996e-05 
       1.264990921987e-01       9.186284732965e-09 
       1.307513701367e-01       3.450268775838e-05 
       1.351402814784e-01       1.090277203947e-04 
       1.396714684203e-01       1.943735853858e-04 
       1.443506338194e-01       2.710381751373e-04 
       1.491835465229e-01       3.252678157774e-04 
       1.541760469708e-01       3.475111459880e-04 
       1.593340535561e-01       3.331458816897e-04 
       1.646635702297e-01       2.845916728630e-04 
       1.701706958456e-01       2.123622217661e-04 
       1.758616357459e-01       1.332544584071e-04 
       1.817427160982e-01       6.515117233539e-05 
       1.878204015065e-01       2.024012595247e-05 
       1.941013164283e-01       1.591528312429e-06 
       2.005922709503e-01       1.929562784513e-06 
       2.073002914972e-01       1.073834367645e-05 
       2.142326570816e-01       1.835020649481e-05 
       2.213969417533e-01       2.030314199283e-05 
       2.288010639706e-01       1.772586582827e-05 
       2.364533437147e-01       1.291899243305e-05 
       2.443625682930e-01       7.813393380438e-06 
       2.525380679504e-01       3.995085169883e-06 
       2.609898026346e-01       1.610731353839e-06 
       2.697284615565e-01       3.045695060965e-07 
       2.787655775689e-01       6.405087316027e-09 
       2.881136588829e-01       3.120466272512e-07 
       2.977863412677e-01       7.636815533733e-07 
       3.077985646929e-01       8.713043571731e-07 
       3.181667794071e-01       6.381755281376e-07 
       3.289091877812e-01       3.135182261578e-07 
       3.400460299658e-01       7.855734725608e-08 
       3.515999236474e-01       5.727185629659e-09 
       3.635962711085e-01       7.082395918294e-09 
       3.760637506334e-01       2.757822089787e-08 
       3.890349143879e-01       4.855983607479e-08 
       4.025469216825e-01       4.415075592266e-08 
       4.166424456376e-01       3.024931773710e-08 
       4.313708035863e-01       9.684574057578e-09 
       4.467893782977e-01       1.394144644260e-09 
       4.629654199664e-01       1.219409183335e-11 
       4.799783501994e-01       4.919821902795e-10 
       4.979227319373e-01       2.902411186326e-10 
       5.169121270864e-01       3.103622572898e-11 
       5.370841404489e-01       2.954284312836e-11 
       5.586070464571e-01       1.636605328937e-10 
       5.816885094930e-01       2.104562307394e-10 
       6.065870144995e-01       1.387632569579e-10 
       6.336266468475e-01       6.423517415299e-11 
       6.632156059511e-01       4.447475087794e-11 
       6.958678639263e-01       8.246655326849e-11 
       7.322247985589e-01       6.621470357354e-11 
       7.730680195114e-01       5.252476144892e-11 
       8.193049553677e-01       7.291531480436e-12 
       8.718988016039e-01       1.760433042230e-12 
       9.317218031082e-01       1.333454299527e-11 
       9.993660908989e-01       1.871443174904e-11 
       1.075037110174e+00       1.588204290666e-12 
       1.158653485707e+00       7.464869966550e-13 
       1.250099157308e+00       4.040538633889e-12 
       1.349432401273e+00       1.422132957841e-13 
       1.456947457397e+00       3.053550630491e-13 
       1.573135111331e+00       9.084254007359e-13 
       1.698621895592e+00       1.423001362298e-13 
       1.834127512934e+00       2.280782967132e-13 
       1.980444934528e+00       1.105112183011e-13 
       2.138435191726e+00       6.192086464150e-14 
       2.309029199186e+00       1.006810053858e-13 
       2.493232377687e+00       3.570874649481e-14 
       2.692130395285e+00       3.161739783025e-14 
       2.906895534573e+00       1.216305428223e-14 
       3.138793597714e+00       6.538627139710e-15 
       3.389191366484e+00       8.943649422415e-15 
       3.659564657905e+00       4.275900618180e-15 
       3.951507022538e+00       4.458222371942e-15 
       4.266739136701e+00       1.130855252081e-15 
       4.607118943941e+00       1.471720441656e-15 
       4.974652605557e+00       1.415225832856e-15 
       5.371506324689e+00       4.260511722011e-16 
       5.800019113685e+00       2.868503347764e-16 
       6.262716579983e+00       1.634343760982e-16 
       6.762325811764e+00       3.489371240959e-16 
       7.301791451110e+00       2.387592910579e-16 
       7.884293049406e+00       1.378815852344e-16 
       8.513263807261e+00       4.873766681477e-17 
       9.192410809424e+00       8.210414747829e-17 
       9.925736873929e+00       2.195650009499e-17 
       1.071756414427e+01       1.230711841727e-17 
       1.157255956364e+01       2.190568224453e-17 
       1.249576238137e+01       1.562503986628e-17 
       1.349261385375e+01       1.257965260482e-17 
       1.456898931416e+01       9.534227565608e-18 
       1.573123280165e+01       2.114442810746e-18 
       1.698619445202e+01       8.730932578695e-19 
       1.834127087176e+01       8.515583050619e-19 
       1.980444873285e+01       1.168696522128e-18 
       2.138435184532e+01       5.157724503802e-19 
       2.309029198506e+01       5.083701168362e-19 
       2.493232377636e+01       7.754879945082e-19 
       2.692130395282e+01       1.809715397695e-19 
       2.906895534573e+01       7.611307920907e-20 
       3.138793597714e+01       1.960203041653e-19 
       3.389191366484e+01       3.490222323401e-20 
       3.659564657905e+01       1.115577692311e-19 
       3.951507022538e+01       4.189618508084e-21 
       4.266739136701e+01       4.540740443126e-20 
       4.607118943941e+01       3.671608328803e-20 
       4.974652605557e+01       4.008491944497e-21 
       5.371506324689e+01       2.165883193223e-21 
       5.800019113685e+01       1.803168681065e-20 
       6.262716579983e+01       8.098938050608e-21 
       6.762325811764e+01       1.078870387535e-21 
