# Matter power spectrum P(k) at redshift z=99
# for k=1.04775e-05 to 66.1767 h/Mpc,
# number of wavenumbers equal to 130
#    1:k (h/Mpc)              2:P (Mpc/h)^3        
       1.047750691046e-05       7.261927681164e-03 
       1.319039970183e-05       9.069258202228e-03 
       1.660572937635e-05       1.132639106772e-02 
       2.090537469327e-05       1.414527123458e-02 
       2.631830744443e-05       1.766569584132e-02 
       3.313278603720e-05       2.206225516034e-02 
       4.171170630578e-05       2.755297766391e-02 
       5.251192703764e-05       3.441013523091e-02 
       6.610859936996e-05       4.297372172956e-02 
       8.322579568497e-05       5.366826853166e-02 
       1.047750691046e-04       6.702379873052e-02 
       1.319039970183e-04       8.370193441633e-02 
       1.660572937635e-04       1.045283355427e-01 
       2.090537469327e-04       1.305329134157e-01 
       2.631830744443e-04       1.629994506671e-01 
       3.313278603720e-04       2.035264004684e-01 
       4.171170630578e-04       2.541004744344e-01 
       5.251192703764e-04       3.171839528680e-01 
       6.610859936996e-04       3.958147256660e-01 
       8.322579568497e-04       4.937136006462e-01 
       1.047750691046e-03       6.153841636225e-01 
       1.319039970183e-03       7.661720592942e-01 
       1.660572937635e-03       9.522588016580e-01 
       2.090537469327e-03       1.180312991682e+00 
       2.631830744443e-03       1.456802684594e+00 
       3.313278603720e-03       1.786503853758e+00 
       4.171170630578e-03       2.169896193274e+00 
       5.251192703764e-03       2.599430628861e+00 
       6.610859936996e-03       3.055668530732e+00 
       8.322579568497e-03       3.505725587380e+00 
       1.047750691046e-02       3.905491670452e+00 
       1.319039970183e-02       4.200915345267e+00 
       1.660572937633e-02       4.325061845198e+00 
       2.090537453514e-02       4.210202378710e+00 
       2.631818545635e-02       3.825150172183e+00 
       3.311571692125e-02       3.229064284597e+00 
       4.113809243311e-02       2.627732615928e+00 
       4.792590854610e-02       2.280782793117e+00 
       5.284436902701e-02       2.110082788935e+00 
       5.689644391095e-02       2.003534814243e+00 
       6.051252627066e-02       1.923052759453e+00 
       6.388413457411e-02       1.852731142602e+00 
       6.711249296401e-02       1.784560044080e+00 
       7.025823437965e-02       1.714273051419e+00 
       7.336115587705e-02       1.639809199935e+00 
       7.644928796912e-02       1.560659023637e+00 
       7.954353299775e-02       1.477452006551e+00 
       8.266024078725e-02       1.391692706003e+00 
       8.581273398637e-02       1.305457310278e+00 
       8.901225918437e-02       1.221116989242e+00 
       9.226860540985e-02       1.141076034472e+00 
       9.559052048996e-02       1.067446371291e+00 
       9.898599946599e-02       1.001883639940e+00 
       1.024624891378e-01       9.453774832894e-01 
       1.060270359164e-01       8.981468044703e-01 
       1.096863943056e-01       8.596091648344e-01 
       1.134471073830e-01       8.283994627668e-01 
       1.173155669539e-01       8.024616859772e-01 
       1.212980586983e-01       7.792234645083e-01 
       1.254007961065e-01       7.559097850129e-01 
       1.296299459934e-01       7.299780451158e-01 
       1.339916477160e-01       6.995874931386e-01 
       1.384920277736e-01       6.640728103707e-01 
       1.431372111762e-01       6.241405915993e-01 
       1.479333307714e-01       5.817569572687e-01 
       1.528865355934e-01       5.396845315882e-01 
       1.580029992204e-01       5.008085829896e-01 
       1.632889290723e-01       4.673931221409e-01 
       1.687505775527e-01       4.405286805084e-01 
       1.743942559171e-01       4.198605594945e-01 
       1.802263517371e-01       4.036540030299e-01 
       1.862533508214e-01       3.893536030566e-01 
       1.924818644494e-01       3.741299611367e-01 
       1.989186627765e-01       3.557963467863e-01 
       2.055707152847e-01       3.339943106511e-01 
       2.124452391818e-01       3.102599328505e-01 
       2.195497567139e-01       2.871169019230e-01 
       2.268921624510e-01       2.668021182152e-01 
       2.344808017550e-01       2.504777670393e-01 
       2.423245618548e-01       2.378274032231e-01 
       2.504329772620e-01       2.271057928078e-01 
       2.588163516754e-01       2.161115920900e-01 
       2.674858990930e-01       2.035394598863e-01 
       2.764539076010e-01       1.895922120178e-01 
       2.857339303080e-01       1.757509629841e-01 
       2.953410092148e-01       1.636935560679e-01 
       3.052919395542e-01       1.539006381228e-01 
       3.156055844677e-01       1.455254769081e-01 
       3.263032530092e-01       1.372440116657e-01 
       3.374091587054e-01       1.282959143064e-01 
       3.489509817175e-01       1.191656955566e-01 
       3.609605657343e-01       1.108016733562e-01 
       3.734747921333e-01       1.036396447078e-01 
       3.865366902904e-01       9.713575798146e-02 
       4.001968667448e-01       9.061013509393e-02 
       4.145153713076e-01       8.403174771661e-02 
       4.295641718077e-01       7.788593185077e-02 
       4.454304922144e-01       7.233659352967e-02 
       4.622214006969e-01       6.708864202262e-02 
       4.800702491654e-01       6.188662000722e-02 
       4.991459272112e-01       5.692141109685e-02 
       5.196665217302e-01       5.231120134548e-02 
       5.419201087032e-01       4.782795946368e-02 
       5.662975451962e-01       4.348224201716e-02 
       5.933463737275e-01       3.932651755164e-02 
       6.238638458458e-01       3.524878965099e-02 
       6.590669257916e-01       3.125852345918e-02 
       7.009246080454e-01       2.728297739235e-02 
       7.528593308799e-01       2.327425474147e-02 
       8.213469537518e-01       1.914432451062e-02 
       9.196980813302e-01       1.481335338318e-02 
       1.075112183810e+00       1.034754916404e-02 
       1.322697471132e+00       6.376526948131e-03 
       1.662328205042e+00       3.703156879654e-03 
       2.092692408506e+00       2.122413927191e-03 
       2.634543445090e+00       1.206185516996e-03 
       3.316693691389e+00       6.802260389628e-04 
       4.175469971226e+00       3.808864123832e-04 
       5.256605252960e+00       2.118505900748e-04 
       6.617673932723e+00       1.170761763937e-04 
       8.331157880872e+00       6.428821821840e-05 
       1.048830636590e+01       3.506930020097e-05 
       1.320399541071e+01       1.899217903083e-05 
       1.662284535976e+01       1.019880659474e-05 
       2.092692243973e+01       5.419056820933e-06 
       2.634543445002e+01       2.839246502880e-06 
       3.316693691389e+01       1.458830940833e-06 
       4.175469971226e+01       7.287260314339e-07 
       5.256605252960e+01       3.491096096755e-07 
       6.617673932723e+01       1.569550564581e-07 
