# Matter power spectrum P(k) at redshift z=0
# for k=1.04775e-05 to 66.1767 h/Mpc,
# number of wavenumbers equal to 130
#    1:k (h/Mpc)              2:P (Mpc/h)^3        
       1.047750691046e-05       5.020963250431e+01 
       1.319039970183e-05       6.270560687263e+01 
       1.660572937635e-05       7.831147177119e+01 
       2.090537469327e-05       9.780105499862e+01 
       2.631830744443e-05       1.221408171682e+02 
       3.313278603720e-05       1.525374340697e+02 
       4.171170630578e-05       1.904975941402e+02 
       5.251192703764e-05       2.379022209592e+02 
       6.610859936996e-05       2.970989224414e+02 
       8.322579568497e-05       3.710167332595e+02 
       1.047750691046e-04       4.633080770378e+02 
       1.319039970183e-04       5.785234113394e+02 
       1.660572937635e-04       7.223242639040e+02 
       2.090537469327e-04       9.017396173436e+02 
       2.631830744443e-04       1.125468091103e+03 
       3.313278603720e-04       1.404222957697e+03 
       4.171170630578e-04       1.751107738091e+03 
       5.251192703764e-04       2.181997583161e+03 
       6.610859936996e-04       2.715887408379e+03 
       8.322579568497e-04       3.375144710991e+03 
       1.047750691046e-03       4.185529796615e+03 
       1.319039970183e-03       5.175677857527e+03 
       1.660572937635e-03       6.375934549290e+03 
       2.090537469327e-03       7.815137353510e+03 
       2.631830744443e-03       9.516303643884e+03 
       3.313278603720e-03       1.148957855119e+04 
       4.171170630578e-03       1.372214899254e+04 
       5.251192703764e-03       1.616376979035e+04 
       6.610859936996e-03       1.870808979953e+04 
       8.322579568497e-03       2.116707927938e+04 
       1.047750691046e-02       2.323966402297e+04 
       1.319039970183e-02       2.447692604855e+04 
       1.660572937633e-02       2.426730392071e+04 
       2.090537453514e-02       2.191491460772e+04 
       2.631818545635e-02       1.696945897079e+04 
       3.311571692125e-02       9.988384509557e+03 
       4.113809243311e-02       3.602568344738e+03 
       4.792590854610e-02       8.140813863140e+02 
       5.284436902701e-02       8.775677091478e+01 
       5.689644391095e-02       1.113358946841e+01 
       6.051252627066e-02       1.456899452269e+02 
       6.388413457411e-02       3.221319433269e+02 
       6.711249296401e-02       4.656220316780e+02 
       7.025823437965e-02       5.452838786348e+02 
       7.336115587705e-02       5.549211026984e+02 
       7.644928796912e-02       5.034765420165e+02 
       7.954353299775e-02       4.088919329528e+02 
       8.266024078725e-02       2.933178540733e+02 
       8.581273398637e-02       1.790079215311e+02 
       8.901225918437e-02       8.484364852022e+01 
       9.226860540985e-02       2.360465289118e+01 
       9.559052048996e-02       3.135453005156e-01 
       9.898599946599e-02       1.191149667100e+01 
       1.024624891378e-01       4.838829556645e+01 
       1.060270359164e-01       9.526996926916e+01 
       1.096863943056e-01       1.370731250324e+02 
       1.134471073830e-01       1.610448659251e+02 
       1.173155669539e-01       1.603216567410e+02 
       1.212980586983e-01       1.356277642908e+02 
       1.254007961065e-01       9.490607301036e+01 
       1.296299459934e-01       5.076041249957e+01 
       1.339916477160e-01       1.629412222385e+01 
       1.384920277736e-01       5.984156909810e-01 
       1.431372111762e-01       5.474867753876e+00 
       1.479333307714e-01       2.481729000752e+01 
       1.528865355934e-01       4.718047078239e+01 
       1.580029992204e-01       6.076265200079e+01 
       1.632889290723e-01       5.876371491241e+01 
       1.687505775527e-01       4.254013726183e+01 
       1.743942559171e-01       2.070233190256e+01 
       1.802263517371e-01       4.257694021155e+00 
       1.862533508214e-01       2.837103171377e-01 
       1.924818644494e-01       7.882418451055e+00 
       1.989186627765e-01       1.911458334046e+01 
       2.055707152847e-01       2.462540129701e+01 
       2.124452391818e-01       2.034111838308e+01 
       2.195497567139e-01       9.984163232257e+00 
       2.268921624510e-01       1.558196648508e+00 
       2.344808017550e-01       5.588589785278e-01 
       2.423245618548e-01       5.402341193052e+00 
       2.504329772620e-01       9.599061301857e+00 
       2.588163516754e-01       8.485366600097e+00 
       2.674858990930e-01       3.569759360576e+00 
       2.764539076010e-01       1.707929664543e-01 
       2.857339303080e-01       9.776913154209e-01 
       2.953410092148e-01       3.382211758195e+00 
       3.052919395542e-01       3.508323415398e+00 
       3.156055844677e-01       1.343814895650e+00 
       3.263032530092e-01       6.033936414378e-03 
       3.374091587054e-01       7.284969479033e-01 
       3.489509817175e-01       1.461083979418e+00 
       3.609605657343e-01       7.819007214651e-01 
       3.734747921333e-01       2.064939557950e-02 
       3.865366902904e-01       2.762229313911e-01 
       4.001968667448e-01       5.191193779439e-01 
       4.145153713076e-01       1.475735133471e-01 
       4.295641718077e-01       2.254538524108e-02 
       4.454304922144e-01       1.850100660054e-01 
       4.622214006969e-01       7.025241138566e-02 
       4.800702491654e-01       9.888611377027e-03 
       4.991459272112e-01       6.065198740026e-02 
       5.196665217302e-01       3.946565108638e-03 
       5.419201087032e-01       1.763227511801e-02 
       5.662975451962e-01       3.862652636174e-03 
       5.933463737275e-01       5.472013350083e-03 
       6.238638458458e-01       8.198764355554e-05 
       6.590669257916e-01       1.156999644455e-03 
       7.009246080454e-01       4.418439155389e-04 
       7.528593308799e-01       1.266839940025e-04 
       8.213469537518e-01       7.656343331027e-06 
       9.196980813302e-01       8.622870338289e-07 
       1.075112183810e+00       1.315633365334e-08 
       1.322697471132e+00       1.286565895771e-11 
       1.662328205042e+00       1.912506931597e-09 
       2.092692408506e+00       2.361524224680e-10 
       2.634543445090e+00       3.184758704102e-11 
       3.316693691389e+00       3.272320762616e-13 
       4.175469971226e+00       3.550660711451e-12 
       5.256605252960e+00       5.700973691473e-13 
       6.617673932723e+00       1.152266689026e-14 
       8.331157880872e+00       4.022698137262e-15 
       1.048830636590e+01       1.026105723858e-16 
       1.320399541071e+01       2.697924014910e-17 
       1.662284535976e+01       5.553455075667e-19 
       2.092692243973e+01       4.843639398448e-19 
       2.634543445002e+01       1.382951509452e-21 
       3.316693691389e+01       1.152360668933e-23 
       4.175469971226e+01       3.611933924120e-22 
       5.256605252960e+01       3.226095504677e-23 
       6.617673932723e+01       1.131328140219e-23 
