# Matter power spectrum P(k) at redshift z=99
# for k=1.04775e-05 to 66.1767 h/Mpc,
# number of wavenumbers equal to 130
#    1:k (h/Mpc)              2:P (Mpc/h)^3        
       1.047750691046e-05       7.262710429447e-03 
       1.319039970183e-05       9.070236980234e-03 
       1.660572937635e-05       1.132761362368e-02 
       2.090537469327e-05       1.414679566371e-02 
       2.631830744443e-05       1.766759704916e-02 
       3.313278603720e-05       2.206462977808e-02 
       4.171170630578e-05       2.755594456091e-02 
       5.251192703764e-05       3.441384178442e-02 
       6.610859936996e-05       4.297835016288e-02 
       8.322579568497e-05       5.367404410365e-02 
       1.047750691046e-04       6.703100361281e-02 
       1.319039970183e-04       8.371091832064e-02 
       1.660572937635e-04       1.045395264845e-01 
       2.090537469327e-04       1.305468309870e-01 
       2.631830744443e-04       1.630167191153e-01 
       3.313278603720e-04       2.035477418153e-01 
       4.171170630578e-04       2.541266801145e-01 
       5.251192703764e-04       3.172157935838e-01 
       6.610859936996e-04       3.958527210777e-01 
       8.322579568497e-04       4.937575063329e-01 
       1.047750691046e-03       6.154318474546e-01 
       1.319039970183e-03       7.662170546855e-01 
       1.660572937635e-03       9.522846763494e-01 
       2.090537469327e-03       1.180279687747e+00 
       2.631830744443e-03       1.456618263789e+00 
       3.313278603720e-03       1.785954054003e+00 
       4.171170630578e-03       2.168473687376e+00 
       5.251192703764e-03       2.595921465160e+00 
       6.610859936996e-03       3.047185144913e+00 
       8.322579568497e-03       3.485595218062e+00 
       1.047750691046e-02       3.859075846433e+00 
       1.319039970183e-02       4.098166909342e+00 
       1.660572937633e-02       4.108706340283e+00 
       2.090537453514e-02       3.781895690175e+00 
       2.631818545635e-02       3.044678345592e+00 
       3.311571692125e-02       1.963406545339e+00 
       4.113809243311e-02       9.017229021031e-01 
       4.792590854610e-02       3.498562881005e-01 
       5.284436902701e-02       1.360706288707e-01 
       5.689644391095e-02       4.643685547483e-02 
       6.051252627066e-02       1.065551021688e-02 
       6.388413457411e-02       3.780187618151e-04 
       6.711249296401e-02       1.823939226318e-03 
       7.025823437965e-02       7.664909459220e-03 
       7.336115587705e-02       1.396184192464e-02 
       7.644928796912e-02       1.875035740768e-02 
       7.954353299775e-02       2.128403415600e-02 
       8.266024078725e-02       2.155986904296e-02 
       8.581273398637e-02       1.999523259550e-02 
       8.901225918437e-02       1.719453299894e-02 
       9.226860540985e-02       1.378740396553e-02 
       9.559052048996e-02       1.031618636965e-02 
       9.898599946599e-02       7.177294326232e-03 
       1.024624891378e-01       4.603765950973e-03 
       1.060270359164e-01       2.679027376793e-03 
       1.096863943056e-01       1.371715684061e-03 
       1.134471073830e-01       5.796057021370e-04 
       1.173155669539e-01       1.707846692380e-04 
       1.212980586983e-01       1.632689320350e-05 
       1.254007961065e-01       9.745057843749e-06 
       1.296299459934e-01       7.429250678812e-05 
       1.339916477160e-01       1.610380263347e-04 
       1.384920277736e-01       2.421225758599e-04 
       1.431372111762e-01       3.031229896186e-04 
       1.479333307714e-01       3.369881668715e-04 
       1.528865355934e-01       3.406480189845e-04 
       1.580029992204e-01       3.141239236912e-04 
       1.632889290723e-01       2.615356264758e-04 
       1.687505775527e-01       1.920521651463e-04 
       1.743942559171e-01       1.191872804328e-04 
       1.802263517371e-01       5.744139055180e-05 
       1.862533508214e-01       1.706909913146e-05 
       1.924818644494e-01       9.301974930240e-07 
       1.989186627765e-01       2.705141496058e-06 
       2.055707152847e-01       1.246815773062e-05 
       2.124452391818e-01       2.074803486196e-05 
       2.195497567139e-01       2.256705009253e-05 
       2.268921624510e-01       1.907604898317e-05 
       2.344808017550e-01       1.328321329549e-05 
       2.423245618548e-01       7.461050205632e-06 
       2.504329772620e-01       3.331733522972e-06 
       2.588163516754e-01       1.107819619328e-06 
       2.674858990930e-01       1.310291686694e-07 
       2.764539076010e-01       5.065320039215e-08 
       2.857339303080e-01       4.082205550750e-07 
       2.953410092148e-01       8.142307737285e-07 
       3.052919395542e-01       8.960831330081e-07 
       3.156055844677e-01       6.225273929926e-07 
       3.263032530092e-01       2.920156903480e-07 
       3.374091587054e-01       5.841848181916e-08 
       3.489509817175e-01       5.062323840325e-10 
       3.609605657343e-01       1.707709258701e-08 
       3.734747921333e-01       3.937169423482e-08 
       3.865366902904e-01       5.114845192648e-08 
       4.001968667448e-01       4.090360156417e-08 
       4.145153713076e-01       2.449008486545e-08 
       4.295641718077e-01       6.234172824908e-09 
       4.454304922144e-01       4.522247331678e-10 
       4.622214006969e-01       2.503297032170e-10 
       4.800702491654e-01       6.487914753879e-10 
       4.991459272112e-01       1.763998201153e-10 
       5.196665217302e-01       1.090318520763e-11 
       5.419201087032e-01       2.363635348526e-10 
       5.662975451962e-01       3.482426283924e-10 
       5.933463737275e-01       2.295447981585e-10 
       6.238638458458e-01       9.746089589046e-11 
       6.590669257916e-01       2.866964592196e-11 
       7.009246080454e-01       8.643195590409e-11 
       7.528593308799e-01       7.416522992878e-11 
       8.213469537518e-01       7.415442834620e-12 
       9.196980813302e-01       5.239856785758e-12 
       1.075112183810e+00       1.406981284893e-12 
       1.322697471132e+00       8.609479129187e-13 
       1.662328205042e+00       5.528219619111e-15 
       2.092692408506e+00       8.108463769209e-14 
       2.634543445090e+00       1.994984362615e-14 
       3.316693691389e+00       5.105160101093e-15 
       4.175469971226e+00       3.301931258464e-15 
       5.256605252960e+00       9.812029004082e-16 
       6.617673932723e+00       1.683798384801e-16 
       8.331157880872e+00       7.122559526964e-17 
       1.048830636590e+01       1.312563631537e-17 
       1.320399541071e+01       7.435495261004e-18 
       1.662284535976e+01       1.541464850011e-18 
       2.092692243973e+01       3.754131985852e-19 
       2.634543445002e+01       1.975255749015e-19 
       3.316693691389e+01       2.675285637577e-20 
       4.175469971226e+01       1.791118883941e-20 
       5.256605252960e+01       2.113025765334e-22 
       6.617673932723e+01       4.905369328428e-21 
