# Matter power spectrum P(k) at redshift z=99
# for k=1.04775e-05 to 66.1767 h/Mpc,
# number of wavenumbers equal to 130
#    1:k (h/Mpc)              2:P (Mpc/h)^3        
       1.047750691046e-05       7.261927680862e-03 
       1.319039970183e-05       9.069258201849e-03 
       1.660572937635e-05       1.132639106725e-02 
       2.090537469327e-05       1.414527123399e-02 
       2.631830744443e-05       1.766569584058e-02 
       3.313278603720e-05       2.206225515942e-02 
       4.171170630578e-05       2.755297766277e-02 
       5.251192703764e-05       3.441013522947e-02 
       6.610859936996e-05       4.297372172778e-02 
       8.322579568497e-05       5.366826852944e-02 
       1.047750691046e-04       6.702379872774e-02 
       1.319039970183e-04       8.370193441286e-02 
       1.660572937635e-04       1.045283355384e-01 
       2.090537469327e-04       1.305329134104e-01 
       2.631830744443e-04       1.629994506605e-01 
       3.313278603720e-04       2.035264004601e-01 
       4.171170630578e-04       2.541004744243e-01 
       5.251192703764e-04       3.171839528557e-01 
       6.610859936996e-04       3.958147256513e-01 
       8.322579568497e-04       4.937136006271e-01 
       1.047750691046e-03       6.153841636041e-01 
       1.319039970183e-03       7.661720592821e-01 
       1.660572937635e-03       9.522588016471e-01 
       2.090537469327e-03       1.180312991699e+00 
       2.631830744443e-03       1.456802684686e+00 
       3.313278603720e-03       1.786503854044e+00 
       4.171170630578e-03       2.169896191356e+00 
       5.251192703764e-03       2.599430630720e+00 
       6.610859936996e-03       3.055668694575e+00 
       8.322579568497e-03       3.505725598499e+00 
       1.047750691046e-02       3.905491149028e+00 
       1.319039970183e-02       4.200915268302e+00 
       1.660572937633e-02       4.325060036757e+00 
       2.090537453514e-02       4.210208000389e+00 
       2.631818545635e-02       3.825149630529e+00 
       3.311571692125e-02       3.229064294321e+00 
       4.113809243311e-02       2.627728182184e+00 
       4.792590854610e-02       2.280796375443e+00 
       5.284436902701e-02       2.110084369331e+00 
       5.689644391095e-02       2.003543905039e+00 
       6.051252627066e-02       1.923059928152e+00 
       6.388413457411e-02       1.852735134204e+00 
       6.711249296401e-02       1.784562877051e+00 
       7.025823437965e-02       1.714275438361e+00 
       7.336115587705e-02       1.639813018093e+00 
       7.644928796912e-02       1.560664648443e+00 
       7.954353299775e-02       1.477458247964e+00 
       8.266024078725e-02       1.391697604991e+00 
       8.581273398637e-02       1.305461421613e+00 
       8.901225918437e-02       1.221124726443e+00 
       9.226860540985e-02       1.141079503430e+00 
       9.559052048996e-02       1.067452898494e+00 
       9.898599946599e-02       1.001887889849e+00 
       1.024624891378e-01       9.453814862746e-01 
       1.060270359164e-01       8.981510844026e-01 
       1.096863943056e-01       8.596144896864e-01 
       1.134471073830e-01       8.284056120946e-01 
       1.173155669539e-01       8.024681294476e-01 
       1.212980586983e-01       7.792291217929e-01 
       1.254007961065e-01       7.559185135604e-01 
       1.296299459934e-01       7.299826707217e-01 
       1.339916477160e-01       6.995931967870e-01 
       1.384920277736e-01       6.640791233743e-01 
       1.431372111762e-01       6.241468721780e-01 
       1.479333307714e-01       5.817644036564e-01 
       1.528865355934e-01       5.396944587330e-01 
       1.580029992204e-01       5.008140174107e-01 
       1.632889290723e-01       4.673987994625e-01 
       1.687505775527e-01       4.405336061512e-01 
       1.743942559171e-01       4.198652440181e-01 
       1.802263517371e-01       4.036599019185e-01 
       1.862533508214e-01       3.893597079414e-01 
       1.924818644494e-01       3.741354782611e-01 
       1.989186627765e-01       3.558025196514e-01 
       2.055707152847e-01       3.339987575655e-01 
       2.124452391818e-01       3.102659103300e-01 
       2.195497567139e-01       2.871232618379e-01 
       2.268921624510e-01       2.668083414156e-01 
       2.344808017550e-01       2.504832979072e-01 
       2.423245618548e-01       2.378334069714e-01 
       2.504329772620e-01       2.271123899451e-01 
       2.588163516754e-01       2.161178022863e-01 
       2.674858990930e-01       2.035460095327e-01 
       2.764539076010e-01       1.895976705736e-01 
       2.857339303080e-01       1.757572298261e-01 
       2.953410092148e-01       1.636999927098e-01 
       3.052919395542e-01       1.539065505858e-01 
       3.156055844677e-01       1.455313547909e-01 
       3.263032530092e-01       1.372499122226e-01 
       3.374091587054e-01       1.283019025208e-01 
       3.489509817175e-01       1.191713813348e-01 
       3.609605657343e-01       1.108073750629e-01 
       3.734747921333e-01       1.036457514794e-01 
       3.865366902904e-01       9.714128656258e-02 
       4.001968667448e-01       9.061557332632e-02 
       4.145153713076e-01       8.403682239056e-02 
       4.295641718077e-01       7.789123231852e-02 
       4.454304922144e-01       7.234193306377e-02 
       4.622214006969e-01       6.709373561296e-02 
       4.800702491654e-01       6.189189228941e-02 
       4.991459272112e-01       5.692646230938e-02 
       5.196665217302e-01       5.231635633408e-02 
       5.419201087032e-01       4.783266071014e-02 
       5.662975451962e-01       4.348694436934e-02 
       5.933463737275e-01       3.933113305331e-02 
       6.238638458458e-01       3.525346582211e-02 
       6.590669257916e-01       3.126297887174e-02 
       7.009246080454e-01       2.728736650989e-02 
       7.528593308799e-01       2.327841194121e-02 
       8.213469537518e-01       1.914831109720e-02 
       9.196980813302e-01       1.481703010575e-02 
       1.075112183810e+00       1.035093025374e-02 
       1.322697471132e+00       6.379478827797e-03 
       1.662328205042e+00       3.705674355695e-03 
       2.092692408506e+00       2.124543650492e-03 
       2.634543445090e+00       1.207968987689e-03 
       3.316693691389e+00       6.817164027228e-04 
       4.175469971226e+00       3.821224495024e-04 
       5.256605252960e+00       2.128740406616e-04 
       6.617673932723e+00       1.179236862334e-04 
       8.331157880872e+00       6.498701979160e-05 
       1.048830636590e+01       3.564497795159e-05 
       1.320399541071e+01       1.946610128636e-05 
       1.662284535976e+01       1.058770775829e-05 
       2.092692243973e+01       5.737209165261e-06 
       2.634543445002e+01       3.098038671996e-06 
       3.316693691389e+01       1.667456522529e-06 
       4.175469971226e+01       8.946925999101e-07 
       5.256605252960e+01       4.786311981352e-07 
       6.617673932723e+01       2.553056371301e-07 
