# Matter power spectrum P(k) at redshift z=0
# for k=1.04775e-05 to 67.6233 h/Mpc,
# number of wavenumbers equal to 246
#    1:k (h/Mpc)              2:P (Mpc/h)^3        
       1.047750691046e-05       5.020964239426e+01 
       1.131335172503e-05       5.407049108254e+01 
       1.221587619537e-05       5.822819601092e+01 
       1.319039970183e-05       6.270561236839e+01 
       1.424266597921e-05       6.752731452728e+01 
       1.537887696968e-05       7.271977649095e+01 
       1.660572937635e-05       7.831148440944e+01 
       1.793045413292e-05       8.433312249436e+01 
       1.936085902198e-05       9.081778413250e+01 
       2.090537469327e-05       9.780109036037e+01 
       2.257310435294e-05       1.053212927134e+02 
       2.437387741694e-05       1.134197397088e+02 
       2.631830744443e-05       1.221408342218e+02 
       2.841785469300e-05       1.315324671334e+02 
       3.068489366414e-05       1.416461525808e+02 
       3.313278603720e-05       1.525374474356e+02 
       3.577595942169e-05       1.642660510299e+02 
       3.862999239199e-05       1.768963515262e+02 
       4.171170630578e-05       1.904976039862e+02 
       4.503926444729e-05       2.051444263005e+02 
       4.863227907969e-05       2.209171458921e+02 
       5.251192703764e-05       2.379022264409e+02 
       5.670107454120e-05       2.561927825011e+02 
       6.122441196689e-05       2.758890480272e+02 
       6.610859936996e-05       2.970989213088e+02 
       7.138242361596e-05       3.199385562218e+02 
       7.707696804727e-05       3.445329738798e+02 
       8.322579568497e-05       3.710167335488e+02 
       8.986514704559e-05       3.995346445540e+02 
       9.703415373875e-05       4.302425396018e+02 
       1.047750691046e-04       4.633080772702e+02 
       1.131335172503e-04       4.989116273669e+02 
       1.221587619537e-04       5.372471940309e+02 
       1.319039970183e-04       5.785234128091e+02 
       1.424266597921e-04       6.229645935605e+02 
       1.537887696968e-04       6.708118478190e+02 
       1.660572937635e-04       7.223242652592e+02 
       1.793045413292e-04       7.777801556414e+02 
       1.936085902198e-04       8.374783625438e+02 
       2.090537469327e-04       9.017396271913e+02 
       2.257310435294e-04       9.709080270238e+02 
       2.437387741694e-04       1.045352449074e+03 
       2.631830744443e-04       1.125468121992e+03 
       2.841785469300e-04       1.211678179764e+03 
       3.068489366414e-04       1.304435248194e+03 
       3.313278603720e-04       1.404223050335e+03 
       3.577595942169e-04       1.511558014240e+03 
       3.862999239199e-04       1.626990834672e+03 
       4.171170630578e-04       1.751108018296e+03 
       4.503926444729e-04       1.884533368912e+03 
       4.863227907969e-04       2.027929359552e+03 
       5.251192703764e-04       2.181998418632e+03 
       5.670107454121e-04       2.347484055687e+03 
       6.122441196689e-04       2.525171806922e+03 
       6.610859936996e-04       2.715889895515e+03 
       7.138242361596e-04       2.920509560437e+03 
       7.707696804727e-04       3.139944909411e+03 
       8.322579568497e-04       3.375152071359e+03 
       8.986514704559e-04       3.627127469853e+03 
       9.703415373875e-04       3.896904908863e+03 
       1.047750691046e-03       4.185551393656e+03 
       1.131335172503e-03       4.494161314800e+03 
       1.221587619537e-03       4.823849114670e+03 
       1.319039970183e-03       5.175740461467e+03 
       1.424266597921e-03       5.551016290705e+03 
       1.537887696968e-03       5.950783428327e+03 
       1.660572937635e-03       6.376115822792e+03 
       1.793045413292e-03       6.828063357419e+03 
       1.936085902198e-03       7.307610137396e+03 
       2.090537469327e-03       7.815649916528e+03 
       2.257310435294e-03       8.352958981367e+03 
       2.437387741694e-03       8.920166302243e+03 
       2.631830744443e-03       9.517719656301e+03 
       2.841785469300e-03       1.014584754811e+04 
       3.068489366414e-03       1.080451905343e+04 
       3.313278603720e-03       1.149339790177e+04 
       3.577595942169e-03       1.221178957951e+04 
       3.862999239199e-03       1.295858254945e+04 
       4.171170630578e-03       1.373218462867e+04 
       4.503926444729e-03       1.453046154225e+04 
       4.863227907969e-03       1.535064625782e+04 
       5.251192703764e-03       1.618939659173e+04 
       5.670107454120e-03       1.704261903918e+04 
       6.122441196689e-03       1.790525211301e+04 
       6.610859936996e-03       1.877147563456e+04 
       7.138242361596e-03       1.963449479596e+04 
       7.707696804727e-03       2.048646216595e+04 
       8.322579568496e-03       2.131843263565e+04 
       8.986514704559e-03       2.212034758355e+04 
       9.703415373875e-03       2.288086958385e+04 
       1.047750691046e-02       2.358747763450e+04 
       1.131335172503e-02       2.422645244011e+04 
       1.221587619537e-02       2.478301719718e+04 
       1.319039970183e-02       2.524131001656e+04 
       1.424266597920e-02       2.558489838066e+04 
       1.537887696964e-02       2.579706623357e+04 
       1.660572937560e-02       2.586133768874e+04 
       1.793045412207e-02       2.576230393155e+04 
       1.936085889642e-02       2.548689010925e+04 
       2.090537351881e-02       2.502535867367e+04 
       2.257309534705e-02       2.437317989916e+04 
       2.437382002240e-02       2.353232117169e+04 
       2.631799943729e-02       2.251334659450e+04 
       2.841644544598e-02       2.133650599281e+04 
       3.067933354524e-02       2.003347813319e+04 
       3.311368469821e-02       1.864789381335e+04 
       3.571840442514e-02       1.723456835223e+04 
       3.847720347390e-02       1.585622079706e+04 
       4.135335537314e-02       1.457538782068e+04 
       4.429361666563e-02       1.343919719204e+04 
       4.724366437916e-02       1.246845957697e+04 
       5.016480834039e-02       1.165664607755e+04 
       5.303989618930e-02       1.097942305913e+04 
       5.586870668205e-02       1.040576008114e+04 
       5.866042679206e-02       9.905232228792e+03 
       6.142798931504e-02       9.451076189884e+03 
       6.418496438662e-02       9.021047217100e+03 
       6.694418832236e-02       8.597765281873e+03 
       6.971731104453e-02       8.168425788957e+03 
       7.251476154108e-02       7.724868067924e+03 
       7.534587669814e-02       7.263525359364e+03 
       7.821907664495e-02       6.785141182810e+03 
       8.114203771084e-02       6.294199310359e+03 
       8.412184533139e-02       5.798479981251e+03 
       8.716512277352e-02       5.307924674596e+03 
       9.027813693913e-02       4.833472783253e+03 
       9.346688429613e-02       4.385797617083e+03 
       9.673716026122e-02       3.974033846318e+03 
       1.000946150608e-01       3.604922337505e+03 
       1.035447986307e-01       3.281758766454e+03 
       1.070931966524e-01       3.004554087194e+03 
       1.107452594180e-01       2.769763771392e+03 
       1.145064248899e-01       2.570806754888e+03 
       1.183821370656e-01       2.398642526974e+03 
       1.223778605591e-01       2.242715844369e+03 
       1.264990921707e-01       2.092280237066e+03 
       1.307513701078e-01       1.938061725241e+03 
       1.351402814485e-01       1.774071008813e+03 
       1.396714683894e-01       1.598886319083e+03 
       1.443506337875e-01       1.416155076279e+03 
       1.491835464900e-01       1.233607941814e+03 
       1.541760469368e-01       1.060838219628e+03 
       1.593340535209e-01       9.066642380396e+02 
       1.646635701934e-01       7.767692804887e+02 
       1.701706958081e-01       6.724599665980e+02 
       1.758616357070e-01       5.907933636998e+02 
       1.817427160581e-01       5.255429292934e+02 
       1.878204014651e-01       4.695631456819e+02 
       1.941013163855e-01       4.154846927499e+02 
       2.005922709060e-01       3.588294364939e+02 
       2.073002914514e-01       2.997871805779e+02 
       2.142326570343e-01       2.424281931246e+02 
       2.213969417044e-01       1.917227640615e+02 
       2.288010639201e-01       1.508582540678e+02 
       2.364533436625e-01       1.203614962566e+02 
       2.443625682390e-01       9.822119210926e+01 
       2.525380678946e-01       8.095166836850e+01 
       2.609898025770e-01       6.542318836101e+01 
       2.697284614969e-01       5.031756236481e+01 
       2.787655775073e-01       3.619909806298e+01 
       2.881136588192e-01       2.460838491826e+01 
       2.977863412019e-01       1.641120970614e+01 
       3.077985646248e-01       1.107563251943e+01 
       3.181667793367e-01       7.482123015378e+00 
       3.289091877084e-01       4.705839435421e+00 
       3.400460298905e-01       2.461737559384e+00 
       3.515999235695e-01       9.476974434785e-01 
       3.635962710278e-01       2.126928173599e-01 
       3.760637505499e-01       5.272945482876e-03 
       3.890349143014e-01       5.779179117410e-02 
       4.025469215929e-01       2.879202921025e-01 
       4.166424455447e-01       6.756252172335e-01 
       4.313708034899e-01       1.105204803267e+00 
       4.467893781976e-01       1.456675928114e+00 
       4.629654198623e-01       1.729065058202e+00 
       4.799783500912e-01       1.971775854888e+00 
       4.979227318246e-01       2.134640110108e+00 
       5.169121269689e-01       2.150400587157e+00 
       5.370841403262e-01       2.077299786776e+00 
       5.586070463286e-01       1.945851256848e+00 
       5.816885093582e-01       1.733390669601e+00 
       6.065870143577e-01       1.473169875968e+00 
       6.336266466978e-01       1.196059443721e+00 
       6.632156057925e-01       9.103978223974e-01 
       6.958678637575e-01       6.454519921848e-01 
       7.322247983784e-01       4.146414094728e-01 
       7.730680193171e-01       2.336475127927e-01 
       8.193049551574e-01       1.077619578027e-01 
       8.718988013754e-01       3.526130549500e-02 
       9.317218028590e-01       4.989225236547e-03 
       9.993660906273e-01       2.552431649576e-04 
       1.075037109879e+00       4.720082407030e-03 
       1.158653485387e+00       8.092281957235e-03 
       1.250099156961e+00       7.611456709149e-03 
       1.349432400897e+00       4.855874379690e-03 
       1.456947456991e+00       2.150229585257e-03 
       1.573135110893e+00       5.859708555016e-04 
       1.698621895119e+00       5.314980651491e-05 
       1.834127512423e+00       8.617494870703e-06 
       1.980444933977e+00       5.131693929839e-05 
       2.138435191130e+00       5.165044465553e-05 
       2.309029198543e+00       2.626272876033e-05 
       2.493232376993e+00       7.105116419374e-06 
       2.692130394536e+00       6.861129272305e-07 
       2.906895533764e+00       1.190976051364e-08 
       3.138793596840e+00       9.943508046018e-08 
       3.389191365541e+00       2.475052910714e-08 
       3.659564656886e+00       3.722028357439e-09 
       3.951507021438e+00       3.597732350594e-08 
       4.266739135513e+00       4.383313584796e-08 
       4.607118942658e+00       3.011390564352e-08 
       4.974652604172e+00       1.702053404140e-08 
       5.371506323193e+00       1.006143441610e-08 
       5.800019112071e+00       7.264527572710e-09 
       6.262716578240e+00       5.732557073199e-09 
       6.762325809881e+00       4.538146382335e-09 
       7.301791449077e+00       3.373528924441e-09 
       7.884293047211e+00       2.441767688835e-09 
       8.513263804891e+00       1.773492995705e-09 
       9.192410806865e+00       1.310928885890e-09 
       9.925736871166e+00       9.487586814145e-10 
       1.071756414128e+01       6.989185942942e-10 
       1.157255956041e+01       5.206351686271e-10 
       1.249576237789e+01       3.869501217733e-10 
       1.349261385000e+01       2.858201573590e-10 
       1.456898931011e+01       2.033807698999e-10 
       1.573123279727e+01       1.394841322378e-10 
       1.698619444729e+01       9.528426532809e-11 
       1.834127086665e+01       6.681488253366e-11 
       1.980444872733e+01       5.023711473050e-11 
       2.138435183937e+01       3.881306082069e-11 
       2.309029197863e+01       2.779820426281e-11 
       2.493232376942e+01       1.753174011965e-11 
       2.692130394533e+01       1.162076299150e-11 
       2.906895533764e+01       9.681497782049e-12 
       3.138793596840e+01       7.361023202580e-12 
       3.389191365541e+01       3.978163953370e-12 
       3.659564656886e+01       3.076918098881e-12 
       3.951507021438e+01       2.777132265729e-12 
       4.266739135513e+01       1.198893559859e-12 
       4.607118942658e+01       1.318856712894e-12 
       4.974652604172e+01       6.972084985417e-13 
       5.371506323193e+01       5.575837579127e-13 
       5.800019112071e+01       3.395755271302e-13 
       6.262716578240e+01       3.315976459674e-13 
       6.762325809881e+01       9.661581102608e-14 
