# Matter power spectrum P(k) at redshift z=99
# for k=1.04775e-05 to 67.6233 h/Mpc,
# number of wavenumbers equal to 246
#    1:k (h/Mpc)              2:P (Mpc/h)^3        
       1.047750691046e-05       7.262983150955e-03 
       1.131335172503e-05       7.821469336785e-03 
       1.221587619537e-05       8.422900194570e-03 
       1.319039970183e-05       9.070576606113e-03 
       1.424266597921e-05       9.768056924322e-03 
       1.537887696968e-05       1.051917049097e-02 
       1.660572937635e-05       1.132803877870e-02 
       1.793045413292e-05       1.219910476142e-02 
       1.936085902198e-05       1.313714993382e-02 
       2.090537469327e-05       1.414732757500e-02 
       2.257310435294e-05       1.523517924504e-02 
       2.437387741694e-05       1.640668054029e-02 
       2.631830744443e-05       1.766826238135e-02 
       2.841785469300e-05       1.902685255944e-02 
       3.068489366414e-05       2.048990695774e-02 
       3.313278603720e-05       2.206546022948e-02 
       3.577595942169e-05       2.376216212982e-02 
       3.862999239199e-05       2.558932525680e-02 
       4.171170630578e-05       2.755698141383e-02 
       4.503926444729e-05       2.967593182159e-02 
       4.863227907969e-05       3.195780868421e-02 
       5.251192703764e-05       3.441513663285e-02 
       5.670107454120e-05       3.706140281595e-02 
       6.122441196689e-05       3.991113202499e-02 
       6.610859936996e-05       4.297996580396e-02 
       7.138242361596e-05       4.628474208213e-02 
       7.707696804727e-05       4.984359891386e-02 
       8.322579568497e-05       5.367606127057e-02 
       8.986514704559e-05       5.780315329224e-02 
       9.703415373875e-05       6.224751477904e-02 
       1.047750691046e-04       6.703352080931e-02 
       1.131335172503e-04       7.218741649722e-02 
       1.221587619537e-04       7.773745393945e-02 
       1.319039970183e-04       8.371405673926e-02 
       1.424266597921e-04       9.014997125538e-02 
       1.537887696968e-04       9.708044827121e-02 
       1.660572937635e-04       1.045434369118e-01 
       1.793045413292e-04       1.125797779519e-01 
       1.936085902198e-04       1.212334303519e-01 
       2.090537469327e-04       1.305516957207e-01 
       2.257310435294e-04       1.405854739881e-01 
       2.437387741694e-04       1.513895250236e-01 
       2.631830744443e-04       1.630227545443e-01 
       2.841785469300e-04       1.755485138864e-01 
       3.068489366414e-04       1.890349216493e-01 
       3.313278603720e-04       2.035552027489e-01 
       3.577595942169e-04       2.191880506239e-01 
       3.862999239199e-04       2.360180034192e-01 
       4.171170630578e-04       2.541358431252e-01 
       4.503926444729e-04       2.736390053670e-01 
       4.863227907969e-04       2.946320164503e-01 
       5.251192703764e-04       3.172269290529e-01 
       5.670107454121e-04       3.415437770616e-01 
       6.122441196689e-04       3.677110244117e-01 
       6.610859936996e-04       3.958660145995e-01 
       7.138242361596e-04       4.261554001782e-01 
       7.707696804727e-04       4.587355458105e-01 
       8.322579568497e-04       4.937728801535e-01 
       8.986514704559e-04       5.314441843177e-01 
       9.703415373875e-04       5.719367783105e-01 
       1.047750691046e-03       6.154485748514e-01 
       1.131335172503e-03       6.621879559028e-01 
       1.221587619537e-03       7.123734187779e-01 
       1.319039970183e-03       7.662329157878e-01 
       1.424266597921e-03       8.240105141633e-01 
       1.537887696968e-03       8.859488374235e-01 
       1.660572937635e-03       9.522941033797e-01 
       1.793045413292e-03       1.023297371343e+00 
       1.936085902198e-03       1.099208164722e+00 
       2.090537469327e-03       1.180269708531e+00 
       2.257310435294e-03       1.266712834188e+00 
       2.437387741694e-03       1.358748589498e+00 
       2.631830744443e-03       1.456558968048e+00 
       2.841785469300e-03       1.560285880078e+00 
       3.068489366414e-03       1.670018127397e+00 
       3.313278603720e-03       1.785776237382e+00 
       3.577595942169e-03       1.907495314756e+00 
       3.862999239199e-03       2.035006164005e+00 
       4.171170630578e-03       2.168015103283e+00 
       4.503926444729e-03       2.306083268875e+00 
       4.863227907969e-03       2.448606727548e+00 
       5.251192703764e-03       2.594798258069e+00 
       5.670107454120e-03       2.743673176381e+00 
       6.122441196689e-03       2.894039935356e+00 
       6.610859936996e-03       3.044496387325e+00 
       7.138242361596e-03       3.193432302595e+00 
       7.707696804727e-03       3.339034974063e+00 
       8.322579568496e-03       3.479293076954e+00 
       8.986514704559e-03       3.611997027286e+00 
       9.703415373875e-03       3.734716936521e+00 
       1.047750691046e-02       3.844773322625e+00 
       1.131335172503e-02       3.939175467065e+00 
       1.221587619537e-02       4.014565645872e+00 
       1.319039970183e-02       4.067181447277e+00 
       1.424266597920e-02       4.092859547013e+00 
       1.537887696964e-02       4.087142565319e+00 
       1.660572937560e-02       4.045445742268e+00 
       1.793045412207e-02       3.963316747147e+00 
       1.936085889642e-02       3.836715768871e+00 
       2.090537351881e-02       3.662369324009e+00 
       2.257309534705e-02       3.438270061393e+00 
       2.437382002240e-02       3.164276286342e+00 
       2.631799943729e-02       2.842973235573e+00 
       2.841644544598e-02       2.480546289541e+00 
       3.067933354524e-02       2.087589192270e+00 
       3.311368469821e-02       1.679814318819e+00 
       3.571840442514e-02       1.278084829219e+00 
       3.847720347390e-02       9.068358746754e-01 
       4.135335537314e-02       5.897077401734e-01 
       4.429361666563e-02       3.430012381031e-01 
       4.724366437916e-02       1.708790378278e-01 
       5.016480834039e-02       6.595790188074e-02 
       5.303989618930e-02       1.420455476908e-02 
       5.586870668205e-02       2.783699390493e-06 
       5.866042679206e-02       9.140851320995e-03 
       6.142798931504e-02       2.996845830412e-02 
       6.418496438662e-02       5.362003331272e-02 
       6.694418832236e-02       7.388076630604e-02 
       6.971731104453e-02       8.694304507226e-02 
       7.251476154108e-02       9.112691743384e-02 
       7.534587669814e-02       8.655225938286e-02 
       7.821907664495e-02       7.475978122385e-02 
       8.114203771084e-02       5.826305049804e-02 
       8.412184533139e-02       4.006538877795e-02 
       8.716512277352e-02       2.314347114096e-02 
       9.027813693913e-02       9.969349715567e-03 
       9.346688429613e-02       2.120591480324e-03 
       9.673716026122e-02       4.143663965652e-05 
       1.000946150608e-01       3.005301635972e-03 
       1.035447986307e-01       9.304996922137e-03 
       1.070931966524e-01       1.664997980653e-02 
       1.107452594180e-01       2.270611956457e-02 
       1.145064248899e-01       2.566595261884e-02 
       1.183821370656e-01       2.470228911379e-02 
       1.223778605591e-01       2.017758922563e-02 
       1.264990921707e-01       1.351825058012e-02 
       1.307513701078e-01       6.755190059461e-03 
       1.351402814485e-01       1.848742119421e-03 
       1.396714683894e-01       6.109679155910e-06 
       1.443506337875e-01       1.248015705832e-03 
       1.491835464900e-01       4.418940916583e-03 
       1.541760469368e-01       7.681050709078e-03 
       1.593340535209e-01       9.325050757806e-03 
       1.646635701934e-01       8.546365367509e-03 
       1.701706958081e-01       5.807127005126e-03 
       1.758616357070e-01       2.550867011025e-03 
       1.817427160581e-01       3.803138963323e-04 
       1.878204014651e-01       1.373418016917e-04 
       1.941013163855e-01       1.442051729211e-03 
       2.005922709060e-01       3.002570460266e-03 
       2.073002914514e-01       3.538870692687e-03 
       2.142326570343e-01       2.684652918467e-03 
       2.213969417044e-01       1.159406675809e-03 
       2.288010639201e-01       1.136638827877e-04 
       2.364533436625e-01       1.556312521926e-04 
       2.443625682390e-01       8.745290038403e-04 
       2.525380678946e-01       1.341861385976e-03 
       2.609898025770e-01       1.056047861106e-03 
       2.697284614969e-01       3.719142536411e-04 
       2.787655775073e-01       3.910311661517e-06 
       2.881136588192e-01       1.775344264613e-04 
       2.977863412019e-01       4.641375033556e-04 
       3.077985646248e-01       4.150762558674e-04 
       3.181667793367e-01       1.295373053277e-04 
       3.289091877084e-01       5.520737974906e-07 
       3.400460298905e-01       1.059353260786e-04 
       3.515999235695e-01       1.724240686847e-04 
       3.635962710278e-01       7.865846934962e-05 
       3.760637505499e-01       6.502469960940e-07 
       3.890349143014e-01       3.469846616470e-05 
       4.025469215929e-01       5.593929138133e-05 
       4.166424455447e-01       1.480157014376e-05 
       4.313708034899e-01       2.228886681850e-06 
       4.467893781976e-01       1.846888274865e-05 
       4.629654198623e-01       8.449895630085e-06 
       4.799783500912e-01       2.764707041702e-07 
       4.979227318246e-01       5.569411165440e-06 
       5.169121269689e-01       1.492553810241e-06 
       5.370841403262e-01       6.723663400156e-07 
       5.586070463286e-01       1.233963562317e-06 
       5.816885093582e-01       1.770853546791e-08 
       6.065870143577e-01       3.943913907312e-07 
       6.336266466978e-01       5.124739945990e-09 
       6.632156057925e-01       7.712466555093e-08 
       6.958678637575e-01       1.500577038598e-08 
       7.322247983784e-01       3.267960496941e-10 
       7.730680193171e-01       2.566460334495e-09 
       8.193049551574e-01       8.423172035876e-10 
       8.718988013754e-01       1.435727256637e-10 
       9.317218028590e-01       2.933073985442e-12 
       9.993660906273e-01       6.244827529980e-12 
       1.075037109879e+00       9.687328120237e-14 
       1.158653485387e+00       2.140855634142e-15 
       1.250099156961e+00       1.830339502905e-12 
       1.349432400897e+00       5.408438685607e-13 
       1.456947456991e+00       6.928234778690e-14 
       1.573135110893e+00       2.224830845579e-13 
       1.698621895119e+00       1.789884472778e-15 
       1.834127512423e+00       7.182903691252e-14 
       1.980444933977e+00       1.472139945822e-14 
       2.138435191130e+00       4.026889616927e-15 
       2.309029198543e+00       1.194702521739e-13 
       2.493232376993e+00       3.150809718410e-16 
       2.692130394536e+00       3.324204696640e-17 
       2.906895533764e+00       2.296119528039e-15 
       3.138793596840e+00       2.532662327160e-15 
       3.389191365541e+00       3.816263072463e-15 
       3.659564656886e+00       9.889753512698e-16 
       3.951507021438e+00       1.021301526893e-15 
       4.266739135513e+00       1.112102281711e-18 
       4.607118942658e+00       8.636250864097e-17 
       4.974652604172e+00       2.289217034688e-16 
       5.371506323193e+00       5.304060001529e-18 
       5.800019112071e+00       3.688733978838e-18 
       6.262716578240e+00       1.093583017565e-19 
       6.762325809881e+00       5.428082790809e-17 
       7.301791449077e+00       3.371790186614e-17 
       7.884293047211e+00       1.168533210933e-17 
       8.513263804891e+00       1.800202267309e-19 
       9.192410806865e+00       8.648828870653e-18 
       9.925736871166e+00       2.439892335790e-20 
       1.071756414128e+01       1.326834372166e-20 
       1.157255956041e+01       1.965616956815e-18 
       1.249576237789e+01       1.419210945538e-18 
       1.349261385000e+01       7.388982873213e-19 
       1.456898931011e+01       4.517259575983e-19 
       1.573123279727e+01       7.660714332807e-21 
       1.698619444729e+01       2.929705779431e-21 
       1.834127086665e+01       4.996631636370e-21 
       1.980444872733e+01       1.153628696148e-21 
       2.138435183937e+01       1.150532867168e-21 
       2.309029197863e+01       7.995765332083e-21 
       2.493232376942e+01       2.041768898918e-21 
       2.692130394533e+01       5.797353850514e-23 
       2.906895533764e+01       2.206762388360e-23 
       3.138793596840e+01       5.905542753264e-24 
       3.389191365541e+01       2.132659129201e-23 
       3.659564656886e+01       3.101037668374e-23 
       3.951507021438e+01       1.992793487284e-23 
       4.266739135513e+01       2.308725838413e-23 
       4.607118942658e+01       6.825351244046e-24 
       4.974652604172e+01       2.932694922010e-24 
       5.371506323193e+01       1.984470412973e-24 
       5.800019112071e+01       9.977895567402e-25 
       6.262716578240e+01       4.568737875972e-25 
       6.762325809881e+01       1.649698889623e-25 
