# Matter power spectrum P(k) at redshift z=99
# for k=1.04775e-05 to 67.6233 h/Mpc,
# number of wavenumbers equal to 246
#    1:k (h/Mpc)              2:P (Mpc/h)^3        
       1.047750691046e-05       7.261927682373e-03 
       1.131335172503e-05       7.820331654060e-03 
       1.221587619537e-05       8.421675997212e-03 
       1.319039970183e-05       9.069258203746e-03 
       1.424266597921e-05       9.766638414163e-03 
       1.537887696968e-05       1.051764071020e-02 
       1.660572937635e-05       1.132639106961e-02 
       1.793045413292e-05       1.219733232968e-02 
       1.936085902198e-05       1.313524226051e-02 
       2.090537469327e-05       1.414527123693e-02 
       2.257310435294e-05       1.523296274141e-02 
       2.437387741694e-05       1.640429446630e-02 
       2.631830744443e-05       1.766569584426e-02 
       2.841785469300e-05       1.902408737400e-02 
       3.068489366414e-05       2.048692973199e-02 
       3.313278603720e-05       2.206225516400e-02 
       3.577595942169e-05       2.375870707931e-02 
       3.862999239199e-05       2.558560730734e-02 
       4.171170630578e-05       2.755297766846e-02 
       4.503926444729e-05       2.967161931093e-02 
       4.863227907969e-05       3.195316454893e-02 
       5.251192703764e-05       3.441013523669e-02 
       5.670107454120e-05       3.705601727242e-02 
       6.122441196689e-05       3.990533418646e-02 
       6.610859936996e-05       4.297372173670e-02 
       7.138242361596e-05       4.627802147579e-02 
       7.707696804727e-05       4.983636200499e-02 
       8.322579568497e-05       5.366826854054e-02 
       8.986514704559e-05       5.779476401911e-02 
       9.703415373875e-05       6.223848251807e-02 
       1.047750691046e-04       6.702379874164e-02 
       1.131335172503e-04       7.217695162565e-02 
       1.221587619537e-04       7.772619083451e-02 
       1.319039970183e-04       8.370193443019e-02 
       1.424266597921e-04       9.013692519004e-02 
       1.537887696968e-04       9.706641254909e-02 
       1.660572937635e-04       1.045283355600e-01 
       1.793045413292e-04       1.125635350498e-01 
       1.936085902198e-04       1.212159616508e-01 
       2.090537469327e-04       1.305329134372e-01 
       2.257310435294e-04       1.405652847999e-01 
       2.437387741694e-04       1.513678304461e-01 
       2.631830744443e-04       1.629994506936e-01 
       2.841785469300e-04       1.755234923450e-01 
       3.068489366414e-04       1.890080672809e-01 
       3.313278603720e-04       2.035264005013e-01 
       3.577595942169e-04       2.191571806455e-01 
       3.862999239199e-04       2.359849440573e-01 
       4.171170630578e-04       2.541004744748e-01 
       4.503926444729e-04       2.736012083728e-01 
       4.863227907969e-04       2.945916794676e-01 
       5.251192703764e-04       3.171839529172e-01 
       5.670107454121e-04       3.414980768287e-01 
       6.122441196689e-04       3.676625417704e-01 
       6.610859936996e-04       3.958147257245e-01 
       7.138242361596e-04       4.261013290129e-01 
       7.707696804727e-04       4.586787798159e-01 
       8.322579568497e-04       4.937136007135e-01 
       8.986514704559e-04       5.313826807920e-01 
       9.703415373875e-04       5.718734979136e-01 
       1.047750691046e-03       6.153841636958e-01 
       1.131335172503e-03       6.621233247416e-01 
       1.221587619537e-03       7.123098228896e-01 
       1.319039970183e-03       7.661720593654e-01 
       1.424266597921e-03       8.239546307271e-01 
       1.537887696968e-03       8.859011183544e-01 
       1.660572937635e-03       9.522588016980e-01 
       1.793045413292e-03       1.023280100922e+00 
       1.936085902198e-03       1.099216305717e+00 
       2.090537469327e-03       1.180312991613e+00 
       2.257310435294e-03       1.266804117012e+00 
       2.437387741694e-03       1.358904854541e+00 
       2.631830744443e-03       1.456802684228e+00 
       2.841785469300e-03       1.560646891475e+00 
       3.068489366414e-03       1.670536063262e+00 
       3.313278603720e-03       1.786503852649e+00 
       3.577595942169e-03       1.908502930832e+00 
       3.862999239199e-03       2.036387730136e+00 
       4.171170630578e-03       2.169896192769e+00 
       4.503926444729e-03       2.308631876335e+00 
       4.863227907969e-03       2.452047286616e+00 
       5.251192703764e-03       2.599430621425e+00 
       5.670107454120e-03       2.749896921934e+00 
       6.122441196689e-03       2.902386499215e+00 
       6.610859936996e-03       3.055668681198e+00 
       7.138242361596e-03       3.208356433584e+00 
       7.707696804727e-03       3.358923854413e+00 
       8.322579568496e-03       3.505725109331e+00 
       8.986514704559e-03       3.647009635588e+00 
       9.703415373875e-03       3.780923207649e+00 
       1.047750691046e-02       3.905490705462e+00 
       1.131335172503e-02       4.018587813604e+00 
       1.221587619537e-02       4.117901355311e+00 
       1.319039970183e-02       4.200915108962e+00 
       1.424266597920e-02       4.264942470729e+00 
       1.537887696964e-02       4.307221721287e+00 
       1.660572937560e-02       4.325061519250e+00 
       1.793045412207e-02       4.316059469427e+00 
       1.936085889642e-02       4.278229002983e+00 
       2.090537351881e-02       4.210203292820e+00 
       2.257309534705e-02       4.111417228526e+00 
       2.437382002240e-02       3.982410079757e+00 
       2.631799943729e-02       3.825163299797e+00 
       2.841644544598e-02       3.643276935767e+00 
       3.067933354524e-02       3.442186542732e+00 
       3.311368469821e-02       3.229231115297e+00 
       3.571840442514e-02       3.013509134313e+00 
       3.847720347390e-02       2.805272966972e+00 
       4.135335537314e-02       2.614400831709e+00 
       4.429361666563e-02       2.448128474202e+00 
       4.724366437916e-02       2.309223524520e+00 
       5.016480834039e-02       2.196098924195e+00 
       5.303989618930e-02       2.104353538927e+00 
       5.586870668205e-02       2.028445695188e+00 
       5.866042679206e-02       1.963138138997e+00 
       6.142798931504e-02       1.903768433079e+00 
       6.418496438662e-02       1.846465287186e+00 
       6.694418832236e-02       1.788176023630e+00 
       6.971731104453e-02       1.726696118582e+00 
       7.251476154108e-02       1.660636726512e+00 
       7.534587669814e-02       1.589449112304e+00 
       7.821907664495e-02       1.513417044312e+00 
       8.114203771084e-02       1.433548507841e+00 
       8.412184533139e-02       1.351470326374e+00 
       8.716512277352e-02       1.269251972753e+00 
       9.027813693913e-02       1.189170464457e+00 
       9.346688429613e-02       1.113479553884e+00 
       9.673716026122e-02       1.044152954589e+00 
       1.000946150608e-01       9.826795243545e-01 
       1.035447986307e-01       9.299152789478e-01 
       1.070931966524e-01       8.859378947436e-01 
       1.107452594180e-01       8.500447149584e-01 
       1.145064248899e-01       8.207780394272e-01 
       1.183821370656e-01       7.960000907495e-01 
       1.223778605591e-01       7.731193442399e-01 
       1.264990921707e-01       7.494246921255e-01 
       1.307513701078e-01       7.225297543467e-01 
       1.351402814485e-01       6.908805521740e-01 
       1.396714683894e-01       6.541529236671e-01 
       1.443506337875e-01       6.133977596819e-01 
       1.491835464900e-01       5.708401156700e-01 
       1.541760469368e-01       5.293367001132e-01 
       1.593340535209e-01       4.916828244772e-01 
       1.646635701934e-01       4.598910267040e-01 
       1.701706958081e-01       4.347000308892e-01 
       1.758616357070e-01       4.153789090382e-01 
       1.817427160581e-01       3.999077806121e-01 
       1.878204014651e-01       3.856535351286e-01 
       1.941013163855e-01       3.697798651605e-01 
       2.005922709060e-01       3.505157073227e-01 
       2.073002914514e-01       3.280128421404e-01 
       2.142326570343e-01       3.041838571772e-01 
       2.213969417044e-01       2.815821533827e-01 
       2.288010639201e-01       2.622274003124e-01 
       2.364533436625e-01       2.469320046744e-01 
       2.443625682390e-01       2.349834008143e-01 
       2.525380678946e-01       2.243877131733e-01 
       2.609898025770e-01       2.130639930450e-01 
       2.697284614969e-01       2.000717162301e-01 
       2.787655775073e-01       1.859902229983e-01 
       2.881136588192e-01       1.724881271069e-01 
       2.977863412019e-01       1.610373179921e-01 
       3.077985646248e-01       1.517322942846e-01 
       3.181667793367e-01       1.435308969654e-01 
       3.289091877084e-01       1.351531738249e-01 
       3.400460298905e-01       1.261361118790e-01 
       3.515999235695e-01       1.171740487245e-01 
       3.635962710278e-01       1.091494839685e-01 
       3.760637505499e-01       1.022820309086e-01 
       3.890349143014e-01       9.591064892056e-02 
       4.025469215929e-01       8.948094716889e-02 
       4.166424455447e-01       8.308507431591e-02 
       4.313708034899e-01       7.718924691190e-02 
       4.467893781976e-01       7.187492616327e-02 
       4.629654198623e-01       6.684356087546e-02 
       4.799783500912e-01       6.189239587094e-02 
       4.979227318246e-01       5.719760961472e-02 
       5.169121269689e-01       5.287858143558e-02 
       5.370841403262e-01       4.874576339019e-02 
       5.586070463286e-01       4.476736927173e-02 
       5.816885093582e-01       4.102877153545e-02 
       6.065870143577e-01       3.746728163490e-02 
       6.336266466978e-01       3.405419322213e-02 
       6.632156057925e-01       3.081303035199e-02 
       6.958678637575e-01       2.770742657357e-02 
       7.322247983784e-01       2.474660370384e-02 
       7.730680193171e-01       2.191975878903e-02 
       8.193049551574e-01       1.923694973707e-02 
       8.718988013754e-01       1.671081442835e-02 
       9.317218028590e-01       1.436660066780e-02 
       9.993660906273e-01       1.223375423063e-02 
       1.075037109879e+00       1.033652846537e-02 
       1.158653485387e+00       8.684433312832e-03 
       1.250099156961e+00       7.270122446406e-03 
       1.349432400897e+00       6.071806266288e-03 
       1.456947456991e+00       5.062787389242e-03 
       1.573135110893e+00       4.216148374304e-03 
       1.698621895119e+00       3.507104844920e-03 
       1.834127512423e+00       2.914204538644e-03 
       1.980444933977e+00       2.419028670035e-03 
       2.138435191130e+00       2.006013517396e-03 
       2.309029198543e+00       1.661868188608e-03 
       2.493232376993e+00       1.375465590775e-03 
       2.692130394536e+00       1.137339492914e-03 
       2.906895533764e+00       9.395813136505e-04 
       3.138793596840e+00       7.754979908134e-04 
       3.389191365541e+00       6.394942735231e-04 
       3.659564656886e+00       5.268697286525e-04 
       3.951507021438e+00       4.336968500004e-04 
       4.266739135513e+00       3.566828838314e-04 
       4.607118942658e+00       2.930868613214e-04 
       4.974652604172e+00       2.406099822495e-04 
       5.371506323193e+00       1.973519081569e-04 
       5.800019112071e+00       1.617216856029e-04 
       6.262716578240e+00       1.323996270771e-04 
       6.762325809881e+00       1.082878717766e-04 
       7.301791449077e+00       8.847814083470e-05 
       7.884293047211e+00       7.221696968291e-05 
       8.513263804891e+00       5.888058868501e-05 
       9.192410806865e+00       4.795137058463e-05 
       9.925736871166e+00       3.900378364300e-05 
       1.071756414128e+01       3.168436329466e-05 
       1.157255956041e+01       2.570302154561e-05 
       1.249576237789e+01       2.081972324071e-05 
       1.349261385000e+01       1.683699597407e-05 
       1.456898931011e+01       1.359234518223e-05 
       1.573123279727e+01       1.095207367651e-05 
       1.698619444729e+01       8.806275549737e-06 
       1.834127086665e+01       7.064723523924e-06 
       1.980444872733e+01       5.653192098795e-06 
       2.138435183937e+01       4.511054040284e-06 
       2.309029197863e+01       3.588512968436e-06 
       2.493232376942e+01       2.844779804838e-06 
       2.692130394533e+01       2.246529237765e-06 
       2.906895533764e+01       1.766433304286e-06 
       3.138793596840e+01       1.382257731578e-06 
       3.389191365541e+01       1.075776105630e-06 
       3.659564656886e+01       8.321579285259e-07 
       3.951507021438e+01       6.392656179794e-07 
       4.266739135513e+01       4.872751794780e-07 
       4.607118942658e+01       3.681316374417e-07 
       4.974652604172e+01       2.753215141113e-07 
       5.371506323193e+01       2.035300869398e-07 
       5.800019112071e+01       1.484667411734e-07 
       6.262716578240e+01       1.066361339095e-07 
       6.762325809881e+01       7.522234229711e-08 
