# Matter power spectrum P(k) at redshift z=0
# for k=1.04775e-05 to 66.1767 h/Mpc,
# number of wavenumbers equal to 130
#    1:k (h/Mpc)              2:P (Mpc/h)^3        
       1.047750691046e-05       5.020964811314e+01 
       1.319039970183e-05       6.270562594802e+01 
       1.660572937635e-05       7.831147247912e+01 
       2.090537469327e-05       9.780108069320e+01 
       2.631830744443e-05       1.221408203809e+02 
       3.313278603720e-05       1.525374501932e+02 
       4.171170630578e-05       1.904975994009e+02 
       5.251192703764e-05       2.379022224247e+02 
       6.610859936996e-05       2.970989227883e+02 
       8.322579568497e-05       3.710167318946e+02 
       1.047750691046e-04       4.633080766742e+02 
       1.319039970183e-04       5.785234129341e+02 
       1.660572937635e-04       7.223242666092e+02 
       2.090537469327e-04       9.017396271824e+02 
       2.631830744443e-04       1.125468123750e+03 
       3.313278603720e-04       1.404223053681e+03 
       4.171170630578e-04       1.751108028791e+03 
       5.251192703764e-04       2.181998448133e+03 
       6.610859936996e-04       2.715889983593e+03 
       8.322579568497e-04       3.375152337134e+03 
       1.047750691046e-03       4.185552174307e+03 
       1.319039970183e-03       5.175742740672e+03 
       1.660572937635e-03       6.376123051767e+03 
       2.090537469327e-03       7.815671904421e+03 
       2.631830744443e-03       9.517783069029e+03 
       3.313278603720e-03       1.149357460321e+04 
       4.171170630578e-03       1.373266013706e+04 
       5.251192703764e-03       1.619063614344e+04 
       6.610859936996e-03       1.877460417321e+04 
       8.322579568497e-03       2.132607231318e+04 
       1.047750691046e-02       2.360548443500e+04 
       1.319039970183e-02       2.528218800181e+04 
       1.660572937633e-02       2.595026771935e+04 
       2.090537453514e-02       2.520936880194e+04 
       2.631818545635e-02       2.287032979815e+04 
       3.311571692125e-02       1.928623699323e+04 
       4.113809243311e-02       1.568430398397e+04 
       4.792590854610e-02       1.361069896174e+04 
       5.284436902701e-02       1.259129287112e+04 
       5.689644391095e-02       1.195554577249e+04 
       6.051252627066e-02       1.147545488666e+04 
       6.388413457411e-02       1.105589728318e+04 
       6.711249296401e-02       1.064898413212e+04 
       7.025823437965e-02       1.022929217942e+04 
       7.336115587705e-02       9.784500514553e+03 
       7.644928796912e-02       9.311633122123e+03 
       7.954353299775e-02       8.814522580541e+03 
       8.266024078725e-02       8.302141140231e+03 
       8.581273398637e-02       7.786938861107e+03 
       8.901225918437e-02       7.283170911476e+03 
       9.226860540985e-02       6.805164731737e+03 
       9.559052048996e-02       6.365688640549e+03 
       9.898599946599e-02       5.974395948189e+03 
       1.024624891378e-01       5.637320697782e+03 
       1.060270359164e-01       5.355790980750e+03 
       1.096863943056e-01       5.126241822465e+03 
       1.134471073830e-01       4.940471360865e+03 
       1.173155669539e-01       4.786169612394e+03 
       1.212980586983e-01       4.647933851625e+03 
       1.254007961065e-01       4.509133424311e+03 
       1.296299459934e-01       4.354535902515e+03 
       1.339916477160e-01       4.173220642064e+03 
       1.384920277736e-01       3.961172080707e+03 
       1.431372111762e-01       3.722656006667e+03 
       1.479333307714e-01       3.469561594684e+03 
       1.528865355934e-01       3.218337677320e+03 
       1.580029992204e-01       2.986276930622e+03 
       1.632889290723e-01       2.786959116881e+03 
       1.687505775527e-01       2.626823271383e+03 
       1.743942559171e-01       2.503765818623e+03 
       1.802263517371e-01       2.407322543670e+03 
       1.862533508214e-01       2.322251196262e+03 
       1.924818644494e-01       2.231552909059e+03 
       1.989186627765e-01       2.122190135278e+03 
       2.055707152847e-01       1.992026880847e+03 
       2.124452391818e-01       1.850321064612e+03 
       2.195497567139e-01       1.712167181810e+03 
       2.268921624510e-01       1.590976026750e+03 
       2.344808017550e-01       1.493665317584e+03 
       2.423245618548e-01       1.418301018989e+03 
       2.504329772620e-01       1.354463114764e+03 
       2.588163516754e-01       1.288924425346e+03 
       2.674858990930e-01       1.213925968165e+03 
       2.764539076010e-01       1.130689663597e+03 
       2.857339303080e-01       1.048091932560e+03 
       2.953410092148e-01       9.761801252784e+02 
       3.052919395542e-01       9.178045430170e+02 
       3.156055844677e-01       8.678915440082e+02 
       3.263032530092e-01       8.185197804463e+02 
       3.374091587054e-01       7.651415886039e+02 
       3.489509817175e-01       7.106681503853e+02 
       3.609605657343e-01       6.607793078403e+02 
       3.734747921333e-01       6.180798187378e+02 
       3.865366902904e-01       5.793056466756e+02 
       4.001968667448e-01       5.403869193483e+02 
       4.145153713076e-01       5.011462147433e+02 
       4.295641718077e-01       4.644933134701e+02 
       4.454304922144e-01       4.314041170666e+02 
       4.622214006969e-01       4.001074668575e+02 
       4.800702491654e-01       3.690853840589e+02 
       4.991459272112e-01       3.394704532091e+02 
       5.196665217302e-01       3.119822980817e+02 
       5.419201087032e-01       2.852436529100e+02 
       5.662975451962e-01       2.593272099683e+02 
       5.933463737275e-01       2.345439150947e+02 
       6.238638458458e-01       2.102265912125e+02 
       6.590669257916e-01       1.864297980469e+02 
       7.009246080454e-01       1.627212432074e+02 
       7.528593308799e-01       1.388145062312e+02 
       8.213469537518e-01       1.141848097686e+02 
       9.196980813302e-01       8.835591370090e+01 
       1.075112183810e+00       6.172321141825e+01 
       1.322697471132e+00       3.804015342977e+01 
       1.662328205042e+00       2.209581652008e+01 
       2.092692408506e+00       1.266736517024e+01 
       2.634543445090e+00       7.201839358052e+00 
       3.316693691389e+00       4.063916773877e+00 
       4.175469971226e+00       2.277602787475e+00 
       5.256605252960e+00       1.268536733926e+00 
       6.617673932723e+00       7.024694624016e-01 
       8.331157880872e+00       3.869410790137e-01 
       1.048830636590e+01       2.120803647671e-01 
       1.320399541071e+01       1.156900326687e-01 
       1.662284535976e+01       6.282065941391e-02 
       2.092692243973e+01       3.395536210967e-02 
       2.634543445002e+01       1.826560822605e-02 
       3.316693691389e+01       9.773902583003e-03 
       4.175469971226e+01       5.197705748246e-03 
       5.256605252960e+01       2.742678560261e-03 
       6.617673932723e+01       1.432346953930e-03 
