# Matter power spectrum P(k) at redshift z=0
# for k=1.04775e-05 to 67.6233 h/Mpc,
# number of wavenumbers equal to 246
#    1:k (h/Mpc)              2:P (Mpc/h)^3        
       1.047750691046e-05       5.020964811310e+01 
       1.131335172503e-05       5.407050701926e+01 
       1.221587619537e-05       5.822819068785e+01 
       1.319039970183e-05       6.270562594820e+01 
       1.424266597921e-05       6.752732240880e+01 
       1.537887696968e-05       7.271977206173e+01 
       1.660572937635e-05       7.831147247912e+01 
       1.793045413292e-05       8.433311821988e+01 
       1.936085902198e-05       9.081778249833e+01 
       2.090537469327e-05       9.780108069336e+01 
       2.257310435294e-05       1.053213197893e+02 
       2.437387741694e-05       1.134197377890e+02 
       2.631830744443e-05       1.221408203809e+02 
       2.841785469300e-05       1.315324642484e+02 
       3.068489366414e-05       1.416462094877e+02 
       3.313278603720e-05       1.525374501932e+02 
       3.577595942169e-05       1.642660688414e+02 
       3.862999239199e-05       1.768963506307e+02 
       4.171170630578e-05       1.904975994011e+02 
       4.503926444729e-05       2.051444491974e+02 
       4.863227907969e-05       2.209171465549e+02 
       5.251192703764e-05       2.379022224246e+02 
       5.670107454120e-05       2.561927927721e+02 
       6.122441196689e-05       2.758890444039e+02 
       6.610859936996e-05       2.970989227883e+02 
       7.138242361596e-05       3.199385560802e+02 
       7.707696804727e-05       3.445329783680e+02 
       8.322579568497e-05       3.710167318946e+02 
       8.986514704559e-05       3.995346444203e+02 
       9.703415373875e-05       4.302425407382e+02 
       1.047750691046e-04       4.633080766742e+02 
       1.131335172503e-04       4.989116271564e+02 
       1.221587619537e-04       5.372471950929e+02 
       1.319039970183e-04       5.785234129336e+02 
       1.424266597921e-04       6.229645936045e+02 
       1.537887696968e-04       6.708118490405e+02 
       1.660572937635e-04       7.223242666092e+02 
       1.793045413292e-04       7.777801558972e+02 
       1.936085902198e-04       8.374783614140e+02 
       2.090537469327e-04       9.017396271824e+02 
       2.257310435294e-04       9.709080268041e+02 
       2.437387741694e-04       1.045352449493e+03 
       2.631830744443e-04       1.125468123750e+03 
       2.841785469300e-04       1.211678180494e+03 
       3.068489366414e-04       1.304435250150e+03 
       3.313278603720e-04       1.404223053681e+03 
       3.577595942169e-04       1.511558014616e+03 
       3.862999239199e-04       1.626990837757e+03 
       4.171170630578e-04       1.751108028790e+03 
       4.503926444729e-04       1.884533382872e+03 
       4.863227907969e-04       2.027929378112e+03 
       5.251192703764e-04       2.181998448133e+03 
       5.670107454121e-04       2.347484102754e+03 
       6.122441196689e-04       2.525171871365e+03 
       6.610859936996e-04       2.715889983592e+03 
       7.138242361596e-04       2.920509688381e+03 
       7.707696804727e-04       3.139945100278e+03 
       8.322579568497e-04       3.375152337586e+03 
       8.986514704559e-04       3.627127831140e+03 
       9.703415373875e-04       3.896905453134e+03 
       1.047750691046e-03       4.185552174308e+03 
       1.131335172503e-03       4.494162430370e+03 
       1.221587619537e-03       4.823850706490e+03 
       1.319039970183e-03       5.175742739230e+03 
       1.424266597921e-03       5.551019596892e+03 
       1.537887696968e-03       5.950788340542e+03 
       1.660572937635e-03       6.376123051720e+03 
       1.793045413292e-03       6.828073901425e+03 
       1.936085902198e-03       7.307625381029e+03 
       2.090537469327e-03       7.815671904247e+03 
       2.257310435294e-03       8.352990375732e+03 
       2.437387741694e-03       8.920211064254e+03 
       2.631830744443e-03       9.517783068964e+03 
       2.841785469300e-03       1.014593704415e+04 
       3.068489366414e-03       1.080464502769e+04 
       3.313278603720e-03       1.149357460300e+04 
       3.577595942169e-03       1.221203621665e+04 
       3.862999239199e-03       1.295892539367e+04 
       4.171170630578e-03       1.373266008504e+04 
       4.503926444729e-03       1.453111835475e+04 
       4.863227907969e-03       1.535154984863e+04 
       5.251192703764e-03       1.619063612875e+04 
       5.670107454120e-03       1.704431257289e+04 
       6.122441196689e-03       1.790755939956e+04 
       6.610859936996e-03       1.877460424004e+04 
       7.138242361596e-03       1.963872432110e+04 
       7.707696804727e-03       2.049215713580e+04 
       8.322579568496e-03       2.132607241239e+04 
       8.986514704559e-03       2.213055070750e+04 
       9.703415373875e-03       2.289445479776e+04 
       1.047750691046e-02       2.360548247772e+04 
       1.131335172503e-02       2.425022695062e+04 
       1.221587619537e-02       2.481423918962e+04 
       1.319039970183e-02       2.528218730704e+04 
       1.424266597920e-02       2.563813537670e+04 
       1.537887696964e-02       2.586609097720e+04 
       1.660572937560e-02       2.595028389235e+04 
       1.793045412207e-02       2.587635463271e+04 
       1.936085889642e-02       2.563219775958e+04 
       2.090537351881e-02       2.520937899496e+04 
       2.257309534705e-02       2.460446426536e+04 
       2.437382002240e-02       2.382089678651e+04 
       2.631799943729e-02       2.287045755414e+04 
       2.841644544598e-02       2.177446959046e+04 
       3.067933354524e-02       2.056558918596e+04 
       3.311368469821e-02       1.928728557450e+04 
       3.571840442514e-02       1.799398861930e+04 
       3.847720347390e-02       1.674685975418e+04 
       4.135335537314e-02       1.560459405820e+04 
       4.429361666563e-02       1.461042789113e+04 
       4.724366437916e-02       1.378050968893e+04 
       5.016480834039e-02       1.310502143638e+04 
       5.303989618930e-02       1.255716571245e+04 
       5.586870668205e-02       1.210425242693e+04 
       5.866042679206e-02       1.171464365064e+04 
       6.142798931504e-02       1.136052780755e+04 
       6.418496438662e-02       1.101854384806e+04 
       6.694418832236e-02       1.067066803274e+04 
       6.971731104453e-02       1.030356482972e+04 
       7.251476154108e-02       9.909035732575e+03 
       7.534587669814e-02       9.483729121506e+03 
       7.821907664495e-02       9.029511606159e+03 
       8.114203771084e-02       8.552282144236e+03 
       8.412184533139e-02       8.061966290409e+03 
       8.716512277352e-02       7.570754658990e+03 
       9.027813693913e-02       7.092479501141e+03 
       9.346688429613e-02       6.640502769880e+03 
       9.673716026122e-02       6.226691445315e+03 
       1.000946150608e-01       5.859926169901e+03 
       1.035447986307e-01       5.545210281006e+03 
       1.070931966524e-01       5.283170327496e+03 
       1.107452594180e-01       5.069406689384e+03 
       1.145064248899e-01       4.895234696496e+03 
       1.183821370656e-01       4.747846986461e+03 
       1.223778605591e-01       4.611735800098e+03 
       1.264990921707e-01       4.470608472644e+03 
       1.307513701078e-01       4.310258573794e+03 
       1.351402814485e-01       4.121366516540e+03 
       1.396714683894e-01       3.902054392396e+03 
       1.443506337875e-01       3.658662914077e+03 
       1.491835464900e-01       3.404479902443e+03 
       1.541760469368e-01       3.156664328550e+03 
       1.593340535209e-01       2.931948933807e+03 
       1.646635701934e-01       2.742362917242e+03 
       1.701706958081e-01       2.592241532000e+03 
       1.758616357070e-01       2.477230142700e+03 
       1.817427160581e-01       2.385176921955e+03 
       1.878204014651e-01       2.300350067819e+03 
       1.941013163855e-01       2.205747420331e+03 
       2.005922709060e-01       2.090809707802e+03 
       2.073002914514e-01       1.956460622786e+03 
       2.142326570343e-01       1.814180077270e+03 
       2.213969417044e-01       1.679272889992e+03 
       2.288010639201e-01       1.563833327656e+03 
       2.364533436625e-01       1.472672214244e+03 
       2.443625682390e-01       1.401513053848e+03 
       2.525380678946e-01       1.338402837974e+03 
       2.609898025770e-01       1.270891079576e+03 
       2.697284614969e-01       1.193372900963e+03 
       2.787655775073e-01       1.109330352711e+03 
       2.881136588192e-01       1.028759140451e+03 
       2.977863412019e-01       9.604712089667e+02 
       3.077985646248e-01       9.050131471516e+02 
       3.181667793367e-01       8.561365673416e+02 
       3.289091877084e-01       8.061784600581e+02 
       3.400460298905e-01       7.523799271776e+02 
       3.515999235695e-01       6.989149165093e+02 
       3.635962710278e-01       6.510543847683e+02 
       3.760637505499e-01       6.101117602032e+02 
       3.890349143014e-01       5.721221507820e+02 
       4.025469215929e-01       5.337719166522e+02 
       4.166424455447e-01       4.956244719992e+02 
       4.313708034899e-01       4.604610346141e+02 
       4.467893781976e-01       4.287674493992e+02 
       4.629654198623e-01       3.987632694889e+02 
       4.799783500912e-01       3.692322831780e+02 
       4.979227318246e-01       3.412319111903e+02 
       5.169121269689e-01       3.154768424638e+02 
       5.370841403262e-01       2.908267702350e+02 
       5.586070463286e-01       2.670974615169e+02 
       5.816885093582e-01       2.448013934912e+02 
       6.065870143577e-01       2.235589809757e+02 
       6.336266466978e-01       2.032025501200e+02 
       6.632156057925e-01       1.838709767532e+02 
       6.958678637575e-01       1.653470134944e+02 
       7.322247983784e-01       1.476877178368e+02 
       7.730680193171e-01       1.308257170243e+02 
       8.193049551574e-01       1.148236154158e+02 
       8.718988013754e-01       9.975535885236e+01 
       9.317218028590e-01       8.577058657147e+01 
       9.993660906273e-01       7.304761268584e+01 
       1.075037109879e+00       6.172918332496e+01 
       1.158653485387e+00       5.187267032510e+01 
       1.250099156961e+00       4.343403599755e+01 
       1.349432400897e+00       3.628324075408e+01 
       1.456947456991e+00       3.026201750278e+01 
       1.573135110893e+00       2.520870266535e+01 
       1.698621895119e+00       2.097635663918e+01 
       1.834127512423e+00       1.743698918842e+01 
       1.980444933977e+00       1.448044663606e+01 
       2.138435191130e+00       1.201389625924e+01 
       2.309029198543e+00       9.958337917683e+00 
       2.493232376993e+00       8.247192358817e+00 
       2.692130394536e+00       6.824178982351e+00 
       2.906895533764e+00       5.641986089379e+00 
       3.138793596840e+00       4.660808200011e+00 
       3.389191365541e+00       3.847176414873e+00 
       3.659564656886e+00       3.173186157473e+00 
       3.951507021438e+00       2.615278758985e+00 
       4.266739135513e+00       2.153895147165e+00 
       4.607118942658e+00       1.772619343337e+00 
       4.974652604172e+00       1.457826961949e+00 
       5.371506323193e+00       1.198108296332e+00 
       5.800019112071e+00       9.839829806181e-01 
       6.262716578240e+00       8.075793969061e-01 
       6.762325809881e+00       6.623632693869e-01 
       7.301791449077e+00       5.429000187213e-01 
       7.884293047211e+00       4.446871969738e-01 
       8.513263804891e+00       3.639938875687e-01 
       9.192410806865e+00       2.977438628094e-01 
       9.925736871166e+00       2.433840684520e-01 
       1.071756414128e+01       1.988119516300e-01 
       1.157255956041e+01       1.622812196742e-01 
       1.249576237789e+01       1.323671849818e-01 
       1.349261385000e+01       1.078799713241e-01 
       1.456898931011e+01       8.785122426563e-02 
       1.573123279727e+01       7.147755919271e-02 
       1.698619444729e+01       5.810052516482e-02 
       1.834127086665e+01       4.717861048276e-02 
       1.980444872733e+01       3.826743580656e-02 
       2.138435183937e+01       3.100123380431e-02 
       2.309029197863e+01       2.508111340801e-02 
       2.493232376942e+01       2.026111226973e-02 
       2.692130394533e+01       1.633997188346e-02 
       2.906895533764e+01       1.315295578395e-02 
       3.138793596840e+01       1.056505333257e-02 
       3.389191365541e+01       8.465901623751e-03 
       3.659564656886e+01       6.765151233606e-03 
       3.951507021438e+01       5.389212718133e-03 
       4.266739135513e+01       4.277775540405e-03 
       4.607118942658e+01       3.381607409834e-03 
       4.974652604172e+01       2.660529398929e-03 
       5.371506323193e+01       2.081789155236e-03 
       5.800019112071e+01       1.618655065894e-03 
       6.262716578240e+01       1.249365108368e-03 
       6.762325809881e+01       9.561218460259e-04 
