# Matter power spectrum P(k) at redshift z=0
# for k=1.04775e-05 to 66.1767 h/Mpc,
# number of wavenumbers equal to 130
#    1:k (h/Mpc)              2:P (Mpc/h)^3        
       1.047750691046e-05       5.020963918004e+01 
       1.319039970183e-05       6.270561467349e+01 
       1.660572937635e-05       7.831147247918e+01 
       2.090537469327e-05       9.780106755497e+01 
       2.631830744443e-05       1.221408203821e+02 
       3.313278603720e-05       1.525374501935e+02 
       4.171170630578e-05       1.904975994087e+02 
       5.251192703764e-05       2.379022224025e+02 
       6.610859936996e-05       2.970989227910e+02 
       8.322579568497e-05       3.710167318956e+02 
       1.047750691046e-04       4.633080766744e+02 
       1.319039970183e-04       5.785234139855e+02 
       1.660572937635e-04       7.223242666090e+02 
       2.090537469327e-04       9.017396271822e+02 
       2.631830744443e-04       1.125468123770e+03 
       3.313278603720e-04       1.404223053680e+03 
       4.171170630578e-04       1.751108028772e+03 
       5.251192703764e-04       2.181998448125e+03 
       6.610859936996e-04       2.715889983583e+03 
       8.322579568497e-04       3.375152337066e+03 
       1.047750691046e-03       4.185552174115e+03 
       1.319039970183e-03       5.175742739764e+03 
       1.660572937635e-03       6.376123050098e+03 
       2.090537469327e-03       7.815671858220e+03 
       2.631830744443e-03       9.517783054138e+03 
       3.313278603720e-03       1.149357456095e+04 
       4.171170630578e-03       1.373266004542e+04 
       5.251192703764e-03       1.619063546599e+04 
       6.610859936996e-03       1.877460355679e+04 
       8.322579568497e-03       2.132610743125e+04 
       1.047750691046e-02       2.360548416458e+04 
       1.319039970183e-02       2.528217861222e+04 
       1.660572937633e-02       2.595023918516e+04 
       2.090537453514e-02       2.520929374307e+04 
       2.631818545635e-02       2.287028206881e+04 
       3.311571692125e-02       1.928605142760e+04 
       4.113809243311e-02       1.568395073240e+04 
       4.792590854610e-02       1.361016910405e+04 
       5.284436902701e-02       1.259077164629e+04 
       5.689644391095e-02       1.195497229091e+04 
       6.051252627066e-02       1.147480695894e+04 
       6.388413457411e-02       1.105515322235e+04 
       6.711249296401e-02       1.064822725833e+04 
       7.025823437965e-02       1.022848309649e+04 
       7.336115587705e-02       9.783634925198e+03 
       7.644928796912e-02       9.310735913802e+03 
       7.954353299775e-02       8.813592870473e+03 
       8.266024078725e-02       8.301159266852e+03 
       8.581273398637e-02       7.785936514024e+03 
       8.901225918437e-02       7.282163467560e+03 
       9.226860540985e-02       6.804102538978e+03 
       9.559052048996e-02       6.364533926447e+03 
       9.898599946599e-02       5.973289375196e+03 
       1.024624891378e-01       5.636154937283e+03 
       1.060270359164e-01       5.354572843388e+03 
       1.096863943056e-01       5.125010039721e+03 
       1.134471073830e-01       4.939183306451e+03 
       1.173155669539e-01       4.784801705562e+03 
       1.212980586983e-01       4.646543439791e+03 
       1.254007961065e-01       4.507700904281e+03 
       1.296299459934e-01       4.353040020963e+03 
       1.339916477160e-01       4.171673986726e+03 
       1.384920277736e-01       3.959606028283e+03 
       1.431372111762e-01       3.721082550665e+03 
       1.479333307714e-01       3.467941105014e+03 
       1.528865355934e-01       3.216726839640e+03 
       1.580029992204e-01       2.984637104232e+03 
       1.632889290723e-01       2.785279246245e+03 
       1.687505775527e-01       2.625125267388e+03 
       1.743942559171e-01       2.502024334537e+03 
       1.802263517371e-01       2.405541286401e+03 
       1.862533508214e-01       2.320402218224e+03 
       1.924818644494e-01       2.229660848840e+03 
       1.989186627765e-01       2.120269506410e+03 
       2.055707152847e-01       1.990083865685e+03 
       2.124452391818e-01       1.848374802019e+03 
       2.195497567139e-01       1.710213426725e+03 
       2.268921624510e-01       1.589015100719e+03 
       2.344808017550e-01       1.491671766585e+03 
       2.423245618548e-01       1.416276145801e+03 
       2.504329772620e-01       1.352399711899e+03 
       2.588163516754e-01       1.286834228394e+03 
       2.674858990930e-01       1.211814615732e+03 
       2.764539076010e-01       1.128563808067e+03 
       2.857339303080e-01       1.045963070281e+03 
       2.953410092148e-01       9.740380968119e+02 
       3.052919395542e-01       9.156443812610e+02 
       3.156055844677e-01       8.657054528469e+02 
       3.263032530092e-01       8.163127740727e+02 
       3.374091587054e-01       7.629231668892e+02 
       3.489509817175e-01       7.084448898053e+02 
       3.609605657343e-01       6.585548245138e+02 
       3.734747921333e-01       6.158429446210e+02 
       3.865366902904e-01       5.770515519291e+02 
       4.001968667448e-01       5.381256381021e+02 
       4.145153713076e-01       4.988812473148e+02 
       4.295641718077e-01       4.622259835659e+02 
       4.454304922144e-01       4.291280331525e+02 
       4.622214006969e-01       3.978298257216e+02 
       4.800702491654e-01       3.668057930280e+02 
       4.991459272112e-01       3.371941220287e+02 
       5.196665217302e-01       3.097028011360e+02 
       5.419201087032e-01       2.829671844854e+02 
       5.662975451962e-01       2.570576035436e+02 
       5.933463737275e-01       2.322800830512e+02 
       6.238638458458e-01       2.079731309749e+02 
       6.590669257916e-01       1.841889728031e+02 
       7.009246080454e-01       1.604983420551e+02 
       7.528593308799e-01       1.366153428860e+02 
       8.213469537518e-01       1.120192175862e+02 
       9.196980813302e-01       8.624216652485e+01 
       1.075112183810e+00       5.969367622203e+01 
       1.322697471132e+00       3.614327648273e+01 
       1.662328205042e+00       2.036748279502e+01 
       2.092692408506e+00       1.112759342362e+01 
       2.634543445090e+00       5.864213213946e+00 
       3.316693691389e+00       2.936997892151e+00 
       4.175469971226e+00       1.364017008202e+00 
       5.256605252960e+00       5.635161544125e-01 
       6.617673932723e+00       1.917801361001e-01 
       8.331157880872e+00       4.529515962707e-02 
       1.048830636590e+01       4.021615233145e-03 
       1.320399541071e+01       4.221607342712e-04 
       1.662284535976e+01       2.614507523313e-03 
       2.092692243973e+01       2.014872989664e-03 
       2.634543445002e+01       4.995410852869e-04 
       3.316693691389e+01       7.229863536749e-06 
       4.175469971226e+01       1.991356038420e-05 
       5.256605252960e+01       5.723134122931e-06 
       6.617673932723e+01       4.729299730760e-08 
