# Matter power spectrum P(k) at redshift z=99
# for k=1.04775e-05 to 66.1767 h/Mpc,
# number of wavenumbers equal to 130
#    1:k (h/Mpc)              2:P (Mpc/h)^3        
       1.047750691046e-05       7.261927682553e-03 
       1.319039970183e-05       9.069258203970e-03 
       1.660572937635e-05       1.132639106989e-02 
       2.090537469327e-05       1.414527123728e-02 
       2.631830744443e-05       1.766569584470e-02 
       3.313278603720e-05       2.206225516455e-02 
       4.171170630578e-05       2.755297766914e-02 
       5.251192703764e-05       3.441013523754e-02 
       6.610859936996e-05       4.297372173776e-02 
       8.322579568497e-05       5.366826854186e-02 
       1.047750691046e-04       6.702379874329e-02 
       1.319039970183e-04       8.370193443226e-02 
       1.660572937635e-04       1.045283355626e-01 
       2.090537469327e-04       1.305329134404e-01 
       2.631830744443e-04       1.629994506975e-01 
       3.313278603720e-04       2.035264005062e-01 
       4.171170630578e-04       2.541004744808e-01 
       5.251192703764e-04       3.171839529244e-01 
       6.610859936996e-04       3.958147257332e-01 
       8.322579568497e-04       4.937136007208e-01 
       1.047750691046e-03       6.153841637064e-01 
       1.319039970183e-03       7.661720593232e-01 
       1.660572937635e-03       9.522588017023e-01 
       2.090537469327e-03       1.180312991596e+00 
       2.631830744443e-03       1.456802684151e+00 
       3.313278603720e-03       1.786503852420e+00 
       4.171170630578e-03       2.169896189955e+00 
       5.251192703764e-03       2.599430619804e+00 
       6.610859936996e-03       3.055668672343e+00 
       8.322579568497e-03       3.505725531951e+00 
       1.047750691046e-02       3.905490966785e+00 
       1.319039970183e-02       4.200914959168e+00 
       1.660572937633e-02       4.325062389910e+00 
       2.090537453514e-02       4.210204636547e+00 
       2.631818545635e-02       3.825148723177e+00 
       3.311571692125e-02       3.229059108763e+00 
       4.113809243311e-02       2.627715522397e+00 
       4.792590854610e-02       2.280784575208e+00 
       5.284436902701e-02       2.110071292072e+00 
       5.689644391095e-02       2.003519191353e+00 
       6.051252627066e-02       1.923037362831e+00 
       6.388413457411e-02       1.852709954871e+00 
       6.711249296401e-02       1.784543846245e+00 
       7.025823437965e-02       1.714249118988e+00 
       7.336115587705e-02       1.639789688091e+00 
       7.644928796912e-02       1.560637056074e+00 
       7.954353299775e-02       1.477428916571e+00 
       8.266024078725e-02       1.391669803342e+00 
       8.581273398637e-02       1.305433856617e+00 
       8.901225918437e-02       1.221098162074e+00 
       9.226860540985e-02       1.141047177302e+00 
       9.559052048996e-02       1.067420963028e+00 
       9.898599946599e-02       1.001857749110e+00 
       1.024624891378e-01       9.453496202023e-01 
       1.060270359164e-01       8.981170930802e-01 
       1.096863943056e-01       8.595791407140e-01 
       1.134471073830e-01       8.283707461322e-01 
       1.173155669539e-01       8.024299110676e-01 
       1.212980586983e-01       7.791900497915e-01 
       1.254007961065e-01       7.558771203687e-01 
       1.296299459934e-01       7.299408361781e-01 
       1.339916477160e-01       6.995507414515e-01 
       1.384920277736e-01       6.640361611957e-01 
       1.431372111762e-01       6.241039953154e-01 
       1.479333307714e-01       5.817201698669e-01 
       1.528865355934e-01       5.396496850339e-01 
       1.580029992204e-01       5.007702419689e-01 
       1.632889290723e-01       4.673523299688e-01 
       1.687505775527e-01       4.404885164566e-01 
       1.743942559171e-01       4.198197803009e-01 
       1.802263517371e-01       4.036117553396e-01 
       1.862533508214e-01       3.893110001993e-01 
       1.924818644494e-01       3.740861774507e-01 
       1.989186627765e-01       3.557509808885e-01 
       2.055707152847e-01       3.339478566833e-01 
       2.124452391818e-01       3.102151679249e-01 
       2.195497567139e-01       2.870725509744e-01 
       2.268921624510e-01       2.667571174827e-01 
       2.344808017550e-01       2.504318309284e-01 
       2.423245618548e-01       2.377815132633e-01 
       2.504329772620e-01       2.270594729981e-01 
       2.588163516754e-01       2.160633213892e-01 
       2.674858990930e-01       2.034920344601e-01 
       2.764539076010e-01       1.895429798226e-01 
       2.857339303080e-01       1.757036175561e-01 
       2.953410092148e-01       1.636458399716e-01 
       3.052919395542e-01       1.538525410519e-01 
       3.156055844677e-01       1.454763903454e-01 
       3.263032530092e-01       1.371949481758e-01 
       3.374091587054e-01       1.282469544278e-01 
       3.489509817175e-01       1.191166727640e-01 
       3.609605657343e-01       1.107523274062e-01 
       3.734747921333e-01       1.035898100122e-01 
       3.865366902904e-01       9.708599687311e-02 
       4.001968667448e-01       9.056007970328e-02 
       4.145153713076e-01       8.398164657194e-02 
       4.295641718077e-01       7.783595299291e-02 
       4.454304922144e-01       7.228613879241e-02 
       4.622214006969e-01       6.703830795179e-02 
       4.800702491654e-01       6.183679415621e-02 
       4.991459272112e-01       5.687114151006e-02 
       5.196665217302e-01       5.226126258113e-02 
       5.419201087032e-01       4.777785158561e-02 
       5.662975451962e-01       4.343239463769e-02 
       5.933463737275e-01       3.927686430913e-02 
       6.238638458458e-01       3.519964331217e-02 
       6.590669257916e-01       3.120937436371e-02 
       7.009246080454e-01       2.723442770663e-02 
       7.528593308799e-01       2.322617311425e-02 
       8.213469537518e-01       1.909680771441e-02 
       9.196980813302e-01       1.476689095544e-02 
       1.075112183810e+00       1.030274417764e-02 
       1.322697471132e+00       6.334216947656e-03 
       1.662328205042e+00       3.663918024029e-03 
       2.092692408506e+00       2.086505554356e-03 
       2.634543445090e+00       1.173702520722e-03 
       3.316693691389e+00       6.512336040442e-04 
       4.175469971226e+00       3.553873413137e-04 
       5.256605252960e+00       1.897921523721e-04 
       6.617673932723e+00       9.838277783544e-05 
       8.331157880872e+00       4.885208113688e-05 
       1.048830636590e+01       2.274555243733e-05 
       1.320399541071e+01       9.582802844479e-06 
       1.662284535976e+01       3.427922707233e-06 
       2.092692243973e+01       9.119421152699e-07 
       2.634543445002e+01       1.219614792089e-07 
       3.316693691389e+01       8.810733492966e-11 
       4.175469971226e+01       2.710862360241e-08 
       5.256605252960e+01       2.955581810182e-08 
       6.617673932723e+01       1.029011487764e-08 
