# Matter power spectrum P(k) at redshift z=0
# for k=1.04775e-05 to 66.1767 h/Mpc,
# number of wavenumbers equal to 130
#    1:k (h/Mpc)              2:P (Mpc/h)^3        
       1.047750691046e-05       5.020964811307e+01 
       1.319039970183e-05       6.270562594779e+01 
       1.660572937635e-05       7.831147247911e+01 
       2.090537469327e-05       9.780108069296e+01 
       2.631830744443e-05       1.221408203809e+02 
       3.313278603720e-05       1.525374501932e+02 
       4.171170630578e-05       1.904975994010e+02 
       5.251192703764e-05       2.379022224249e+02 
       6.610859936996e-05       2.970989227881e+02 
       8.322579568497e-05       3.710167318946e+02 
       1.047750691046e-04       4.633080766742e+02 
       1.319039970183e-04       5.785234129337e+02 
       1.660572937635e-04       7.223242666092e+02 
       2.090537469327e-04       9.017396271824e+02 
       2.631830744443e-04       1.125468123750e+03 
       3.313278603720e-04       1.404223053681e+03 
       4.171170630578e-04       1.751108028790e+03 
       5.251192703764e-04       2.181998448133e+03 
       6.610859936996e-04       2.715889983592e+03 
       8.322579568497e-04       3.375152337135e+03 
       1.047750691046e-03       4.185552174305e+03 
       1.319039970183e-03       5.175742741779e+03 
       1.660572937635e-03       6.376123051778e+03 
       2.090537469327e-03       7.815671865850e+03 
       2.631830744443e-03       9.517783069112e+03 
       3.313278603720e-03       1.149357460343e+04 
       4.171170630578e-03       1.373266011952e+04 
       5.251192703764e-03       1.619063614560e+04 
       6.610859936996e-03       1.877460417284e+04 
       8.322579568497e-03       2.132607231818e+04 
       1.047750691046e-02       2.360548752424e+04 
       1.319039970183e-02       2.528218633683e+04 
       1.660572937633e-02       2.595028806062e+04 
       2.090537453514e-02       2.520937409530e+04 
       2.631818545635e-02       2.287036015451e+04 
       3.311571692125e-02       1.928623197032e+04 
       4.113809243311e-02       1.568427585540e+04 
       4.792590854610e-02       1.361068751847e+04 
       5.284436902701e-02       1.259129452006e+04 
       5.689644391095e-02       1.195554179499e+04 
       6.051252627066e-02       1.147549005583e+04 
       6.388413457411e-02       1.105589231733e+04 
       6.711249296401e-02       1.064900640384e+04 
       7.025823437965e-02       1.022926445187e+04 
       7.336115587705e-02       9.784515154527e+03 
       7.644928796912e-02       9.311661012534e+03 
       7.954353299775e-02       8.814550307804e+03 
       8.266024078725e-02       8.302118888454e+03 
       8.581273398637e-02       7.786944833314e+03 
       8.901225918437e-02       7.283169947130e+03 
       9.226860540985e-02       6.805167127544e+03 
       9.559052048996e-02       6.365652412453e+03 
       9.898599946599e-02       5.974391026904e+03 
       1.024624891378e-01       5.637298455007e+03 
       1.060270359164e-01       5.355750068085e+03 
       1.096863943056e-01       5.126250304146e+03 
       1.134471073830e-01       4.940473976115e+03 
       1.173155669539e-01       4.786169819659e+03 
       1.212980586983e-01       4.647926212505e+03 
       1.254007961065e-01       4.509161593878e+03 
       1.296299459934e-01       4.354549245476e+03 
       1.339916477160e-01       4.173218483095e+03 
       1.384920277736e-01       3.961164752675e+03 
       1.431372111762e-01       3.722686946858e+03 
       1.479333307714e-01       3.469545048986e+03 
       1.528865355934e-01       3.218339227023e+03 
       1.580029992204e-01       2.986292240051e+03 
       1.632889290723e-01       2.786972370902e+03 
       1.687505775527e-01       2.626823217500e+03 
       1.743942559171e-01       2.503756495438e+03 
       1.802263517371e-01       2.407345148427e+03 
       1.862533508214e-01       2.322254544619e+03 
       1.924818644494e-01       2.231552102477e+03 
       1.989186627765e-01       2.122188737375e+03 
       2.055707152847e-01       1.992023426098e+03 
       2.124452391818e-01       1.850326010121e+03 
       2.195497567139e-01       1.712178932108e+03 
       2.268921624510e-01       1.590986235422e+03 
       2.344808017550e-01       1.493669407587e+03 
       2.423245618548e-01       1.418310916034e+03 
       2.504329772620e-01       1.354469623159e+03 
       2.588163516754e-01       1.288935208795e+03 
       2.674858990930e-01       1.213935865784e+03 
       2.764539076010e-01       1.130696630580e+03 
       2.857339303080e-01       1.048102042536e+03 
       2.953410092148e-01       9.761827523468e+02 
       3.052919395542e-01       9.178104211376e+02 
       3.156055844677e-01       8.678966115389e+02 
       3.263032530092e-01       8.185268292234e+02 
       3.374091587054e-01       7.651484000520e+02 
       3.489509817175e-01       7.106705328049e+02 
       3.609605657343e-01       6.607863615189e+02 
       3.734747921333e-01       6.180869613079e+02 
       3.865366902904e-01       5.793100082453e+02 
       4.001968667448e-01       5.403912727736e+02 
       4.145153713076e-01       5.011511264018e+02 
       4.295641718077e-01       4.644987099350e+02 
       4.454304922144e-01       4.314093818964e+02 
       4.622214006969e-01       4.001131154478e+02 
       4.800702491654e-01       3.690895810235e+02 
       4.991459272112e-01       3.394764898172e+02 
       5.196665217302e-01       3.119849429510e+02 
       5.419201087032e-01       2.852472675020e+02 
       5.662975451962e-01       2.593314958835e+02 
       5.933463737275e-01       2.345487498126e+02 
       6.238638458458e-01       2.102303371749e+02 
       6.590669257916e-01       1.864337838650e+02 
       7.009246080454e-01       1.627258057744e+02 
       7.528593308799e-01       1.388185977371e+02 
       8.213469537518e-01       1.141882105908e+02 
       9.196980813302e-01       8.835925985984e+01 
       1.075112183810e+00       6.172625712008e+01 
       1.322697471132e+00       3.804290866766e+01 
       1.662328205042e+00       2.209802652964e+01 
       2.092692408506e+00       1.266922614099e+01 
       2.634543445090e+00       7.203377427672e+00 
       3.316693691389e+00       4.065158087419e+00 
       4.175469971226e+00       2.278629000984e+00 
       5.256605252960e+00       1.269359192566e+00 
       6.617673932723e+00       7.031388171876e-01 
       8.331157880872e+00       3.874807241271e-01 
       1.048830636590e+01       2.125120214689e-01 
       1.320399541071e+01       1.160363209641e-01 
       1.662284535976e+01       6.309953980308e-02 
       2.092692243973e+01       3.417976903590e-02 
       2.634543445002e+01       1.844607343431e-02 
       3.316693691389e+01       9.919165283049e-03 
       4.175469971226e+01       5.314560791360e-03 
       5.256605252960e+01       2.836667815380e-03 
       6.617673932723e+01       1.507672269919e-03 
