# Matter power spectrum P(k) at redshift z=0
# for k=1.04775e-05 to 66.1767 h/Mpc,
# number of wavenumbers equal to 130
#    1:k (h/Mpc)              2:P (Mpc/h)^3        
       1.047750691046e-05       5.020964811306e+01 
       1.319039970183e-05       6.270562594785e+01 
       1.660572937635e-05       7.831147247912e+01 
       2.090537469327e-05       9.780108069295e+01 
       2.631830744443e-05       1.221408203809e+02 
       3.313278603720e-05       1.525374501932e+02 
       4.171170630578e-05       1.904975994010e+02 
       5.251192703764e-05       2.379022224249e+02 
       6.610859936996e-05       2.970989227881e+02 
       8.322579568497e-05       3.710167318946e+02 
       1.047750691046e-04       4.633080766742e+02 
       1.319039970183e-04       5.785234129333e+02 
       1.660572937635e-04       7.223242666092e+02 
       2.090537469327e-04       9.017396271824e+02 
       2.631830744443e-04       1.125468123750e+03 
       3.313278603720e-04       1.404223053681e+03 
       4.171170630578e-04       1.751108028790e+03 
       5.251192703764e-04       2.181998448133e+03 
       6.610859936996e-04       2.715889983593e+03 
       8.322579568497e-04       3.375152337134e+03 
       1.047750691046e-03       4.185552174307e+03 
       1.319039970183e-03       5.175742741922e+03 
       1.660572937635e-03       6.376123051778e+03 
       2.090537469327e-03       7.815671903726e+03 
       2.631830744443e-03       9.517783069112e+03 
       3.313278603720e-03       1.149357460345e+04 
       4.171170630578e-03       1.373266014687e+04 
       5.251192703764e-03       1.619063614560e+04 
       6.610859936996e-03       1.877460423455e+04 
       8.322579568497e-03       2.132606996431e+04 
       1.047750691046e-02       2.360548541148e+04 
       1.319039970183e-02       2.528218873168e+04 
       1.660572937633e-02       2.595027572947e+04 
       2.090537453514e-02       2.520935551851e+04 
       2.631818545635e-02       2.287032512826e+04 
       3.311571692125e-02       1.928625432975e+04 
       4.113809243311e-02       1.568426528388e+04 
       4.792590854610e-02       1.361062172968e+04 
       5.284436902701e-02       1.259128507951e+04 
       5.689644391095e-02       1.195554710038e+04 
       6.051252627066e-02       1.147548312740e+04 
       6.388413457411e-02       1.105590253841e+04 
       6.711249296401e-02       1.064900117072e+04 
       7.025823437965e-02       1.022930023772e+04 
       7.336115587705e-02       9.784520018309e+03 
       7.644928796912e-02       9.311659811944e+03 
       7.954353299775e-02       8.814528287108e+03 
       8.266024078725e-02       8.302109727537e+03 
       8.581273398637e-02       7.786946313836e+03 
       8.901225918437e-02       7.283164121749e+03 
       9.226860540985e-02       6.805157600413e+03 
       9.559052048996e-02       6.365626652359e+03 
       9.898599946599e-02       5.974393710609e+03 
       1.024624891378e-01       5.637324277095e+03 
       1.060270359164e-01       5.355770138293e+03 
       1.096863943056e-01       5.126238817081e+03 
       1.134471073830e-01       4.940492062529e+03 
       1.173155669539e-01       4.786176115450e+03 
       1.212980586983e-01       4.647935937756e+03 
       1.254007961065e-01       4.509156292778e+03 
       1.296299459934e-01       4.354557084900e+03 
       1.339916477160e-01       4.173214902943e+03 
       1.384920277736e-01       3.961164810241e+03 
       1.431372111762e-01       3.722688501991e+03 
       1.479333307714e-01       3.469552475653e+03 
       1.528865355934e-01       3.218343104633e+03 
       1.580029992204e-01       2.986298659639e+03 
       1.632889290723e-01       2.786971973675e+03 
       1.687505775527e-01       2.626824364468e+03 
       1.743942559171e-01       2.503757661786e+03 
       1.802263517371e-01       2.407341747574e+03 
       1.862533508214e-01       2.322255510704e+03 
       1.924818644494e-01       2.231551339522e+03 
       1.989186627765e-01       2.122193180639e+03 
       2.055707152847e-01       1.992032366086e+03 
       2.124452391818e-01       1.850328533031e+03 
       2.195497567139e-01       1.712184743519e+03 
       2.268921624510e-01       1.590990793020e+03 
       2.344808017550e-01       1.493668806004e+03 
       2.423245618548e-01       1.418309759212e+03 
       2.504329772620e-01       1.354467600518e+03 
       2.588163516754e-01       1.288933821631e+03 
       2.674858990930e-01       1.213936842554e+03 
       2.764539076010e-01       1.130691303869e+03 
       2.857339303080e-01       1.048100006410e+03 
       2.953410092148e-01       9.761835851731e+02 
       3.052919395542e-01       9.178124487237e+02 
       3.156055844677e-01       8.678981631630e+02 
       3.263032530092e-01       8.185261765895e+02 
       3.374091587054e-01       7.651476141778e+02 
       3.489509817175e-01       7.106721824180e+02 
       3.609605657343e-01       6.607864685055e+02 
       3.734747921333e-01       6.180865596628e+02 
       3.865366902904e-01       5.793109070518e+02 
       4.001968667448e-01       5.403911503136e+02 
       4.145153713076e-01       5.011513350493e+02 
       4.295641718077e-01       4.644986561066e+02 
       4.454304922144e-01       4.314101114110e+02 
       4.622214006969e-01       4.001138087394e+02 
       4.800702491654e-01       3.690904608598e+02 
       4.991459272112e-01       3.394768042361e+02 
       5.196665217302e-01       3.119865104795e+02 
       5.419201087032e-01       2.852479590853e+02 
       5.662975451962e-01       2.593311934377e+02 
       5.933463737275e-01       2.345482529265e+02 
       6.238638458458e-01       2.102304320037e+02 
       6.590669257916e-01       1.864334290833e+02 
       7.009246080454e-01       1.627249285030e+02 
       7.528593308799e-01       1.388179939350e+02 
       8.213469537518e-01       1.141883140370e+02 
       9.196980813302e-01       8.835936348491e+01 
       1.075112183810e+00       6.172604679870e+01 
       1.322697471132e+00       3.804279497892e+01 
       1.662328205042e+00       2.209807693909e+01 
       2.092692408506e+00       1.266929646178e+01 
       2.634543445090e+00       7.203374300576e+00 
       3.316693691389e+00       4.065157618944e+00 
       4.175469971226e+00       2.278623782121e+00 
       5.256605252960e+00       1.269361714652e+00 
       6.617673932723e+00       7.031385750962e-01 
       8.331157880872e+00       3.874785898627e-01 
       1.048830636590e+01       2.125121066833e-01 
       1.320399541071e+01       1.160350183561e-01 
       1.662284535976e+01       6.309869334680e-02 
       2.092692243973e+01       3.417957769800e-02 
       2.634543445002e+01       1.844593466138e-02 
       3.316693691389e+01       9.919192132885e-03 
       4.175469971226e+01       5.314589192777e-03 
       5.256605252960e+01       2.836695545464e-03 
       6.617673932723e+01       1.507694644896e-03 
