# Matter power spectrum P(k) at redshift z=0
# for k=1.04775e-05 to 66.1767 h/Mpc,
# number of wavenumbers equal to 130
#    1:k (h/Mpc)              2:P (Mpc/h)^3        
       1.047750691046e-05       5.020964811318e+01 
       1.319039970183e-05       6.270562594831e+01 
       1.660572937635e-05       7.831147247912e+01 
       2.090537469327e-05       9.780108069345e+01 
       2.631830744443e-05       1.221408203809e+02 
       3.313278603720e-05       1.525374501932e+02 
       4.171170630578e-05       1.904975994011e+02 
       5.251192703764e-05       2.379022224246e+02 
       6.610859936996e-05       2.970989227882e+02 
       8.322579568497e-05       3.710167318946e+02 
       1.047750691046e-04       4.633080766742e+02 
       1.319039970183e-04       5.785234129340e+02 
       1.660572937635e-04       7.223242666092e+02 
       2.090537469327e-04       9.017396271824e+02 
       2.631830744443e-04       1.125468123750e+03 
       3.313278603720e-04       1.404223053681e+03 
       4.171170630578e-04       1.751108028790e+03 
       5.251192703764e-04       2.181998448133e+03 
       6.610859936996e-04       2.715889983592e+03 
       8.322579568497e-04       3.375152337134e+03 
       1.047750691046e-03       4.185552174306e+03 
       1.319039970183e-03       5.175742740630e+03 
       1.660572937635e-03       6.376123051758e+03 
       2.090537469327e-03       7.815671868357e+03 
       2.631830744443e-03       9.517783068945e+03 
       3.313278603720e-03       1.149357460296e+04 
       4.171170630578e-03       1.373266013076e+04 
       5.251192703764e-03       1.619063614147e+04 
       6.610859936996e-03       1.877460421293e+04 
       8.322579568497e-03       2.132607230494e+04 
       1.047750691046e-02       2.360548153329e+04 
       1.319039970183e-02       2.528218780256e+04 
       1.660572937633e-02       2.595028277183e+04 
       2.090537453514e-02       2.520931895167e+04 
       2.631818545635e-02       2.287034201293e+04 
       3.311571692125e-02       1.928625118221e+04 
       4.113809243311e-02       1.568427727407e+04 
       4.792590854610e-02       1.361060506462e+04 
       5.284436902701e-02       1.259130840309e+04 
       5.689644391095e-02       1.195551322105e+04 
       6.051252627066e-02       1.147544625636e+04 
       6.388413457411e-02       1.105587546211e+04 
       6.711249296401e-02       1.064899432423e+04 
       7.025823437965e-02       1.022929364577e+04 
       7.336115587705e-02       9.784512646829e+03 
       7.644928796912e-02       9.311625056615e+03 
       7.954353299775e-02       8.814509957122e+03 
       8.266024078725e-02       8.302142021540e+03 
       8.581273398637e-02       7.786947773248e+03 
       8.901225918437e-02       7.283184121138e+03 
       9.226860540985e-02       6.805148425803e+03 
       9.559052048996e-02       6.365664002942e+03 
       9.898599946599e-02       5.974376558707e+03 
       1.024624891378e-01       5.637316661029e+03 
       1.060270359164e-01       5.355784306308e+03 
       1.096863943056e-01       5.126243468053e+03 
       1.134471073830e-01       4.940464260309e+03 
       1.173155669539e-01       4.786165657432e+03 
       1.212980586983e-01       4.647912670673e+03 
       1.254007961065e-01       4.509138258720e+03 
       1.296299459934e-01       4.354552478775e+03 
       1.339916477160e-01       4.173207153320e+03 
       1.384920277736e-01       3.961158532848e+03 
       1.431372111762e-01       3.722653069231e+03 
       1.479333307714e-01       3.469560866604e+03 
       1.528865355934e-01       3.218328986738e+03 
       1.580029992204e-01       2.986270198919e+03 
       1.632889290723e-01       2.786955445323e+03 
       1.687505775527e-01       2.626806755694e+03 
       1.743942559171e-01       2.503763169812e+03 
       1.802263517371e-01       2.407322743145e+03 
       1.862533508214e-01       2.322244909285e+03 
       1.924818644494e-01       2.231540284061e+03 
       1.989186627765e-01       2.122175373283e+03 
       2.055707152847e-01       1.992021000749e+03 
       2.124452391818e-01       1.850316974883e+03 
       2.195497567139e-01       1.712158505897e+03 
       2.268921624510e-01       1.590974201612e+03 
       2.344808017550e-01       1.493652448638e+03 
       2.423245618548e-01       1.418296391537e+03 
       2.504329772620e-01       1.354454614216e+03 
       2.588163516754e-01       1.288923613972e+03 
       2.674858990930e-01       1.213923068459e+03 
       2.764539076010e-01       1.130682210979e+03 
       2.857339303080e-01       1.048085591763e+03 
       2.953410092148e-01       9.761740719558e+02 
       3.052919395542e-01       9.177998311694e+02 
       3.156055844677e-01       8.678839508657e+02 
       3.263032530092e-01       8.185163319645e+02 
       3.374091587054e-01       7.651358205946e+02 
       3.489509817175e-01       7.106599437655e+02 
       3.609605657343e-01       6.607737212025e+02 
       3.734747921333e-01       6.180748123827e+02 
       3.865366902904e-01       5.793010090011e+02 
       4.001968667448e-01       5.403800223703e+02 
       4.145153713076e-01       5.011423855676e+02 
       4.295641718077e-01       4.644891349229e+02 
       4.454304922144e-01       4.313983849432e+02 
       4.622214006969e-01       4.001035284508e+02 
       4.800702491654e-01       3.690800087741e+02 
       4.991459272112e-01       3.394679880397e+02 
       5.196665217302e-01       3.119762451421e+02 
       5.419201087032e-01       2.852383769880e+02 
       5.662975451962e-01       2.593217851757e+02 
       5.933463737275e-01       2.345393515379e+02 
       6.238638458458e-01       2.102233223021e+02 
       6.590669257916e-01       1.864253150457e+02 
       7.009246080454e-01       1.627171895068e+02 
       7.528593308799e-01       1.388105835293e+02 
       8.213469537518e-01       1.141811670078e+02 
       9.196980813302e-01       8.835260241119e+01 
       1.075112183810e+00       6.172004130938e+01 
       1.322697471132e+00       3.803735671920e+01 
       1.662328205042e+00       2.209355449463e+01 
       2.092692408506e+00       1.266549991063e+01 
       2.634543445090e+00       7.200231724421e+00 
       3.316693691389e+00       4.062603051901e+00 
       4.175469971226e+00       2.276504013150e+00 
       5.256605252960e+00       1.267631168767e+00 
       6.617673932723e+00       7.017436945672e-01 
       8.331157880872e+00       3.863398587817e-01 
       1.048830636590e+01       2.115861526030e-01 
       1.320399541071e+01       1.152872490444e-01 
       1.662284535976e+01       6.249065620392e-02 
       2.092692243973e+01       3.368647038381e-02 
       2.634543445002e+01       1.804609353166e-02 
       3.316693691389e+01       9.595181971617e-03 
       4.175469971226e+01       5.052782480233e-03 
       5.256605252960e+01       2.626196381912e-03 
       6.617673932723e+01       1.339861847366e-03 
