# Matter power spectrum P(k) at redshift z=0
# for k=1.04775e-05 to 66.1767 h/Mpc,
# number of wavenumbers equal to 130
#    1:k (h/Mpc)              2:P (Mpc/h)^3        
       1.047750691046e-05       5.020964185244e+01 
       1.319039970183e-05       6.270563235324e+01 
       1.660572937635e-05       7.831146926237e+01 
       2.090537469327e-05       9.780106771193e+01 
       2.631830744443e-05       1.221408190020e+02 
       3.313278603720e-05       1.525374326134e+02 
       4.171170630578e-05       1.904975924688e+02 
       5.251192703764e-05       2.379022212361e+02 
       6.610859936996e-05       2.970989226969e+02 
       8.322579568497e-05       3.710167329073e+02 
       1.047750691046e-04       4.633080784314e+02 
       1.319039970183e-04       5.785234118363e+02 
       1.660572937635e-04       7.223242650912e+02 
       2.090537469327e-04       9.017396194968e+02 
       2.631830744443e-04       1.125468100039e+03 
       3.313278603720e-04       1.404222980899e+03 
       4.171170630578e-04       1.751107807424e+03 
       5.251192703764e-04       2.181997780277e+03 
       6.610859936996e-04       2.715887975734e+03 
       8.322579568497e-04       3.375146359500e+03 
       1.047750691046e-03       4.185534574592e+03 
       1.319039970183e-03       5.175691607846e+03 
       1.660572937635e-03       6.375973543489e+03 
       2.090537469327e-03       7.815246378639e+03 
       2.631830744443e-03       9.516602766775e+03 
       3.313278603720e-03       1.149038086296e+04 
       4.171170630578e-03       1.372424615015e+04 
       5.251192703764e-03       1.616909734991e+04 
       6.610859936996e-03       1.872117910704e+04 
       8.322579568497e-03       2.119806593225e+04 
       1.047750691046e-02       2.331013519046e+04 
       1.319039970183e-02       2.462949899407e+04 
       1.660572937633e-02       2.457872143702e+04 
       2.090537453514e-02       2.250251858307e+04 
       2.631818545635e-02       1.795896640467e+04 
       3.311571692125e-02       1.137366558105e+04 
       4.113809243311e-02       5.001795528645e+03 
       4.792590854610e-02       1.787528094441e+03 
       5.284436902701e-02       6.087260848931e+02 
       5.689644391095e-02       1.594652420944e+02 
       6.051252627066e-02       1.528263199198e+01 
       6.388413457411e-02       6.187043599032e+00 
       6.711249296401e-02       5.054828420042e+01 
       7.025823437965e-02       1.061180567914e+02 
       7.336115587705e-02       1.515381109280e+02 
       7.644928796912e-02       1.777174419521e+02 
       7.954353299775e-02       1.831351033088e+02 
       8.266024078725e-02       1.707530746674e+02 
       8.581273398637e-02       1.458699316485e+02 
       8.901225918437e-02       1.144762463458e+02 
       9.226860540985e-02       8.210942645691e+01 
       9.559052048996e-02       5.306459022274e+01 
       9.898599946599e-02       3.001484149066e+01 
       1.024624891378e-01       1.399172031162e+01 
       1.060270359164e-01       4.625942020654e+00 
       1.096863943056e-01       5.947601200374e-01 
       1.134471073830e-01       1.273931672303e-01 
       1.173155669539e-01       1.472663131225e+00 
       1.212980586983e-01       3.236972828697e+00 
       1.254007961065e-01       4.548424412523e+00 
       1.296299459934e-01       5.052954752130e+00 
       1.339916477160e-01       4.788253251227e+00 
       1.384920277736e-01       4.006389096012e+00 
       1.431372111762e-01       3.010423346836e+00 
       1.479333307714e-01       2.044613573548e+00 
       1.528865355934e-01       1.251708673964e+00 
       1.580029992204e-01       6.783938918211e-01 
       1.632889290723e-01       3.096011567521e-01 
       1.687505775527e-01       1.032084967813e-01 
       1.743942559171e-01       1.389529280124e-02 
       1.802263517371e-01       2.997208566775e-03 
       1.862533508214e-01       3.901725794352e-02 
       1.924818644494e-01       9.208169215205e-02 
       1.989186627765e-01       1.368045236398e-01 
       2.055707152847e-01       1.573482968252e-01 
       2.124452391818e-01       1.434615505992e-01 
       2.195497567139e-01       1.020592091344e-01 
       2.268921624510e-01       5.559888765233e-02 
       2.344808017550e-01       2.058147302063e-02 
       2.423245618548e-01       2.805441080675e-03 
       2.504329772620e-01       3.920087081196e-04 
       2.588163516754e-01       4.147765811508e-03 
       2.674858990930e-01       7.478149483059e-03 
       2.764539076010e-01       8.033175966764e-03 
       2.857339303080e-01       5.942256495657e-03 
       2.953410092148e-01       3.536284101196e-03 
       3.052919395542e-01       1.408215350839e-03 
       3.156055844677e-01       2.023183334464e-04 
       3.263032530092e-01       1.919752716172e-05 
       3.374091587054e-01       3.733117000346e-04 
       3.489509817175e-01       6.012140160468e-04 
       3.609605657343e-01       5.540235226583e-04 
       3.734747921333e-01       2.792599191697e-04 
       3.865366902904e-01       9.093654684488e-05 
       4.001968667448e-01       8.470130858791e-06 
       4.145153713076e-01       1.689045736595e-07 
       4.295641718077e-01       6.951668831106e-06 
       4.454304922144e-01       4.952901801985e-06 
       4.622214006969e-01       1.441102698043e-06 
       4.800702491654e-01       7.537115098618e-08 
       4.991459272112e-01       3.408099494837e-06 
       5.196665217302e-01       5.281315547906e-06 
       5.419201087032e-01       3.026439462907e-06 
       5.662975451962e-01       7.504820529382e-07 
       5.933463737275e-01       9.717983311209e-08 
       6.238638458458e-01       7.568034202004e-08 
       6.590669257916e-01       1.696983280828e-07 
       7.009246080454e-01       6.589656650292e-07 
       7.528593308799e-01       3.566370373055e-07 
       8.213469537518e-01       1.733057298013e-08 
       9.196980813302e-01       2.422385642748e-08 
       1.075112183810e+00       3.984257671784e-09 
       1.322697471132e+00       3.266573802879e-09 
       1.662328205042e+00       4.063764195590e-11 
       2.092692408506e+00       4.352043449453e-10 
       2.634543445090e+00       9.440570669356e-11 
       3.316693691389e+00       1.887082034712e-11 
       4.175469971226e+00       1.448698344077e-11 
       5.256605252960e+00       4.184972425836e-12 
       6.617673932723e+00       6.650966138361e-13 
       8.331157880872e+00       2.600195184595e-13 
       1.048830636590e+01       4.235259527062e-14 
       1.320399541071e+01       2.438686726909e-14 
       1.662284535976e+01       1.267733006928e-14 
       2.092692243973e+01       3.024967129646e-15 
       2.634543445002e+01       1.668695623006e-15 
       3.316693691389e+01       9.431532518343e-17 
       4.175469971226e+01       2.622002386075e-17 
       5.256605252960e+01       1.096272107536e-16 
       6.617673932723e+01       2.717234501110e-17 
