# Matter power spectrum P(k) at redshift z=0
# for k=1.04775e-05 to 66.1767 h/Mpc,
# number of wavenumbers equal to 130
#    1:k (h/Mpc)              2:P (Mpc/h)^3        
       1.047750691046e-05       5.020964811314e+01 
       1.319039970183e-05       6.270562594793e+01 
       1.660572937635e-05       7.831147247912e+01 
       2.090537469327e-05       9.780108069313e+01 
       2.631830744443e-05       1.221408203809e+02 
       3.313278603720e-05       1.525374501932e+02 
       4.171170630578e-05       1.904975994010e+02 
       5.251192703764e-05       2.379022224248e+02 
       6.610859936996e-05       2.970989227882e+02 
       8.322579568497e-05       3.710167318946e+02 
       1.047750691046e-04       4.633080766742e+02 
       1.319039970183e-04       5.785234129332e+02 
       1.660572937635e-04       7.223242666092e+02 
       2.090537469327e-04       9.017396271824e+02 
       2.631830744443e-04       1.125468123750e+03 
       3.313278603720e-04       1.404223053681e+03 
       4.171170630578e-04       1.751108028790e+03 
       5.251192703764e-04       2.181998448133e+03 
       6.610859936996e-04       2.715889983592e+03 
       8.322579568497e-04       3.375152337134e+03 
       1.047750691046e-03       4.185552174306e+03 
       1.319039970183e-03       5.175742743606e+03 
       1.660572937635e-03       6.376123051773e+03 
       2.090537469327e-03       7.815671865459e+03 
       2.631830744443e-03       9.517783069049e+03 
       3.313278603720e-03       1.149357460327e+04 
       4.171170630578e-03       1.373266009579e+04 
       5.251192703764e-03       1.619063614433e+04 
       6.610859936996e-03       1.877460416791e+04 
       8.322579568497e-03       2.132607230931e+04 
       1.047750691046e-02       2.360548729535e+04 
       1.319039970183e-02       2.528218933047e+04 
       1.660572937633e-02       2.595025163450e+04 
       2.090537453514e-02       2.520937750087e+04 
       2.631818545635e-02       2.287035038170e+04 
       3.311571692125e-02       1.928624690631e+04 
       4.113809243311e-02       1.568430397416e+04 
       4.792590854610e-02       1.361063297312e+04 
       5.284436902701e-02       1.259130190295e+04 
       5.689644391095e-02       1.195554955626e+04 
       6.051252627066e-02       1.147545762850e+04 
       6.388413457411e-02       1.105590790754e+04 
       6.711249296401e-02       1.064899599732e+04 
       7.025823437965e-02       1.022929124508e+04 
       7.336115587705e-02       9.784496010540e+03 
       7.644928796912e-02       9.311617268626e+03 
       7.954353299775e-02       8.814494463649e+03 
       8.266024078725e-02       8.302147680657e+03 
       8.581273398637e-02       7.786944770376e+03 
       8.901225918437e-02       7.283186934540e+03 
       9.226860540985e-02       6.805127437214e+03 
       9.559052048996e-02       6.365614759639e+03 
       9.898599946599e-02       5.974386505411e+03 
       1.024624891378e-01       5.637337846037e+03 
       1.060270359164e-01       5.355778485794e+03 
       1.096863943056e-01       5.126263971605e+03 
       1.134471073830e-01       4.940493201563e+03 
       1.173155669539e-01       4.786177131265e+03 
       1.212980586983e-01       4.647946723342e+03 
       1.254007961065e-01       4.509131186712e+03 
       1.296299459934e-01       4.354539622948e+03 
       1.339916477160e-01       4.173214430092e+03 
       1.384920277736e-01       3.961164558315e+03 
       1.431372111762e-01       3.722686499824e+03 
       1.479333307714e-01       3.469557674951e+03 
       1.528865355934e-01       3.218340797614e+03 
       1.580029992204e-01       2.986284281453e+03 
       1.632889290723e-01       2.786962760340e+03 
       1.687505775527e-01       2.626829267307e+03 
       1.743942559171e-01       2.503770333457e+03 
       1.802263517371e-01       2.407332534659e+03 
       1.862533508214e-01       2.322246711429e+03 
       1.924818644494e-01       2.231547807344e+03 
       1.989186627765e-01       2.122185261155e+03 
       2.055707152847e-01       1.992028339949e+03 
       2.124452391818e-01       1.850325096315e+03 
       2.195497567139e-01       1.712171427885e+03 
       2.268921624510e-01       1.590981528801e+03 
       2.344808017550e-01       1.493664272966e+03 
       2.423245618548e-01       1.418296113146e+03 
       2.504329772620e-01       1.354464475887e+03 
       2.588163516754e-01       1.288932378002e+03 
       2.674858990930e-01       1.213935172364e+03 
       2.764539076010e-01       1.130688183397e+03 
       2.857339303080e-01       1.048096331753e+03 
       2.953410092148e-01       9.761801318599e+02 
       3.052919395542e-01       9.178059288381e+02 
       3.156055844677e-01       8.678956317067e+02 
       3.263032530092e-01       8.185209753973e+02 
       3.374091587054e-01       7.651434471495e+02 
       3.489509817175e-01       7.106707690032e+02 
       3.609605657343e-01       6.607821962608e+02 
       3.734747921333e-01       6.180806129540e+02 
       3.865366902904e-01       5.793082255702e+02 
       4.001968667448e-01       5.403873536529e+02 
       4.145153713076e-01       5.011494770034e+02 
       4.295641718077e-01       4.644947231833e+02 
       4.454304922144e-01       4.314028768074e+02 
       4.622214006969e-01       4.001085722769e+02 
       4.800702491654e-01       3.690865802082e+02 
       4.991459272112e-01       3.394739757604e+02 
       5.196665217302e-01       3.119821797191e+02 
       5.419201087032e-01       2.852446132080e+02 
       5.662975451962e-01       2.593272718409e+02 
       5.933463737275e-01       2.345450513640e+02 
       6.238638458458e-01       2.102276133296e+02 
       6.590669257916e-01       1.864308956444e+02 
       7.009246080454e-01       1.627225822520e+02 
       7.528593308799e-01       1.388161294850e+02 
       8.213469537518e-01       1.141856772743e+02 
       9.196980813302e-01       8.835685302724e+01 
       1.075112183810e+00       6.172423746591e+01 
       1.322697471132e+00       3.804085322366e+01 
       1.662328205042e+00       2.209636073289e+01 
       2.092692408506e+00       1.266783274414e+01 
       2.634543445090e+00       7.202281295082e+00 
       3.316693691389e+00       4.064270863105e+00 
       4.175469971226e+00       2.277900258632e+00 
       5.256605252960e+00       1.268782849024e+00 
       6.617673932723e+00       7.026865250454e-01 
       8.331157880872e+00       3.871207657617e-01 
       1.048830636590e+01       2.122271314191e-01 
       1.320399541071e+01       1.158174267769e-01 
       1.662284535976e+01       6.292982399814e-02 
       2.092692243973e+01       3.404848721241e-02 
       2.634543445002e+01       1.834545095713e-02 
       3.316693691389e+01       9.842277906884e-03 
       4.175469971226e+01       5.256107095882e-03 
       5.256605252960e+01       2.792367687377e-03 
       6.617673932723e+01       1.474295960613e-03 
