# Matter power spectrum P(k) at redshift z=99
# for k=1.04775e-05 to 67.6233 h/Mpc,
# number of wavenumbers equal to 246
#    1:k (h/Mpc)              2:P (Mpc/h)^3        
       1.047750691046e-05       7.261927680940e-03 
       1.131335172503e-05       7.820331652516e-03 
       1.221587619537e-05       8.421675995545e-03 
       1.319039970183e-05       9.069258201947e-03 
       1.424266597921e-05       9.766638412239e-03 
       1.537887696968e-05       1.051764070813e-02 
       1.660572937635e-05       1.132639106738e-02 
       1.793045413292e-05       1.219733232728e-02 
       1.936085902198e-05       1.313524225793e-02 
       2.090537469327e-05       1.414527123414e-02 
       2.257310435294e-05       1.523296273840e-02 
       2.437387741694e-05       1.640429446306e-02 
       2.631830744443e-05       1.766569584077e-02 
       2.841785469300e-05       1.902408737026e-02 
       3.068489366414e-05       2.048692972795e-02 
       3.313278603720e-05       2.206225515966e-02 
       3.577595942169e-05       2.375870707464e-02 
       3.862999239199e-05       2.558560730230e-02 
       4.171170630578e-05       2.755297766306e-02 
       4.503926444729e-05       2.967161930506e-02 
       4.863227907969e-05       3.195316454267e-02 
       5.251192703764e-05       3.441013522985e-02 
       5.670107454120e-05       3.705601726511e-02 
       6.122441196689e-05       3.990533417842e-02 
       6.610859936996e-05       4.297372172824e-02 
       7.138242361596e-05       4.627802146665e-02 
       7.707696804727e-05       4.983636199518e-02 
       8.322579568497e-05       5.366826853002e-02 
       8.986514704559e-05       5.779476400783e-02 
       9.703415373875e-05       6.223848250577e-02 
       1.047750691046e-04       6.702379872847e-02 
       1.131335172503e-04       7.217695161142e-02 
       1.221587619537e-04       7.772619081929e-02 
       1.319039970183e-04       8.370193441376e-02 
       1.424266597921e-04       9.013692517239e-02 
       1.537887696968e-04       9.706641253007e-02 
       1.660572937635e-04       1.045283355395e-01 
       1.793045413292e-04       1.125635350279e-01 
       1.936085902198e-04       1.212159616272e-01 
       2.090537469327e-04       1.305329134118e-01 
       2.257310435294e-04       1.405652847726e-01 
       2.437387741694e-04       1.513678304167e-01 
       2.631830744443e-04       1.629994506623e-01 
       2.841785469300e-04       1.755234923111e-01 
       3.068489366414e-04       1.890080672445e-01 
       3.313278603720e-04       2.035264004623e-01 
       3.577595942169e-04       2.191571806036e-01 
       3.862999239199e-04       2.359849440129e-01 
       4.171170630578e-04       2.541004744269e-01 
       4.503926444729e-04       2.736012083217e-01 
       4.863227907969e-04       2.945916794129e-01 
       5.251192703764e-04       3.171839528589e-01 
       5.670107454121e-04       3.414980767669e-01 
       6.122441196689e-04       3.676625417048e-01 
       6.610859936996e-04       3.958147256551e-01 
       7.138242361596e-04       4.261013289399e-01 
       7.707696804727e-04       4.586787797394e-01 
       8.322579568497e-04       4.937136006342e-01 
       8.986514704559e-04       5.313826807094e-01 
       9.703415373875e-04       5.718734978280e-01 
       1.047750691046e-03       6.153841636089e-01 
       1.131335172503e-03       6.621233246543e-01 
       1.221587619537e-03       7.123098228042e-01 
       1.319039970183e-03       7.661720592891e-01 
       1.424266597921e-03       8.239546306507e-01 
       1.537887696968e-03       8.859011182886e-01 
       1.660572937635e-03       9.522588016444e-01 
       1.793045413292e-03       1.023280100902e+00 
       1.936085902198e-03       1.099216305739e+00 
       2.090537469327e-03       1.180312991695e+00 
       2.257310435294e-03       1.266804117170e+00 
       2.437387741694e-03       1.358904854820e+00 
       2.631830744443e-03       1.456802684661e+00 
       2.841785469300e-03       1.560646892120e+00 
       3.068489366414e-03       1.670536064192e+00 
       3.313278603720e-03       1.786503853963e+00 
       3.577595942169e-03       1.908502932666e+00 
       3.862999239199e-03       2.036387732674e+00 
       4.171170630578e-03       2.169896193373e+00 
       4.503926444729e-03       2.308631881095e+00 
       4.863227907969e-03       2.452047293100e+00 
       5.251192703764e-03       2.599430630234e+00 
       5.670107454120e-03       2.749896933908e+00 
       6.122441196689e-03       2.902386515382e+00 
       6.610859936996e-03       3.055668712551e+00 
       7.138242361596e-03       3.208356463036e+00 
       7.707696804727e-03       3.358923894173e+00 
       8.322579568496e-03       3.505725595543e+00 
       8.986514704559e-03       3.647009253484e+00 
       9.703415373875e-03       3.780923302572e+00 
       1.047750691046e-02       3.905490743537e+00 
       1.131335172503e-02       4.018587302840e+00 
       1.221587619537e-02       4.117901574320e+00 
       1.319039970183e-02       4.200915331078e+00 
       1.424266597920e-02       4.264941240543e+00 
       1.537887696964e-02       4.307221988671e+00 
       1.660572937560e-02       4.325064168578e+00 
       1.793045412207e-02       4.316060115708e+00 
       1.936085889642e-02       4.278228828845e+00 
       2.090537351881e-02       4.210205652873e+00 
       2.257309534705e-02       4.111419874443e+00 
       2.437382002240e-02       3.982422712139e+00 
       2.631799943729e-02       3.825169759195e+00 
       2.841644544598e-02       3.643277139187e+00 
       3.067933354524e-02       3.442202543469e+00 
       3.311368469821e-02       3.229236675980e+00 
       3.571840442514e-02       3.013511346736e+00 
       3.847720347390e-02       2.805287105133e+00 
       4.135335537314e-02       2.614408956563e+00 
       4.429361666563e-02       2.448139750285e+00 
       4.724366437916e-02       2.309231074056e+00 
       5.016480834039e-02       2.196108984102e+00 
       5.303989618930e-02       2.104367637665e+00 
       5.586870668205e-02       2.028463714275e+00 
       5.866042679206e-02       1.963151614873e+00 
       6.142798931504e-02       1.903778136735e+00 
       6.418496438662e-02       1.846477366356e+00 
       6.694418832236e-02       1.788196055800e+00 
       6.971731104453e-02       1.726716638906e+00 
       7.251476154108e-02       1.660655623805e+00 
       7.534587669814e-02       1.589469902370e+00 
       7.821907664495e-02       1.513435157216e+00 
       8.114203771084e-02       1.433564237138e+00 
       8.412184533139e-02       1.351489791836e+00 
       8.716512277352e-02       1.269273259776e+00 
       9.027813693913e-02       1.189193272129e+00 
       9.346688429613e-02       1.113499120612e+00 
       9.673716026122e-02       1.044175288907e+00 
       1.000946150608e-01       9.827048992352e-01 
       1.035447986307e-01       9.299342519586e-01 
       1.070931966524e-01       8.859594834755e-01 
       1.107452594180e-01       8.500676689599e-01 
       1.145064248899e-01       8.208005791487e-01 
       1.183821370656e-01       7.960254042331e-01 
       1.223778605591e-01       7.731434869703e-01 
       1.264990921707e-01       7.494508631495e-01 
       1.307513701078e-01       7.225557148614e-01 
       1.351402814485e-01       6.909063585578e-01 
       1.396714683894e-01       6.541790559216e-01 
       1.443506337875e-01       6.134256405828e-01 
       1.491835464900e-01       5.708650932010e-01 
       1.541760469368e-01       5.293623177600e-01 
       1.593340535209e-01       4.917088455941e-01 
       1.646635701934e-01       4.599174384577e-01 
       1.701706958081e-01       4.347259995009e-01 
       1.758616357070e-01       4.154064027344e-01 
       1.817427160581e-01       3.999358688237e-01 
       1.878204014651e-01       3.856811358626e-01 
       1.941013163855e-01       3.698075695124e-01 
       2.005922709060e-01       3.505450678867e-01 
       2.073002914514e-01       3.280418623652e-01 
       2.142326570343e-01       3.042118130063e-01 
       2.213969417044e-01       2.816099973101e-01 
       2.288010639201e-01       2.622550454259e-01 
       2.364533436625e-01       2.469601071078e-01 
       2.443625682390e-01       2.350115503821e-01 
       2.525380678946e-01       2.244163062842e-01 
       2.609898025770e-01       2.130918757475e-01 
       2.697284614969e-01       2.001004018463e-01 
       2.787655775073e-01       1.860182999713e-01 
       2.881136588192e-01       1.725154522719e-01 
       2.977863412019e-01       1.610644544692e-01 
       3.077985646248e-01       1.517591787573e-01 
       3.181667793367e-01       1.435579255578e-01 
       3.289091877084e-01       1.351799227181e-01 
       3.400460298905e-01       1.261623805121e-01 
       3.515999235695e-01       1.172005438753e-01 
       3.635962710278e-01       1.091754389344e-01 
       3.760637505499e-01       1.023079394696e-01 
       3.890349143014e-01       9.593611227342e-02 
       4.025469215929e-01       8.950621666788e-02 
       4.166424455447e-01       8.311045585851e-02 
       4.313708034899e-01       7.721414564187e-02 
       4.467893781976e-01       7.189898410270e-02 
       4.629654198623e-01       6.686743217185e-02 
       4.799783500912e-01       6.191592412683e-02 
       4.979227318246e-01       5.722087736529e-02 
       5.169121269689e-01       5.290179718815e-02 
       5.370841403262e-01       4.876831471636e-02 
       5.586070463286e-01       4.478935954316e-02 
       5.816885093582e-01       4.105052096939e-02 
       6.065870143577e-01       3.748843809299e-02 
       6.336266466978e-01       3.407494963893e-02 
       6.632156057925e-01       3.083325227743e-02 
       6.958678637575e-01       2.772702176449e-02 
       7.322247983784e-01       2.476575046191e-02 
       7.730680193171e-01       2.193823415418e-02 
       8.193049551574e-01       1.925484636100e-02 
       8.718988013754e-01       1.672805811583e-02 
       9.317218028590e-01       1.438295211040e-02 
       9.993660906273e-01       1.224944214178e-02 
       1.075037109879e+00       1.035144378229e-02 
       1.158653485387e+00       8.698606073522e-03 
       1.250099156961e+00       7.283533150147e-03 
       1.349432400897e+00       6.084416671373e-03 
       1.456947456991e+00       5.074718064914e-03 
       1.573135110893e+00       4.227322574246e-03 
       1.698621895119e+00       3.517591927939e-03 
       1.834127512423e+00       2.924074438901e-03 
       1.980444933977e+00       2.428283507463e-03 
       2.138435191130e+00       2.014662439800e-03 
       2.309029198543e+00       1.669960379994e-03 
       2.493232376993e+00       1.383014030095e-03 
       2.692130394536e+00       1.144383414910e-03 
       2.906895533764e+00       9.461395100684e-04 
       3.138793596840e+00       7.816029379141e-04 
       3.389191365541e+00       6.451621094425e-04 
       3.659564656886e+00       5.321382965520e-04 
       3.951507021438e+00       4.385797999869e-04 
       4.266739135513e+00       3.612095108116e-04 
       4.607118942658e+00       2.972713906176e-04 
       4.974652604172e+00       2.444823244882e-04 
       5.371506323193e+00       2.009286346434e-04 
       5.800019112071e+00       1.650204160639e-04 
       6.262716578240e+00       1.354379405220e-04 
       6.762325809881e+00       1.110856414934e-04 
       7.301791449077e+00       9.105199499169e-05 
       7.884293047211e+00       7.458164400483e-05 
       8.513263804891e+00       6.104947836953e-05 
       9.192410806865e+00       4.993936991384e-05 
       9.925736871166e+00       4.082326218762e-05 
       1.071756414128e+01       3.334850727191e-05 
       1.157255956041e+01       2.722219309934e-05 
       1.249576237789e+01       2.220522560083e-05 
       1.349261385000e+01       1.809849621578e-05 
       1.456898931011e+01       1.473933841517e-05 
       1.573123279727e+01       1.199324640797e-05 
       1.698619444729e+01       9.749650863164e-06 
       1.834127086665e+01       7.917766379617e-06 
       1.980444872733e+01       6.423062530910e-06 
       2.138435183937e+01       5.204280869649e-06 
       2.309029197863e+01       4.211160309467e-06 
       2.493232376942e+01       3.402577730381e-06 
       2.692130394533e+01       2.744729175291e-06 
       2.906895533764e+01       2.209998111270e-06 
       3.138793596840e+01       1.775746179884e-06 
       3.389191365541e+01       1.423461895003e-06 
       3.659564656886e+01       1.138006940237e-06 
       3.951507021438e+01       9.070103973044e-07 
       4.266739135513e+01       7.203845078731e-07 
       4.607118942658e+01       5.698681341022e-07 
       4.974652604172e+01       4.487135007878e-07 
       5.371506323193e+01       3.514361699988e-07 
       5.800019112071e+01       2.735515577183e-07 
       6.262716578240e+01       2.114117971046e-07 
       6.762325809881e+01       1.620311634618e-07 
