# Matter power spectrum P(k) at redshift z=0
# for k=1.04775e-05 to 66.1767 h/Mpc,
# number of wavenumbers equal to 130
#    1:k (h/Mpc)              2:P (Mpc/h)^3        
       1.047750691046e-05       5.020964824857e+01 
       1.319039970183e-05       6.270558189659e+01 
       1.660572937635e-05       7.831147252998e+01 
       2.090537469327e-05       9.780109270842e+01 
       2.631830744443e-05       1.221408204227e+02 
       3.313278603720e-05       1.525374477868e+02 
       4.171170630578e-05       1.904975998773e+02 
       5.251192703764e-05       2.379022318235e+02 
       6.610859936996e-05       2.970989232162e+02 
       8.322579568497e-05       3.710167331582e+02 
       1.047750691046e-04       4.633080766825e+02 
       1.319039970183e-04       5.785234119269e+02 
       1.660572937635e-04       7.223242666494e+02 
       2.090537469327e-04       9.017396251400e+02 
       2.631830744443e-04       1.125468123463e+03 
       3.313278603720e-04       1.404223054014e+03 
       4.171170630578e-04       1.751108027403e+03 
       5.251192703764e-04       2.181998443357e+03 
       6.610859936996e-04       2.715889972789e+03 
       8.322579568497e-04       3.375152301837e+03 
       1.047750691046e-03       4.185552070599e+03 
       1.319039970183e-03       5.175742438373e+03 
       1.660572937635e-03       6.376122044538e+03 
       2.090537469327e-03       7.815668715651e+03 
       2.631830744443e-03       9.517773734541e+03 
       3.313278603720e-03       1.149354787977e+04 
       4.171170630578e-03       1.373258661574e+04 
       5.251192703764e-03       1.619043977818e+04 
       6.610859936996e-03       1.877409910223e+04 
       8.322579568497e-03       2.132481213872e+04 
       1.047750691046e-02       2.360246684762e+04 
       1.319039970183e-02       2.527518446793e+04 
       1.660572937633e-02       2.593469052773e+04 
       2.090537453514e-02       2.517633941139e+04 
       2.631818545635e-02       2.280446657771e+04 
       3.311571692125e-02       1.916471393608e+04 
       4.113809243311e-02       1.548370670037e+04 
       4.792590854610e-02       1.333803468332e+04 
       5.284436902701e-02       1.226572808214e+04 
       5.689644391095e-02       1.158718029372e+04 
       6.051252627066e-02       1.107049277876e+04 
       6.388413457411e-02       1.061882851623e+04 
       6.711249296401e-02       1.018363484991e+04 
       7.025823437965e-02       9.738898662933e+03 
       7.336115587705e-02       9.272076447583e+03 
       7.644928796912e-02       8.779717242561e+03 
       7.954353299775e-02       8.265372413609e+03 
       8.266024078725e-02       7.737571812664e+03 
       8.581273398637e-02       7.208195204576e+03 
       8.901225918437e-02       6.690971160038e+03 
       9.226860540985e-02       6.199607914969e+03 
       9.559052048996e-02       5.746179239057e+03 
       9.898599946599e-02       5.339914240670e+03 
       1.024624891378e-01       4.986374066888e+03 
       1.060270359164e-01       4.686356644649e+03 
       1.096863943056e-01       4.436567582837e+03 
       1.134471073830e-01       4.229174598522e+03 
       1.173155669539e-01       4.052597660285e+03 
       1.212980586983e-01       3.892736488682e+03 
       1.254007961065e-01       3.734420577082e+03 
       1.296299459934e-01       3.563822408130e+03 
       1.339916477160e-01       3.371144274148e+03 
       1.384920277736e-01       3.152892014253e+03 
       1.431372111762e-01       2.913020056840e+03 
       1.479333307714e-01       2.662105104571e+03 
       1.528865355934e-01       2.414795700703e+03 
       1.580029992204e-01       2.186029631316e+03 
       1.632889290723e-01       1.987364855795e+03 
       1.687505775527e-01       1.823932220056e+03 
       1.743942559171e-01       1.693652381065e+03 
       1.802263517371e-01       1.587663101587e+03 
       1.862533508214e-01       1.493617491482e+03 
       1.924818644494e-01       1.397924215009e+03 
       1.989186627765e-01       1.290376460104e+03 
       2.055707152847e-01       1.169426335657e+03 
       2.124452391818e-01       1.042341534059e+03 
       2.195497567139e-01       9.205609988678e+02 
       2.268921624510e-01       8.137888516149e+02 
       2.344808017550e-01       7.266285432618e+02 
       2.423245618548e-01       6.573435654982e+02 
       2.504329772620e-01       5.985796386224e+02 
       2.588163516754e-01       5.414961115438e+02 
       2.674858990930e-01       4.811159399810e+02 
       2.764539076010e-01       4.182759888001e+02 
       2.857339303080e-01       3.584144111291e+02 
       2.953410092148e-01       3.072470628803e+02 
       3.052919395542e-01       2.660104894269e+02 
       3.156055844677e-01       2.316639927049e+02 
       3.263032530092e-01       1.999370881348e+02 
       3.374091587054e-01       1.685471080859e+02 
       3.489509817175e-01       1.388539261313e+02 
       3.609605657343e-01       1.132501768717e+02 
       3.734747921333e-01       9.255475743585e+01 
       3.865366902904e-01       7.523225948817e+01 
       4.001968667448e-01       5.965699781264e+01 
       4.145153713076e-01       4.569139539523e+01 
       4.295641718077e-01       3.410790981229e+01 
       4.454304922144e-01       2.496470895084e+01 
       4.622214006969e-01       1.762557931987e+01 
       4.800702491654e-01       1.162952501904e+01 
       4.991459272112e-01       7.068116914444e+00 
       5.196665217302e-01       3.879071489364e+00 
       5.419201087032e-01       1.728194002449e+00 
       5.662975451962e-01       4.877432720375e-01 
       5.933463737275e-01       1.924031612179e-02 
       6.238638458458e-01       1.392368361957e-01 
       6.590669257916e-01       6.752639906182e-01 
       7.009246080454e-01       1.435988701605e+00 
       7.528593308799e-01       2.182049608128e+00 
       8.213469537518e-01       2.612556546043e+00 
       9.196980813302e-01       2.349837597503e+00 
       1.075112183810e+00       1.220455186517e+00 
       1.322697471132e+00       1.575702103686e-01 
       1.662328205042e+00       6.402122057625e-03 
       2.092692408506e+00       1.627801643111e-02 
       2.634543445090e+00       3.562595589203e-04 
       3.316693691389e+00       2.574441577711e-04 
       4.175469971226e+00       1.191755935712e-06 
       5.256605252960e+00       9.994693478090e-07 
       6.617673932723e+00       1.124984766202e-07 
       8.331157880872e+00       2.527234345211e-09 
       1.048830636590e+01       3.358675750193e-09 
       1.320399541071e+01       1.254502345875e-09 
       1.662284535976e+01       5.110091236225e-10 
       2.092692243973e+01       1.941036119915e-10 
       2.634543445002e+01       7.203763165400e-11 
       3.316693691389e+01       2.518819029512e-11 
       4.175469971226e+01       8.516371495036e-12 
       5.256605252960e+01       2.725296397342e-12 
       6.617673932723e+01       8.157443390546e-13 
