# Matter power spectrum P(k) at redshift z=0
# for k=1.04775e-05 to 66.1767 h/Mpc,
# number of wavenumbers equal to 130
#    1:k (h/Mpc)              2:P (Mpc/h)^3        
       1.047750691046e-05       5.020963457820e+01 
       1.319039970183e-05       6.270561378359e+01 
       1.660572937635e-05       7.831146391209e+01 
       2.090537469327e-05       9.780106892876e+01 
       2.631830744443e-05       1.221408192155e+02 
       3.313278603720e-05       1.525374506669e+02 
       4.171170630578e-05       1.904975997356e+02 
       5.251192703764e-05       2.379022293346e+02 
       6.610859936996e-05       2.970989270041e+02 
       8.322579568497e-05       3.710167333027e+02 
       1.047750691046e-04       4.633080768140e+02 
       1.319039970183e-04       5.785234115197e+02 
       1.660572937635e-04       7.223242665063e+02 
       2.090537469327e-04       9.017396253152e+02 
       2.631830744443e-04       1.125468119685e+03 
       3.313278603720e-04       1.404223040956e+03 
       4.171170630578e-04       1.751107996071e+03 
       5.251192703764e-04       2.181998345292e+03 
       6.610859936996e-04       2.715889675269e+03 
       8.322579568497e-04       3.375151416697e+03 
       1.047750691046e-03       4.185549456039e+03 
       1.319039970183e-03       5.175734816061e+03 
       1.660572937635e-03       6.376097928964e+03 
       2.090537469327e-03       7.815596759511e+03 
       2.631830744443e-03       9.517567829541e+03 
       3.313278603720e-03       1.149298123050e+04 
       4.171170630578e-03       1.373107302886e+04 
       5.251192703764e-03       1.618651306115e+04 
       6.610859936996e-03       1.876421619630e+04 
       8.322579568497e-03       2.130071158908e+04 
       1.047750691046e-02       2.354566752761e+04 
       1.319039970183e-02       2.514630525142e+04 
       1.660572937633e-02       2.565443878161e+04 
       2.090537453514e-02       2.459740319376e+04 
       2.631818545635e-02       2.168509412768e+04 
       3.311571692125e-02       1.718040053762e+04 
       4.113809243311e-02       1.238877250626e+04 
       4.792590854610e-02       9.357893282524e+03 
       5.284436902701e-02       7.720711987010e+03 
       5.689644391095e-02       6.644146855185e+03 
       6.051252627066e-02       5.835701133702e+03 
       6.388413457411e-02       5.174441310302e+03 
       6.711249296401e-02       4.600362225384e+03 
       7.025823437965e-02       4.080634180542e+03 
       7.336115587705e-02       3.597270520963e+03 
       7.644928796912e-02       3.141033591442e+03 
       7.954353299775e-02       2.708832235992e+03 
       8.266024078725e-02       2.301544796163e+03 
       8.581273398637e-02       1.922469297812e+03 
       8.901225918437e-02       1.576116344669e+03 
       9.226860540985e-02       1.266842272853e+03 
       9.559052048996e-02       9.979913721130e+02 
       9.898599946599e-02       7.709675919989e+02 
       1.024624891378e-01       5.849923742931e+02 
       1.060270359164e-01       4.372186499417e+02 
       1.096863943056e-01       3.230061441282e+02 
       1.134471073830e-01       2.367987621087e+02 
       1.173155669539e-01       1.726969034064e+02 
       1.212980586983e-01       1.251614494621e+02 
       1.254007961065e-01       8.946354263754e+01 
       1.296299459934e-01       6.196577566666e+01 
       1.339916477160e-01       4.025357061615e+01 
       1.384920277736e-01       2.312740206275e+01 
       1.431372111762e-01       1.042365739590e+01 
       1.479333307714e-01       2.580267223472e+00 
       1.528865355934e-01       1.255332707368e-04 
       1.580029992204e-01       2.380923782263e+00 
       1.632889290723e-01       8.358119351791e+00 
       1.687505775527e-01       1.572070124326e+01 
       1.743942559171e-01       2.217658052926e+01 
       1.802263517371e-01       2.623567623667e+01 
       1.862533508214e-01       2.761670580181e+01 
       1.924818644494e-01       2.710669819415e+01 
       1.989186627765e-01       2.601627531565e+01 
       2.055707152847e-01       2.528228208416e+01 
       2.124452391818e-01       2.512181174726e+01 
       2.195497567139e-01       2.513587714941e+01 
       2.268921624510e-01       2.459727819431e+01 
       2.344808017550e-01       2.276767445247e+01 
       2.423245618548e-01       1.939408574702e+01 
       2.504329772620e-01       1.508713587193e+01 
       2.588163516754e-01       1.089113974377e+01 
       2.674858990930e-01       7.543926393197e+00 
       2.764539076010e-01       5.229391794446e+00 
       2.857339303080e-01       3.677028209841e+00 
       2.953410092148e-01       2.475728353918e+00 
       3.052919395542e-01       1.438593228218e+00 
       3.156055844677e-01       6.253171914381e-01 
       3.263032530092e-01       1.555902529459e-01 
       3.374091587054e-01       6.021749578343e-03 
       3.489509817175e-01       2.020323480125e-02 
       3.609605657343e-01       8.617139084140e-02 
       3.734747921333e-01       1.800834089902e-01 
       3.865366902904e-01       2.916254840806e-01 
       4.001968667448e-01       3.743237853542e-01 
       4.145153713076e-01       3.826892006347e-01 
       4.295641718077e-01       3.375078817684e-01 
       4.454304922144e-01       2.768014255325e-01 
       4.622214006969e-01       2.130861973166e-01 
       4.800702491654e-01       1.405348447190e-01 
       4.991459272112e-01       7.408665201493e-02 
       5.196665217302e-01       3.142702790944e-02 
       5.419201087032e-01       8.275348887847e-03 
       5.662975451962e-01       1.789178816979e-04 
       5.933463737275e-01       1.829306985269e-03 
       6.238638458458e-01       5.899814614346e-03 
       6.590669257916e-01       7.481188479898e-03 
       7.009246080454e-01       5.362311381590e-03 
       7.528593308799e-01       1.802781274215e-03 
       8.213469537518e-01       5.969950157200e-05 
       9.196980813302e-01       1.079619903331e-04 
       1.075112183810e+00       5.335458149934e-06 
       1.322697471132e+00       3.400299323743e-06 
       1.662328205042e+00       3.394550795024e-08 
       2.092692408506e+00       4.749407336727e-08 
       2.634543445090e+00       1.420806460103e-08 
       3.316693691389e+00       4.881025813813e-09 
       4.175469971226e+00       1.837972213011e-09 
       5.256605252960e+00       6.491134151556e-10 
       6.617673932723e+00       2.164942556881e-10 
       8.331157880872e+00       7.604126462009e-11 
       1.048830636590e+01       2.545223105657e-11 
       1.320399541071e+01       8.747949025334e-12 
       1.662284535976e+01       2.928407814619e-12 
       2.092692243973e+01       9.372718646232e-13 
       2.634543445002e+01       3.071279173284e-13 
       3.316693691389e+01       9.027795314352e-14 
       4.175469971226e+01       2.732487449240e-14 
       5.256605252960e+01       7.817443343365e-15 
       6.617673932723e+01       1.750656393192e-15 
