# Matter power spectrum P(k) at redshift z=99
# for k=1.04775e-05 to 66.1767 h/Mpc,
# number of wavenumbers equal to 130
#    1:k (h/Mpc)              2:P (Mpc/h)^3        
       1.047750691046e-05       7.261928841312e-03 
       1.319039970183e-05       9.069259657795e-03 
       1.660572937635e-05       1.132639294677e-02 
       2.090537469327e-05       1.414527351228e-02 
       2.631830744443e-05       1.766569850778e-02 
       3.313278603720e-05       2.206225867400e-02 
       4.171170630578e-05       2.755298202724e-02 
       5.251192703764e-05       3.441014072292e-02 
       6.610859936996e-05       4.297372858122e-02 
       8.322579568497e-05       5.366827762589e-02 
       1.047750691046e-04       6.702380940052e-02 
       1.319039970183e-04       8.370194881224e-02 
       1.660572937635e-04       1.045283521178e-01 
       2.090537469327e-04       1.305329340128e-01 
       2.631830744443e-04       1.629994756170e-01 
       3.313278603720e-04       2.035264320684e-01 
       4.171170630578e-04       2.541005130003e-01 
       5.251192703764e-04       3.171839999754e-01 
       6.610859936996e-04       3.958147814628e-01 
       8.322579568497e-04       4.937136655525e-01 
       1.047750691046e-03       6.153842340679e-01 
       1.319039970183e-03       7.661721255587e-01 
       1.660572937635e-03       9.522588391697e-01 
       2.090537469327e-03       1.180312925460e+00 
       2.631830744443e-03       1.456802333013e+00 
       3.313278603720e-03       1.786502787634e+00 
       4.171170630578e-03       2.169893412003e+00 
       5.251192703764e-03       2.599423503362e+00 
       6.610859936996e-03       3.055651044050e+00 
       8.322579568497e-03       3.505682103466e+00 
       1.047750691046e-02       3.905388342925e+00 
       1.319039970183e-02       4.200682512830e+00 
       1.660572937633e-02       4.324553829532e+00 
       2.090537453514e-02       4.209136542532e+00 
       2.631818545635e-02       3.823055658220e+00 
       3.311571692125e-02       3.225251505489e+00 
       4.113809243311e-02       2.621560454140e+00 
       4.792590854610e-02       2.272513430168e+00 
       5.284436902701e-02       2.100294869030e+00 
       5.689644391095e-02       1.992551622997e+00 
       6.051252627066e-02       1.911073008324e+00 
       6.388413457411e-02       1.839901429430e+00 
       6.711249296401e-02       1.771007163670e+00 
       7.025823437965e-02       1.700104229425e+00 
       7.336115587705e-02       1.625127367240e+00 
       7.644928796912e-02       1.545544099729e+00 
       7.954353299775e-02       1.461976637635e+00 
       8.266024078725e-02       1.375915819881e+00 
       8.581273398637e-02       1.289410760906e+00 
       8.901225918437e-02       1.204825951998e+00 
       9.226860540985e-02       1.124527866510e+00 
       9.559052048996e-02       1.050625641978e+00 
       9.898599946599e-02       9.847516843315e-01 
       1.024624891378e-01       9.278807731857e-01 
       1.060270359164e-01       8.802260242957e-01 
       1.096863943056e-01       8.412100738118e-01 
       1.134471073830e-01       8.094785693131e-01 
       1.173155669539e-01       7.829975388185e-01 
       1.212980586983e-01       7.592328359152e-01 
       1.254007961065e-01       7.354496712851e-01 
       1.296299459934e-01       7.091362450908e-01 
       1.339916477160e-01       6.784881705544e-01 
       1.384920277736e-01       6.428518662101e-01 
       1.431372111762e-01       6.029162854352e-01 
       1.479333307714e-01       5.606128718071e-01 
       1.528865355934e-01       5.186505623677e-01 
       1.580029992204e-01       4.798545345528e-01 
       1.632889290723e-01       4.464340647106e-01 
       1.687505775527e-01       4.194474515107e-01 
       1.743942559171e-01       3.985431748411e-01 
       1.802263517371e-01       3.820319016450e-01 
       1.862533508214e-01       3.674328285048e-01 
       1.924818644494e-01       3.519979596536e-01 
       1.989186627765e-01       3.336171765649e-01 
       2.055707152847e-01       3.119417013628e-01 
       2.124452391818e-01       2.884534999666e-01 
       2.195497567139e-01       2.655819035277e-01 
       2.268921624510e-01       2.454714774517e-01 
       2.344808017550e-01       2.292290066228e-01 
       2.423245618548e-01       2.165457464972e-01 
       2.504329772620e-01       2.057575763327e-01 
       2.588163516754e-01       1.947709367539e-01 
       2.674858990930e-01       1.823522465531e-01 
       2.764539076010e-01       1.686903590168e-01 
       2.857339303080e-01       1.551812189298e-01 
       2.953410092148e-01       1.433926916662e-01 
       3.052919395542e-01       1.337687311316e-01 
       3.156055844677e-01       1.255177192212e-01 
       3.263032530092e-01       1.174106174552e-01 
       3.374091587054e-01       1.087452836405e-01 
       3.489509817175e-01       9.996571130595e-02 
       3.609605657343e-01       9.193573382158e-02 
       3.734747921333e-01       8.504760729719e-02 
       3.865366902904e-01       7.880702928008e-02 
       4.001968667448e-01       7.260045291133e-02 
       4.145153713076e-01       6.639972868205e-02 
       4.295641718077e-01       6.063262583699e-02 
       4.454304922144e-01       5.544127249609e-02 
       4.622214006969e-01       5.056578159943e-02 
       4.800702491654e-01       4.578365143573e-02 
       4.991459272112e-01       4.125681129021e-02 
       5.196665217302e-01       3.708556423690e-02 
       5.419201087032e-01       3.307751017575e-02 
       5.662975451962e-01       2.924148844589e-02 
       5.933463737275e-01       2.562201877014e-02 
       6.238638458458e-01       2.213165706366e-02 
       6.590669257916e-01       1.878292443216e-02 
       7.009246080454e-01       1.552943397559e-02 
       7.528593308799e-01       1.235269739792e-02 
       8.213469537518e-01       9.222392605523e-03 
       9.196980813302e-01       6.152348380161e-03 
       1.075112183810e+00       3.325380668644e-03 
       1.322697471132e+00       1.283605906395e-03 
       1.662328205042e+00       3.404817145755e-04 
       2.092692408506e+00       4.964035906221e-05 
       2.634543445090e+00       4.108233389418e-07 
       3.316693691389e+00       4.024056437969e-06 
       4.175469971226e+00       5.052860206899e-06 
       5.256605252960e+00       1.942456842969e-06 
       6.617673932723e+00       2.118984864064e-07 
       8.331157880872e+00       1.918089073234e-09 
       1.048830636590e+01       1.539113663479e-08 
       1.320399541071e+01       1.804713496672e-09 
       1.662284535976e+01       3.993376140216e-11 
       2.092692243973e+01       2.967367065272e-11 
       2.634543445002e+01       1.551579350679e-14 
       3.316693691389e+01       5.205670891722e-15 
       4.175469971226e+01       5.843304950776e-14 
       5.256605252960e+01       1.692708053438e-14 
       6.617673932723e+01       7.869418967685e-15 
