# Matter power spectrum P(k) at redshift z=99
# for k=1.04775e-05 to 66.1767 h/Mpc,
# number of wavenumbers equal to 130
#    1:k (h/Mpc)              2:P (Mpc/h)^3        
       1.047750691046e-05       7.262067413212e-03 
       1.319039970183e-05       9.069434242060e-03 
       1.660572937635e-05       1.132661009014e-02 
       2.090537469327e-05       1.414554155987e-02 
       2.631830744443e-05       1.766603401844e-02 
       3.313278603720e-05       2.206267760233e-02 
       4.171170630578e-05       2.755350729605e-02 
       5.251192703764e-05       3.441079756706e-02 
       6.610859936996e-05       4.297454999544e-02 
       8.322579568497e-05       5.366930172537e-02 
       1.047750691046e-04       6.702508648573e-02 
       1.319039970183e-04       8.370353783184e-02 
       1.660572937635e-04       1.045303349921e-01 
       2.090537469327e-04       1.305353989876e-01 
       2.631830744443e-04       1.630025354915e-01 
       3.313278603720e-04       2.035302124066e-01 
       4.171170630578e-04       2.541051527694e-01 
       5.251192703764e-04       3.171896339959e-01 
       6.610859936996e-04       3.958215010296e-01 
       8.322579568497e-04       4.937214178049e-01 
       1.047750691046e-03       6.153926274937e-01 
       1.319039970183e-03       7.661799809584e-01 
       1.660572937635e-03       9.522631754230e-01 
       2.090537469327e-03       1.180305079844e+00 
       2.631830744443e-03       1.456762625224e+00 
       3.313278603720e-03       1.786385185431e+00 
       4.171170630578e-03       2.169587566180e+00 
       5.251192703764e-03       2.598661151007e+00 
       6.610859936996e-03       3.053783997441e+00 
       8.322579568497e-03       3.501185183958e+00 
       1.047750691046e-02       3.894830732199e+00 
       1.319039970183e-02       4.176777146470e+00 
       1.660572937633e-02       4.272719959103e+00 
       2.090537453514e-02       4.102430216072e+00 
       2.631818545635e-02       3.617510481219e+00 
       3.311571692125e-02       2.862377013093e+00 
       4.113809243311e-02       2.057741328239e+00 
       4.792590854610e-02       1.549251566250e+00 
       5.284436902701e-02       1.275416802013e+00 
       5.689644391095e-02       1.096092803648e+00 
       6.051252627066e-02       9.620736897722e-01 
       6.388413457411e-02       8.530279970936e-01 
       6.711249296401e-02       7.588158100714e-01 
       7.025823437965e-02       6.738937751313e-01 
       7.336115587705e-02       5.951624544870e-01 
       7.644928796912e-02       5.210124939951e-01 
       7.954353299775e-02       4.508364879107e-01 
       8.266024078725e-02       3.846958529058e-01 
       8.581273398637e-02       3.230727708921e-01 
       8.901225918437e-02       2.666505757984e-01 
       9.226860540985e-02       2.161199945547e-01 
       9.559052048996e-02       1.720130125025e-01 
       9.898599946599e-02       1.345767297544e-01 
       1.024624891378e-01       1.037157247328e-01 
       1.060270359164e-01       7.899476874410e-02 
       1.096863943056e-01       5.970861364553e-02 
       1.134471073830e-01       4.497931833202e-02 
       1.173155669539e-01       3.387224705297e-02 
       1.212980586983e-01       2.549494026248e-02 
       1.254007961065e-01       1.906858068571e-02 
       1.296299459934e-01       1.398370938211e-02 
       1.339916477160e-01       9.821572894844e-03 
       1.384920277736e-01       6.365238639924e-03 
       1.431372111762e-01       3.577423690304e-03 
       1.479333307714e-01       1.538999610027e-03 
       1.528865355934e-01       3.464787466208e-04 
       1.580029992204e-01       1.031126543469e-06 
       1.632889290723e-01       3.396527387747e-04 
       1.687505775527e-01       1.056085071118e-03 
       1.743942559171e-01       1.808653692730e-03 
       1.802263517371e-01       2.353000266809e-03 
       1.862533508214e-01       2.610492749457e-03 
       1.924818644494e-01       2.654094507322e-03 
       1.989186627765e-01       2.636091144064e-03 
       2.055707152847e-01       2.671274696539e-03 
       2.124452391818e-01       2.787818258350e-03 
       2.195497567139e-01       2.933577520397e-03 
       2.268921624510e-01       3.006230503245e-03 
       2.344808017550e-01       2.893826774931e-03 
       2.423245618548e-01       2.547741566777e-03 
       2.504329772620e-01       2.044885930228e-03 
       2.588163516754e-01       1.531128840026e-03 
       2.674858990930e-01       1.113819727271e-03 
       2.764539076010e-01       8.244318161622e-04 
       2.857339303080e-01       6.283462242268e-04 
       2.953410092148e-01       4.656939219275e-04 
       3.052919395542e-01       3.082154010751e-04 
       3.156055844677e-01       1.676910547681e-04 
       3.263032530092e-01       6.995880505259e-05 
       3.374091587054e-01       2.156295455062e-05 
       3.489509817175e-01       3.977933876431e-06 
       3.609605657343e-01       2.071052430588e-09 
       3.734747921333e-01       3.207195136595e-06 
       3.865366902904e-01       1.259255112020e-05 
       4.001968667448e-01       2.339385845373e-05 
       4.145153713076e-01       2.888886434219e-05 
       4.295641718077e-01       2.926578615198e-05 
       4.454304922144e-01       2.763789765032e-05 
       4.622214006969e-01       2.472817904349e-05 
       4.800702491654e-01       1.908550208424e-05 
       4.991459272112e-01       1.230440841992e-05 
       5.196665217302e-01       7.104975744943e-06 
       5.419201087032e-01       3.330927112942e-06 
       5.662975451962e-01       9.586798740018e-07 
       5.933463737275e-01       8.062763258490e-08 
       6.238638458458e-01       6.311781512915e-08 
       6.590669257916e-01       3.311894501227e-07 
       7.009246080454e-01       4.484854087974e-07 
       7.528593308799e-01       2.881014756184e-07 
       8.213469537518e-01       6.478886135497e-08 
       9.196980813302e-01       3.329717943172e-11 
       1.075112183810e+00       1.916386657999e-09 
       1.322697471132e+00       3.081297417181e-10 
       1.662328205042e+00       1.923595873819e-11 
       2.092692408506e+00       9.116278029476e-12 
       2.634543445090e+00       2.792086545856e-12 
       3.316693691389e+00       9.733215679057e-13 
       4.175469971226e+00       3.629064239162e-13 
       5.256605252960e+00       1.289531389880e-13 
       6.617673932723e+00       4.371642580771e-14 
       8.331157880872e+00       1.507738535765e-14 
       1.048830636590e+01       4.771538799754e-15 
       1.320399541071e+01       1.912319206812e-15 
       1.662284535976e+01       6.940986277823e-16 
       2.092692243973e+01       1.632202500376e-16 
       2.634543445002e+01       8.114642947419e-17 
       3.316693691389e+01       4.119197712268e-17 
       4.175469971226e+01       1.395814142621e-17 
       5.256605252960e+01       7.567699148592e-18 
       6.617673932723e+01       4.782835496441e-20 
