# Matter power spectrum P(k) at redshift z=99
# for k=1.04775e-05 to 66.1767 h/Mpc,
# number of wavenumbers equal to 130
#    1:k (h/Mpc)              2:P (Mpc/h)^3        
       1.047750691046e-05       7.261927680862e-03 
       1.319039970183e-05       9.069258201849e-03 
       1.660572937635e-05       1.132639106725e-02 
       2.090537469327e-05       1.414527123399e-02 
       2.631830744443e-05       1.766569584058e-02 
       3.313278603720e-05       2.206225515942e-02 
       4.171170630578e-05       2.755297766277e-02 
       5.251192703764e-05       3.441013522947e-02 
       6.610859936996e-05       4.297372172778e-02 
       8.322579568497e-05       5.366826852944e-02 
       1.047750691046e-04       6.702379872774e-02 
       1.319039970183e-04       8.370193441286e-02 
       1.660572937635e-04       1.045283355384e-01 
       2.090537469327e-04       1.305329134104e-01 
       2.631830744443e-04       1.629994506605e-01 
       3.313278603720e-04       2.035264004601e-01 
       4.171170630578e-04       2.541004744243e-01 
       5.251192703764e-04       3.171839528558e-01 
       6.610859936996e-04       3.958147256513e-01 
       8.322579568497e-04       4.937136006272e-01 
       1.047750691046e-03       6.153841636042e-01 
       1.319039970183e-03       7.661720592238e-01 
       1.660572937635e-03       9.522588016464e-01 
       2.090537469327e-03       1.180312991699e+00 
       2.631830744443e-03       1.456802684686e+00 
       3.313278603720e-03       1.786503854044e+00 
       4.171170630578e-03       2.169896196777e+00 
       5.251192703764e-03       2.599430630721e+00 
       6.610859936996e-03       3.055668715456e+00 
       8.322579568497e-03       3.505725144477e+00 
       1.047750691046e-02       3.905491322148e+00 
       1.319039970183e-02       4.200915374873e+00 
       1.660572937633e-02       4.325058552670e+00 
       2.090537453514e-02       4.210205575571e+00 
       2.631818545635e-02       3.825152936636e+00 
       3.311571692125e-02       3.229061772139e+00 
       4.113809243311e-02       2.627733838038e+00 
       4.792590854610e-02       2.280791319643e+00 
       5.284436902701e-02       2.110082728848e+00 
       5.689644391095e-02       2.003539852371e+00 
       6.051252627066e-02       1.923055493141e+00 
       6.388413457411e-02       1.852734205186e+00 
       6.711249296401e-02       1.784563258680e+00 
       7.025823437965e-02       1.714278323123e+00 
       7.336115587705e-02       1.639816467111e+00 
       7.644928796912e-02       1.560663484261e+00 
       7.954353299775e-02       1.477456513890e+00 
       8.266024078725e-02       1.391695635630e+00 
       8.581273398637e-02       1.305462509075e+00 
       8.901225918437e-02       1.221122621030e+00 
       9.226860540985e-02       1.141080161041e+00 
       9.559052048996e-02       1.067449224699e+00 
       9.898599946599e-02       1.001888316669e+00 
       1.024624891378e-01       9.453807617033e-01 
       1.060270359164e-01       8.981495239493e-01 
       1.096863943056e-01       8.596141815707e-01 
       1.134471073830e-01       8.284062162752e-01 
       1.173155669539e-01       8.024680086625e-01 
       1.212980586983e-01       7.792288030108e-01 
       1.254007961065e-01       7.559179771753e-01 
       1.296299459934e-01       7.299823635043e-01 
       1.339916477160e-01       6.995922059666e-01 
       1.384920277736e-01       6.640793875002e-01 
       1.431372111762e-01       6.241471179274e-01 
       1.479333307714e-01       5.817648444325e-01 
       1.528865355934e-01       5.396948073117e-01 
       1.580029992204e-01       5.008139155920e-01 
       1.632889290723e-01       4.673990036994e-01 
       1.687505775527e-01       4.405346012247e-01 
       1.743942559171e-01       4.198650046646e-01 
       1.802263517371e-01       4.036599946756e-01 
       1.862533508214e-01       3.893594717912e-01 
       1.924818644494e-01       3.741349567889e-01 
       1.989186627765e-01       3.558021519899e-01 
       2.055707152847e-01       3.339986568756e-01 
       2.124452391818e-01       3.102655857608e-01 
       2.195497567139e-01       2.871231114641e-01 
       2.268921624510e-01       2.668081505413e-01 
       2.344808017550e-01       2.504840752132e-01 
       2.423245618548e-01       2.378337106792e-01 
       2.504329772620e-01       2.271122418949e-01 
       2.588163516754e-01       2.161174613578e-01 
       2.674858990930e-01       2.035461262094e-01 
       2.764539076010e-01       1.895980962094e-01 
       2.857339303080e-01       1.757569697803e-01 
       2.953410092148e-01       1.637003871402e-01 
       3.052919395542e-01       1.539063303015e-01 
       3.156055844677e-01       1.455311327171e-01 
       3.263032530092e-01       1.372501477286e-01 
       3.374091587054e-01       1.283021680138e-01 
       3.489509817175e-01       1.191712931076e-01 
       3.609605657343e-01       1.108073840751e-01 
       3.734747921333e-01       1.036454749491e-01 
       3.865366902904e-01       9.714132680251e-02 
       4.001968667448e-01       9.061550521938e-02 
       4.145153713076e-01       8.403719040494e-02 
       4.295641718077e-01       7.789145705177e-02 
       4.454304922144e-01       7.234188719864e-02 
       4.622214006969e-01       6.709379204089e-02 
       4.800702491654e-01       6.189205927911e-02 
       4.991459272112e-01       5.692647391941e-02 
       5.196665217302e-01       5.231630871249e-02 
       5.419201087032e-01       4.783268993727e-02 
       5.662975451962e-01       4.348705490415e-02 
       5.933463737275e-01       3.933113769856e-02 
       6.238638458458e-01       3.525351955996e-02 
       6.590669257916e-01       3.126286675535e-02 
       7.009246080454e-01       2.728740606252e-02 
       7.528593308799e-01       2.327848141740e-02 
       8.213469537518e-01       1.914825270701e-02 
       9.196980813302e-01       1.481712655519e-02 
       1.075112183810e+00       1.035093567076e-02 
       1.322697471132e+00       6.379463201191e-03 
       1.662328205042e+00       3.705663768173e-03 
       2.092692408506e+00       2.124534849936e-03 
       2.634543445090e+00       1.207968701369e-03 
       3.316693691389e+00       6.817177404537e-04 
       4.175469971226e+00       3.821216768041e-04 
       5.256605252960e+00       2.128744313934e-04 
       6.617673932723e+00       1.179227005599e-04 
       8.331157880872e+00       6.498782360349e-05 
       1.048830636590e+01       3.564542853606e-05 
       1.320399541071e+01       1.946634257271e-05 
       1.662284535976e+01       1.058791790135e-05 
       2.092692243973e+01       5.737327341697e-06 
       2.634543445002e+01       3.098142344267e-06 
       3.316693691389e+01       1.667514273483e-06 
       4.175469971226e+01       8.947311537151e-07 
       5.256605252960e+01       4.786603313108e-07 
       6.617673932723e+01       2.553247538852e-07 
