# Matter power spectrum P(k) at redshift z=0
# for k=1.04775e-05 to 66.1767 h/Mpc,
# number of wavenumbers equal to 130
#    1:k (h/Mpc)              2:P (Mpc/h)^3        
       1.047750691046e-05       5.020964811306e+01 
       1.319039970183e-05       6.270562594785e+01 
       1.660572937635e-05       7.831147247912e+01 
       2.090537469327e-05       9.780108069295e+01 
       2.631830744443e-05       1.221408203809e+02 
       3.313278603720e-05       1.525374501932e+02 
       4.171170630578e-05       1.904975994010e+02 
       5.251192703764e-05       2.379022224249e+02 
       6.610859936996e-05       2.970989227881e+02 
       8.322579568497e-05       3.710167318946e+02 
       1.047750691046e-04       4.633080766742e+02 
       1.319039970183e-04       5.785234129333e+02 
       1.660572937635e-04       7.223242666092e+02 
       2.090537469327e-04       9.017396271824e+02 
       2.631830744443e-04       1.125468123750e+03 
       3.313278603720e-04       1.404223053681e+03 
       4.171170630578e-04       1.751108028790e+03 
       5.251192703764e-04       2.181998448133e+03 
       6.610859936996e-04       2.715889983593e+03 
       8.322579568497e-04       3.375152337134e+03 
       1.047750691046e-03       4.185552174307e+03 
       1.319039970183e-03       5.175742741922e+03 
       1.660572937635e-03       6.376123051778e+03 
       2.090537469327e-03       7.815671903726e+03 
       2.631830744443e-03       9.517783069112e+03 
       3.313278603720e-03       1.149357460345e+04 
       4.171170630578e-03       1.373266014689e+04 
       5.251192703764e-03       1.619063614560e+04 
       6.610859936996e-03       1.877460423455e+04 
       8.322579568497e-03       2.132607000031e+04 
       1.047750691046e-02       2.360548595846e+04 
       1.319039970183e-02       2.528218847794e+04 
       1.660572937633e-02       2.595027585896e+04 
       2.090537453514e-02       2.520936255698e+04 
       2.631818545635e-02       2.287034840730e+04 
       3.311571692125e-02       1.928624698000e+04 
       4.113809243311e-02       1.568423514384e+04 
       4.792590854610e-02       1.361064092371e+04 
       5.284436902701e-02       1.259130514298e+04 
       5.689644391095e-02       1.195557676212e+04 
       6.051252627066e-02       1.147547131291e+04 
       6.388413457411e-02       1.105590969127e+04 
       6.711249296401e-02       1.064898470311e+04 
       7.025823437965e-02       1.022927683520e+04 
       7.336115587705e-02       9.784550105600e+03 
       7.644928796912e-02       9.311677328028e+03 
       7.954353299775e-02       8.814548839402e+03 
       8.266024078725e-02       8.302120924954e+03 
       8.581273398637e-02       7.786942155983e+03 
       8.901225918437e-02       7.283182515456e+03 
       9.226860540985e-02       6.805150678146e+03 
       9.559052048996e-02       6.365642767446e+03 
       9.898599946599e-02       5.974402390110e+03 
       1.024624891378e-01       5.637319044091e+03 
       1.060270359164e-01       5.355764655862e+03 
       1.096863943056e-01       5.126245522491e+03 
       1.134471073830e-01       4.940480337257e+03 
       1.173155669539e-01       4.786165121271e+03 
       1.212980586983e-01       4.647932815346e+03 
       1.254007961065e-01       4.509149043395e+03 
       1.296299459934e-01       4.354561128441e+03 
       1.339916477160e-01       4.173215826997e+03 
       1.384920277736e-01       3.961160549128e+03 
       1.431372111762e-01       3.722683842128e+03 
       1.479333307714e-01       3.469557122190e+03 
       1.528865355934e-01       3.218338904340e+03 
       1.580029992204e-01       2.986290192705e+03 
       1.632889290723e-01       2.786971849865e+03 
       1.687505775527e-01       2.626824986635e+03 
       1.743942559171e-01       2.503754353988e+03 
       1.802263517371e-01       2.407339561023e+03 
       1.862533508214e-01       2.322250958353e+03 
       1.924818644494e-01       2.231551253264e+03 
       1.989186627765e-01       2.122183600489e+03 
       2.055707152847e-01       1.992027380000e+03 
       2.124452391818e-01       1.850323877921e+03 
       2.195497567139e-01       1.712180198158e+03 
       2.268921624510e-01       1.590988083329e+03 
       2.344808017550e-01       1.493667560574e+03 
       2.423245618548e-01       1.418311234964e+03 
       2.504329772620e-01       1.354466633132e+03 
       2.588163516754e-01       1.288936646869e+03 
       2.674858990930e-01       1.213935233626e+03 
       2.764539076010e-01       1.130695522308e+03 
       2.857339303080e-01       1.048102519892e+03 
       2.953410092148e-01       9.761827929298e+02 
       3.052919395542e-01       9.178082613239e+02 
       3.156055844677e-01       8.678965104843e+02 
       3.263032530092e-01       8.185247735743e+02 
       3.374091587054e-01       7.651457852270e+02 
       3.489509817175e-01       7.106695954692e+02 
       3.609605657343e-01       6.607846675999e+02 
       3.734747921333e-01       6.180874355887e+02 
       3.865366902904e-01       5.793121551421e+02 
       4.001968667448e-01       5.403926649687e+02 
       4.145153713076e-01       5.011523319821e+02 
       4.295641718077e-01       4.644977883877e+02 
       4.454304922144e-01       4.314092660003e+02 
       4.622214006969e-01       4.001141489134e+02 
       4.800702491654e-01       3.690885819050e+02 
       4.991459272112e-01       3.394771288276e+02 
       5.196665217302e-01       3.119860809970e+02 
       5.419201087032e-01       2.852465078581e+02 
       5.662975451962e-01       2.593314817014e+02 
       5.933463737275e-01       2.345488558099e+02 
       6.238638458458e-01       2.102310283777e+02 
       6.590669257916e-01       1.864339240922e+02 
       7.009246080454e-01       1.627253968134e+02 
       7.528593308799e-01       1.388184303331e+02 
       8.213469537518e-01       1.141878350338e+02 
       9.196980813302e-01       8.835910667493e+01 
       1.075112183810e+00       6.172615472451e+01 
       1.322697471132e+00       3.804300120333e+01 
       1.662328205042e+00       2.209798529955e+01 
       2.092692408506e+00       1.266922209740e+01 
       2.634543445090e+00       7.203338926818e+00 
       3.316693691389e+00       4.065167761170e+00 
       4.175469971226e+00       2.278626232185e+00 
       5.256605252960e+00       1.269350746520e+00 
       6.617673932723e+00       7.031364600543e-01 
       8.331157880872e+00       3.874796007083e-01 
       1.048830636590e+01       2.125102944470e-01 
       1.320399541071e+01       1.160358130955e-01 
       1.662284535976e+01       6.309904298632e-02 
       2.092692243973e+01       3.417971815912e-02 
       2.634543445002e+01       1.844616552942e-02 
       3.316693691389e+01       9.919291415520e-03 
       4.175469971226e+01       5.314643480155e-03 
       5.256605252960e+01       2.836668949774e-03 
       6.617673932723e+01       1.507688585743e-03 
