# Matter power spectrum P(k) at redshift z=0
# for k=1.04775e-05 to 66.1767 h/Mpc,
# number of wavenumbers equal to 130
#    1:k (h/Mpc)              2:P (Mpc/h)^3        
       1.047750691046e-05       5.020964811308e+01 
       1.319039970183e-05       6.270562594774e+01 
       1.660572937635e-05       7.831147247912e+01 
       2.090537469327e-05       9.780108069300e+01 
       2.631830744443e-05       1.221408203809e+02 
       3.313278603720e-05       1.525374501932e+02 
       4.171170630578e-05       1.904975994009e+02 
       5.251192703764e-05       2.379022224249e+02 
       6.610859936996e-05       2.970989227882e+02 
       8.322579568497e-05       3.710167318946e+02 
       1.047750691046e-04       4.633080766742e+02 
       1.319039970183e-04       5.785234129337e+02 
       1.660572937635e-04       7.223242666092e+02 
       2.090537469327e-04       9.017396271824e+02 
       2.631830744443e-04       1.125468123750e+03 
       3.313278603720e-04       1.404223053681e+03 
       4.171170630578e-04       1.751108028791e+03 
       5.251192703764e-04       2.181998448133e+03 
       6.610859936996e-04       2.715889983593e+03 
       8.322579568497e-04       3.375152337134e+03 
       1.047750691046e-03       4.185552174307e+03 
       1.319039970183e-03       5.175742744060e+03 
       1.660572937635e-03       6.376123051779e+03 
       2.090537469327e-03       7.815671866020e+03 
       2.631830744443e-03       9.517783069094e+03 
       3.313278603720e-03       1.149357460337e+04 
       4.171170630578e-03       1.373266012873e+04 
       5.251192703764e-03       1.619063614446e+04 
       6.610859936996e-03       1.877460415314e+04 
       8.322579568497e-03       2.132607232079e+04 
       1.047750691046e-02       2.360548369906e+04 
       1.319039970183e-02       2.528218647314e+04 
       1.660572937633e-02       2.595026909706e+04 
       2.090537453514e-02       2.520935203196e+04 
       2.631818545635e-02       2.287033810456e+04 
       3.311571692125e-02       1.928626570308e+04 
       4.113809243311e-02       1.568423683850e+04 
       4.792590854610e-02       1.361059785511e+04 
       5.284436902701e-02       1.259131374188e+04 
       5.689644391095e-02       1.195554999554e+04 
       6.051252627066e-02       1.147545711596e+04 
       6.388413457411e-02       1.105589690105e+04 
       6.711249296401e-02       1.064899606451e+04 
       7.025823437965e-02       1.022931091324e+04 
       7.336115587705e-02       9.784532836170e+03 
       7.644928796912e-02       9.311646086999e+03 
       7.954353299775e-02       8.814530856487e+03 
       8.266024078725e-02       8.302131783231e+03 
       8.581273398637e-02       7.786941971950e+03 
       8.901225918437e-02       7.283213260493e+03 
       9.226860540985e-02       6.805160161670e+03 
       9.559052048996e-02       6.365607998234e+03 
       9.898599946599e-02       5.974406591838e+03 
       1.024624891378e-01       5.637344429648e+03 
       1.060270359164e-01       5.355773559015e+03 
       1.096863943056e-01       5.126260112475e+03 
       1.134471073830e-01       4.940486245330e+03 
       1.173155669539e-01       4.786172918368e+03 
       1.212980586983e-01       4.647956498832e+03 
       1.254007961065e-01       4.509116244453e+03 
       1.296299459934e-01       4.354498616087e+03 
       1.339916477160e-01       4.173225301103e+03 
       1.384920277736e-01       3.961164543687e+03 
       1.431372111762e-01       3.722692196621e+03 
       1.479333307714e-01       3.469585822848e+03 
       1.528865355934e-01       3.218357963630e+03 
       1.580029992204e-01       2.986272225054e+03 
       1.632889290723e-01       2.786961253204e+03 
       1.687505775527e-01       2.626824030182e+03 
       1.743942559171e-01       2.503767835206e+03 
       1.802263517371e-01       2.407329766666e+03 
       1.862533508214e-01       2.322252811265e+03 
       1.924818644494e-01       2.231552454333e+03 
       1.989186627765e-01       2.122188426123e+03 
       2.055707152847e-01       1.992029602894e+03 
       2.124452391818e-01       1.850320486569e+03 
       2.195497567139e-01       1.712170679950e+03 
       2.268921624510e-01       1.590985508707e+03 
       2.344808017550e-01       1.493667874765e+03 
       2.423245618548e-01       1.418308310491e+03 
       2.504329772620e-01       1.354466030395e+03 
       2.588163516754e-01       1.288932304921e+03 
       2.674858990930e-01       1.213932741471e+03 
       2.764539076010e-01       1.130692373871e+03 
       2.857339303080e-01       1.048096858845e+03 
       2.953410092148e-01       9.761796518911e+02 
       3.052919395542e-01       9.178082147706e+02 
       3.156055844677e-01       8.678975885471e+02 
       3.263032530092e-01       8.185252096221e+02 
       3.374091587054e-01       7.651443762284e+02 
       3.489509817175e-01       7.106718964959e+02 
       3.609605657343e-01       6.607872044096e+02 
       3.734747921333e-01       6.180834384984e+02 
       3.865366902904e-01       5.793104193703e+02 
       4.001968667448e-01       5.403889831718e+02 
       4.145153713076e-01       5.011490326697e+02 
       4.295641718077e-01       4.644989494928e+02 
       4.454304922144e-01       4.314063250899e+02 
       4.622214006969e-01       4.001132596349e+02 
       4.800702491654e-01       3.690883265461e+02 
       4.991459272112e-01       3.394743906305e+02 
       5.196665217302e-01       3.119838519292e+02 
       5.419201087032e-01       2.852465139382e+02 
       5.662975451962e-01       2.593308780669e+02 
       5.933463737275e-01       2.345474442395e+02 
       6.238638458458e-01       2.102296662800e+02 
       6.590669257916e-01       1.864328187789e+02 
       7.009246080454e-01       1.627243558892e+02 
       7.528593308799e-01       1.388176816129e+02 
       8.213469537518e-01       1.141872130799e+02 
       9.196980813302e-01       8.835858397736e+01 
       1.075112183810e+00       6.172534918232e+01 
       1.322697471132e+00       3.804222039135e+01 
       1.662328205042e+00       2.209760813466e+01 
       2.092692408506e+00       1.266876394742e+01 
       2.634543445090e+00       7.202974277948e+00 
       3.316693691389e+00       4.064871719581e+00 
       4.175469971226e+00       2.278372440051e+00 
       5.256605252960e+00       1.269157186434e+00 
       6.617673932723e+00       7.029821810350e-01 
       8.331157880872e+00       3.873508789044e-01 
       1.048830636590e+01       2.124033444096e-01 
       1.320399541071e+01       1.159498100843e-01 
       1.662284535976e+01       6.302850509749e-02 
       2.092692243973e+01       3.412126693206e-02 
       2.634543445002e+01       1.839807083628e-02 
       3.316693691389e+01       9.879393886702e-03 
       4.175469971226e+01       5.281618215202e-03 
       5.256605252960e+01       2.809435689440e-03 
       6.617673932723e+01       1.485151898800e-03 
