# Matter power spectrum P(k) at redshift z=0
# for k=1.04775e-05 to 67.6233 h/Mpc,
# number of wavenumbers equal to 246
#    1:k (h/Mpc)              2:P (Mpc/h)^3        
       1.047750691338e-05       5.020964905398e+01 
       1.131335172818e-05       5.407048774754e+01 
       1.221587619877e-05       5.822820344701e+01 
       1.319039970550e-05       6.270561042230e+01 
       1.424266598317e-05       6.752731071921e+01 
       1.537887697396e-05       7.271979643489e+01 
       1.660572938097e-05       7.831146297657e+01 
       1.793045413791e-05       8.433312149236e+01 
       1.936085902737e-05       9.081779304086e+01 
       2.090537469909e-05       9.780106659558e+01 
       2.257310435923e-05       1.053212842458e+02 
       2.437387742372e-05       1.134197184434e+02 
       2.631830745176e-05       1.221408211400e+02 
       2.841785470091e-05       1.315324521641e+02 
       3.068489367268e-05       1.416461587843e+02 
       3.313278604643e-05       1.525374328416e+02 
       3.577595943165e-05       1.642660484376e+02 
       3.862999240274e-05       1.768963364001e+02 
       4.171170631739e-05       1.904976014347e+02 
       4.503926445983e-05       2.051444222741e+02 
       4.863227909323e-05       2.209171380828e+02 
       5.251192705226e-05       2.379022234773e+02 
       5.670107455699e-05       2.561927827600e+02 
       6.122441198393e-05       2.758890470390e+02 
       6.610859938837e-05       2.970989238279e+02 
       7.138242363583e-05       3.199385570185e+02 
       7.707696806873e-05       3.445329730204e+02 
       8.322579570814e-05       3.710167340506e+02 
       8.986514707061e-05       3.995346451741e+02 
       9.703415376577e-05       4.302425389056e+02 
       1.047750691338e-04       4.633080764767e+02 
       1.131335172818e-04       4.989116274687e+02 
       1.221587619877e-04       5.372471950144e+02 
       1.319039970550e-04       5.785234114272e+02 
       1.424266598317e-04       6.229645919400e+02 
       1.537887697396e-04       6.708118467390e+02 
       1.660572938097e-04       7.223242636744e+02 
       1.793045413791e-04       7.777801521717e+02 
       1.936085902737e-04       8.374783555233e+02 
       2.090537469909e-04       9.017396187616e+02 
       2.257310435923e-04       9.709080147689e+02 
       2.437387742372e-04       1.045352431133e+03 
       2.631830745176e-04       1.125468097580e+03 
       2.841785470091e-04       1.211678143205e+03 
       3.068489367268e-04       1.304435195015e+03 
       3.313278604643e-04       1.404222974883e+03 
       3.577595943165e-04       1.511557905999e+03 
       3.862999240274e-04       1.626990678226e+03 
       4.171170631739e-04       1.751107795151e+03 
       4.503926445983e-04       1.884533045909e+03 
       4.863227909323e-04       2.027928892818e+03 
       5.251192705226e-04       2.181997746889e+03 
       5.670107455699e-04       2.347483090123e+03 
       6.122441198393e-04       2.525170407045e+03 
       6.610859938837e-04       2.715887880641e+03 
       7.138242363583e-04       2.920506662587e+03 
       7.707696806873e-04       3.139940736453e+03 
       8.322579570814e-04       3.375146072009e+03 
       8.986514707061e-04       3.627118851584e+03 
       9.703415376577e-04       3.896892575033e+03 
       1.047750691338e-03       4.185533732573e+03 
       1.131335172818e-03       4.494136096441e+03 
       1.221587619877e-03       4.823813130447e+03 
       1.319039970550e-03       5.175689193797e+03 
       1.424266598317e-03       5.550942978418e+03 
       1.537887697396e-03       5.950678667831e+03 
       1.660572938097e-03       6.375966692265e+03 
       1.793045413791e-03       6.827851742694e+03 
       1.936085902737e-03       7.307310667994e+03 
       2.090537469909e-03       7.815227192309e+03 
       2.257310435923e-03       8.352363964673e+03 
       2.437387742372e-03       8.919330935033e+03 
       2.631830745176e-03       9.516550225100e+03 
       2.841785470091e-03       1.014421419626e+04 
       3.068489367268e-03       1.080224490511e+04 
       3.313278604643e-03       1.149023928951e+04 
       3.577595943165e-03       1.220741619799e+04 
       3.862999240274e-03       1.295254511180e+04 
       4.171170631739e-03       1.372387592767e+04 
       4.503926445983e-03       1.451906328104e+04 
       4.863227909323e-03       1.533506018709e+04 
       5.251192705226e-03       1.616815745656e+04 
       5.670107455699e-03       1.701377669244e+04 
       6.122441198393e-03       1.786622709849e+04 
       6.610859938837e-03       1.871886931911e+04 
       7.138242363583e-03       1.956385052029e+04 
       7.707696806873e-03       2.039197841685e+04 
       8.322579570814e-03       2.119259671521e+04 
       8.986514707061e-03       2.195343654362e+04 
       9.703415376577e-03       2.266044006199e+04 
       1.047750691338e-02       2.329772950148e+04 
       1.131335172818e-02       2.384746342174e+04 
       1.221587619877e-02       2.428970884456e+04 
       1.319039970550e-02       2.460268078087e+04 
       1.424266598317e-02       2.476275057881e+04 
       1.537887697392e-02       2.474508033857e+04 
       1.660572938023e-02       2.452402031940e+04 
       1.793045412706e-02       2.407412362216e+04 
       1.936085890181e-02       2.337232204752e+04 
       2.090537352463e-02       2.239929370885e+04 
       2.257309535333e-02       2.114266824462e+04 
       2.437382002918e-02       1.960046187166e+04 
       2.631799944462e-02       1.778479868020e+04 
       2.841644545389e-02       1.572689407158e+04 
       3.067933355377e-02       1.348103108474e+04 
       3.311368470740e-02       1.112868920077e+04 
       3.571840443502e-02       8.779240645852e+03 
       3.847720348444e-02       6.563114449882e+03 
       4.135335538431e-02       4.610181699946e+03 
       4.429361667738e-02       3.016146785456e+03 
       4.724366439141e-02       1.815885809624e+03 
       5.016480835311e-02       9.835647659172e+02 
       5.303989620246e-02       4.564969263360e+02 
       5.586870669566e-02       1.610005594342e+02 
       5.866042680613e-02       2.826824313754e+01 
       6.142798932958e-02       6.379110311178e-01 
       6.418496440164e-02       3.275459931572e+01 
       6.694418833788e-02       9.077843767377e+01 
       6.971731106057e-02       1.510001351668e+02 
       7.251476155766e-02       1.984034158704e+02 
       7.534587671527e-02       2.252338611648e+02 
       7.821907666265e-02       2.295339156046e+02 
       8.114203772912e-02       2.136464745723e+02 
       8.412184535029e-02       1.827521742901e+02 
       8.716512279304e-02       1.433853452712e+02 
       9.027813695930e-02       1.021474488249e+02 
       9.346688431697e-02       6.465472870585e+01 
       9.673716028276e-02       3.479590362717e+01 
       1.000946150830e-01       1.441554509293e+01 
       1.035447986537e-01       3.382331630306e+00 
       1.070931966762e-01       1.306691541125e-02 
       1.107452594425e-01       1.714797302825e+00 
       1.145064249153e-01       5.702416507228e+00 
       1.183821370918e-01       9.626433616851e+00 
       1.223778605862e-01       1.197945869300e+01 
       1.264990921987e-01       1.221857867463e+01 
       1.307513701367e-01       1.061692391336e+01 
       1.351402814784e-01       7.935835968518e+00 
       1.396714684203e-01       5.048066759010e+00 
       1.443506338194e-01       2.632559840071e+00 
       1.491835465229e-01       1.024248813174e+00 
       1.541760469708e-01       2.205776060491e-01 
       1.593340535561e-01       9.977096577183e-04 
       1.646635702297e-01       8.137789332759e-02 
       1.701706958456e-01       2.322560811009e-01 
       1.758616357459e-01       3.288017031820e-01 
       1.817427160982e-01       3.400869083161e-01 
       1.878204015065e-01       2.904145300672e-01 
       1.941013164283e-01       2.107207405671e-01 
       2.005922709503e-01       1.338628996631e-01 
       2.073002914972e-01       7.411991316246e-02 
       2.142326570816e-01       3.207705633371e-02 
       2.213969417533e-01       8.187825840400e-03 
       2.288010639706e-01       2.337799319280e-04 
       2.364533437147e-01       2.025228493905e-03 
       2.443625682930e-01       8.197707139871e-03 
       2.525380679504e-01       1.275802097048e-02 
       2.609898026346e-01       1.229994706462e-02 
       2.697284615565e-01       8.763951158555e-03 
       2.787655775689e-01       4.163127825298e-03 
       2.881136588829e-01       9.710206301346e-04 
       2.977863412677e-01       2.000923043012e-05 
       3.077985646929e-01       2.668517204937e-04 
       3.181667794071e-01       7.674048069403e-04 
       3.289091877812e-01       8.996879991395e-04 
       3.400460299658e-01       7.622269202595e-04 
       3.515999236474e-01       3.616063296685e-04 
       3.635962711085e-01       1.094430463284e-04 
       3.760637506334e-01       1.333446547199e-06 
       3.890349143879e-01       1.309948420354e-05 
       4.025469216825e-01       3.528523460733e-05 
       4.166424456376e-01       1.529361810955e-05 
       4.313708035863e-01       2.806887430391e-06 
       4.467893782977e-01       1.353758825763e-06 
       4.629654199664e-01       6.582039341156e-06 
       4.799783501994e-01       6.913278034629e-06 
       4.979227319373e-01       6.473527571259e-06 
       5.169121270864e-01       3.144767614625e-06 
       5.370841404489e-01       4.786222697265e-07 
       5.586070464571e-01       5.498397195489e-10 
       5.816885094930e-01       1.465908542482e-08 
       6.065870144995e-01       2.485754313110e-09 
       6.336266468475e-01       1.008276796637e-07 
       6.632156059511e-01       3.156751924617e-07 
       6.958678639263e-01       5.550566729854e-07 
       7.322247985589e-01       2.832298332438e-07 
       7.730680195114e-01       1.595863446646e-07 
       8.193049553677e-01       7.947165842379e-09 
       8.718988016039e-01       1.615730949078e-09 
       9.317218031082e-01       5.540361847070e-08 
       9.993660908989e-01       8.193680426565e-08 
       1.075037110174e+00       1.916221787733e-09 
       1.158653485707e+00       1.135471558188e-09 
       1.250099157308e+00       1.995601282423e-08 
       1.349432401273e+00       7.970688166472e-12 
       1.456947457397e+00       8.517102076462e-10 
       1.573135111331e+00       3.909538455138e-09 
       1.698621895592e+00       1.639533632486e-10 
       1.834127512934e+00       1.052906672314e-09 
       1.980444934528e+00       2.634689189902e-10 
       2.138435191726e+00       1.505166858282e-10 
       2.309029199186e+00       5.080728550928e-10 
       2.493232377687e+00       7.000095203999e-11 
       2.692130395285e+00       9.594209696594e-11 
       2.906895534573e+00       4.054417558341e-11 
       3.138793597714e+00       1.868705747762e-11 
       3.389191366484e+00       3.057505777573e-11 
       3.659564657905e+00       1.192316000885e-11 
       3.951507022538e+00       1.415622848262e-11 
       4.266739136701e+00       2.091636792771e-12 
       4.607118943941e+00       4.009744005540e-12 
       4.974652605557e+00       4.553840517856e-12 
       5.371506324689e+00       9.698411157423e-13 
       5.800019113685e+00       6.838838832752e-13 
       6.262716579983e+00       3.796697395110e-13 
       6.762325811764e+00       1.305934639582e-12 
       7.301791451110e+00       8.153980445421e-13 
       7.884293049406e+00       3.756486664594e-13 
       8.513263807261e+00       7.197356778246e-14 
       9.192410809424e+00       2.274567761950e-13 
       9.925736873929e+00       4.743484331572e-14 
       1.071756414427e+01       3.399459614449e-14 
       1.157255956364e+01       8.095739904922e-14 
       1.249576238137e+01       4.440260435442e-14 
       1.349261385375e+01       3.365431285619e-14 
       1.456898931416e+01       3.350177070513e-14 
       1.573123280165e+01       3.908207438911e-15 
       1.698619445202e+01       9.216898309076e-16 
       1.834127087176e+01       3.757169027428e-15 
       1.980444873285e+01       1.391097533593e-15 
       2.138435184532e+01       6.615294279958e-16 
       2.309029198506e+01       3.963422337174e-15 
       2.493232377636e+01       6.511433157890e-16 
       2.692130395282e+01       1.377443866656e-15 
       2.906895534573e+01       1.344566383509e-17 
       3.138793597714e+01       5.583575292192e-16 
       3.389191366484e+01       3.947742622875e-16 
       3.659564657905e+01       4.647332861790e-19 
       3.951507022538e+01       2.214616459007e-16 
       4.266739136701e+01       3.451665344806e-16 
       4.607118943941e+01       1.290902534269e-16 
       4.974652605557e+01       7.782205800055e-20 
       5.371506324689e+01       4.896966691337e-19 
       5.800019113685e+01       1.350032461980e-17 
       6.262716579983e+01       5.211251498733e-17 
       6.762325811764e+01       1.183805249681e-18 
