# Matter power spectrum P(k) at redshift z=99
# for k=1.04775e-05 to 66.1767 h/Mpc,
# number of wavenumbers equal to 130
#    1:k (h/Mpc)              2:P (Mpc/h)^3        
       1.047750691046e-05       7.262837041660e-03 
       1.319039970183e-05       9.070395127037e-03 
       1.660572937635e-05       1.132780961387e-02 
       2.090537469327e-05       1.414704036536e-02 
       2.631830744443e-05       1.766790757276e-02 
       3.313278603720e-05       2.206501472965e-02 
       4.171170630578e-05       2.755642531778e-02 
       5.251192703764e-05       3.441444153719e-02 
       6.610859936996e-05       4.297909798045e-02 
       8.322579568497e-05       5.367497852151e-02 
       1.047750691046e-04       6.703217045331e-02 
       1.319039970183e-04       8.371237280717e-02 
       1.660572937635e-04       1.045413389672e-01 
       2.090537469327e-04       1.305490845442e-01 
       2.631830744443e-04       1.630195156771e-01 
       3.313278603720e-04       2.035511985740e-01 
       4.171170630578e-04       2.541309258009e-01 
       5.251192703764e-04       3.172209543473e-01 
       6.610859936996e-04       3.958588831500e-01 
       8.322579568497e-04       4.937646357180e-01 
       1.047750691046e-03       6.154396109704e-01 
       1.319039970183e-03       7.662244320486e-01 
       1.660572937635e-03       9.522891029492e-01 
       2.090537469327e-03       1.180275198252e+00 
       2.631830744443e-03       1.456591077476e+00 
       3.313278603720e-03       1.785872310057e+00 
       4.171170630578e-03       2.168262685899e+00 
       5.251192703764e-03       2.595404529952e+00 
       6.610859936996e-03       3.045947142676e+00 
       8.322579568497e-03       3.482693049197e+00 
       1.047750691046e-02       3.852485686255e+00 
       1.319039970183e-02       4.083873147359e+00 
       1.660572937633e-02       4.079463743200e+00 
       2.090537453514e-02       3.726443196270e+00 
       2.631818545635e-02       2.950403222937e+00 
       3.311571692125e-02       1.828692199732e+00 
       4.113809243311e-02       7.586564100612e-01 
       4.792590854610e-02       2.397543430203e-01 
       5.284436902701e-02       6.471359044906e-02 
       5.689644391095e-02       8.968741726634e-03 
       6.051252627066e-02       3.745590278493e-04 
       6.388413457411e-02       1.024495051113e-02 
       6.711249296401e-02       2.502723782266e-02 
       7.025823437965e-02       3.799823774007e-02 
       7.336115587705e-02       4.612356271876e-02 
       7.644928796912e-02       4.857739388071e-02 
       7.954353299775e-02       4.589082084593e-02 
       8.266024078725e-02       3.937490352153e-02 
       8.581273398637e-02       3.068417624292e-02 
       8.901225918437e-02       2.147049602507e-02 
       9.226860540985e-02       1.312285403584e-02 
       9.559052048996e-02       6.597250601899e-03 
       9.898599946599e-02       2.342088125154e-03 
       1.024624891378e-01       3.152226911158e-04 
       1.060270359164e-01       8.549683270579e-05 
       1.096863943056e-01       9.895386392768e-04 
       1.134471073830e-01       2.311754816401e-03 
       1.173155669539e-01       3.447897502202e-03 
       1.212980586983e-01       4.018313062393e-03 
       1.254007961065e-01       3.909306786547e-03 
       1.296299459934e-01       3.240226222470e-03 
       1.339916477160e-01       2.273962124757e-03 
       1.384920277736e-01       1.303926828754e-03 
       1.431372111762e-01       5.553079478469e-04 
       1.479333307714e-01       1.291784633652e-04 
       1.528865355934e-01       4.065823765836e-07 
       1.580029992204e-01       6.056104558864e-05 
       1.632889290723e-01       1.802636347815e-04 
       1.687505775527e-01       2.629366286262e-04 
       1.743942559171e-01       2.697994006919e-04 
       1.802263517371e-01       2.133987486202e-04 
       1.862533508214e-01       1.321591989440e-04 
       1.924818644494e-01       6.059431241826e-05 
       1.989186627765e-01       1.722515114860e-05 
       2.055707152847e-01       1.246245612291e-06 
       2.124452391818e-01       1.235402922474e-06 
       2.195497567139e-01       6.216870703176e-06 
       2.268921624510e-01       9.310723293550e-06 
       2.344808017550e-01       8.835877354846e-06 
       2.423245618548e-01       6.473882664582e-06 
       2.504329772620e-01       3.672273929402e-06 
       2.588163516754e-01       1.401365885327e-06 
       2.674858990930e-01       2.686324135384e-07 
       2.764539076010e-01       6.467871718764e-10 
       2.857339303080e-01       1.931523237634e-07 
       2.953410092148e-01       4.087225774324e-07 
       3.052919395542e-01       4.543823656997e-07 
       3.156055844677e-01       3.416741627318e-07 
       3.263032530092e-01       1.501786932747e-07 
       3.374091587054e-01       3.889783852764e-08 
       3.489509817175e-01       1.232648467208e-10 
       3.609605657343e-01       9.781034179986e-09 
       3.734747921333e-01       2.363199096558e-08 
       3.865366902904e-01       1.805393605864e-08 
       4.001968667448e-01       6.773387553829e-09 
       4.145153713076e-01       1.319144223056e-11 
       4.295641718077e-01       2.179045847369e-09 
       4.454304922144e-01       5.845297216925e-09 
       4.622214006969e-01       4.017372407094e-09 
       4.800702491654e-01       9.358985234164e-10 
       4.991459272112e-01       6.456347946617e-11 
       5.196665217302e-01       2.154349777055e-12 
       5.419201087032e-01       5.000285065843e-13 
       5.662975451962e-01       1.656821469813e-11 
       5.933463737275e-01       5.176277702354e-11 
       6.238638458458e-01       4.683825193798e-11 
       6.590669257916e-01       2.126628235783e-11 
       7.009246080454e-01       6.356498636170e-11 
       7.528593308799e-01       3.929881927220e-11 
       8.213469537518e-01       7.594415741462e-13 
       9.196980813302e-01       2.139465644190e-12 
       1.075112183810e+00       5.026605456900e-14 
       1.322697471132e+00       1.850569384444e-13 
       1.662328205042e+00       1.455515630587e-13 
       2.092692408506e+00       7.574879554288e-14 
       2.634543445090e+00       1.384886367666e-14 
       3.316693691389e+00       9.907666268681e-16 
       4.175469971226e+00       1.442688940018e-15 
       5.256605252960e+00       3.993974007977e-16 
       6.617673932723e+00       4.123155769862e-17 
       8.331157880872e+00       1.622532065784e-17 
       1.048830636590e+01       1.817722870842e-18 
       1.320399541071e+01       1.137700286760e-18 
       1.662284535976e+01       2.872631538262e-19 
       2.092692243973e+01       1.269382379244e-20 
       2.634543445002e+01       2.067674635562e-20 
       3.316693691389e+01       2.638964179947e-21 
       4.175469971226e+01       1.605609678595e-22 
       5.256605252960e+01       3.414680181933e-23 
       6.617673932723e+01       8.108472710380e-24 
