# Matter power spectrum P(k) at redshift z=0
# for k=1.04775e-05 to 66.1767 h/Mpc,
# number of wavenumbers equal to 130
#    1:k (h/Mpc)              2:P (Mpc/h)^3        
       1.047750691046e-05       5.020963743697e+01 
       1.319039970183e-05       6.270563444414e+01 
       1.660572937635e-05       7.831148523695e+01 
       2.090537469327e-05       9.780107510028e+01 
       2.631830744443e-05       1.221408260647e+02 
       3.313278603720e-05       1.525374434882e+02 
       4.171170630578e-05       1.904976014406e+02 
       5.251192703764e-05       2.379022232401e+02 
       6.610859936996e-05       2.970989272975e+02 
       8.322579568497e-05       3.710167332500e+02 
       1.047750691046e-04       4.633080768260e+02 
       1.319039970183e-04       5.785234127933e+02 
       1.660572937635e-04       7.223242667943e+02 
       2.090537469327e-04       9.017396264115e+02 
       2.631830744443e-04       1.125468121115e+03 
       3.313278603720e-04       1.404223049618e+03 
       4.171170630578e-04       1.751108016665e+03 
       5.251192703764e-04       2.181998407485e+03 
       6.610859936996e-04       2.715889863093e+03 
       8.322579568497e-04       3.375151984645e+03 
       1.047750691046e-03       4.185551127795e+03 
       1.319039970183e-03       5.175739685236e+03 
       1.660572937635e-03       6.376112277338e+03 
       2.090537469327e-03       7.815636883564e+03 
       2.631830744443e-03       9.517678641139e+03 
       3.313278603720e-03       1.149327892821e+04 
       4.171170630578e-03       1.373185388475e+04 
       5.251192703764e-03       1.618850503087e+04 
       6.610859936996e-03       1.876913228969e+04 
       8.322579568497e-03       2.131243642482e+04 
       1.047750691046e-02       2.357256008389e+04 
       1.319039970183e-02       2.520531559292e+04 
       1.660572937633e-02       2.577753580252e+04 
       2.090537453514e-02       2.483920668494e+04 
       2.631818545635e-02       2.212423226082e+04 
       3.311571692125e-02       1.789976280748e+04 
       4.113809243311e-02       1.340609844115e+04 
       4.792590854610e-02       1.055122369590e+04 
       5.284436902701e-02       8.985716509513e+03 
       5.689644391095e-02       7.929935692977e+03 
       6.051252627066e-02       7.109651195008e+03 
       6.388413457411e-02       6.411519027048e+03 
       6.711249296401e-02       5.779616428396e+03 
       7.025823437965e-02       5.184360254777e+03 
       7.336115587705e-02       4.610719105442e+03 
       7.644928796912e-02       4.053023923585e+03 
       7.954353299775e-02       3.511961805379e+03 
       8.266024078725e-02       2.992430223525e+03 
       8.581273398637e-02       2.501976338017e+03 
       8.901225918437e-02       2.049020049460e+03 
       9.226860540985e-02       1.641353414652e+03 
       9.559052048996e-02       1.284921326684e+03 
       9.898599946599e-02       9.827171287003e+02 
       1.024624891378e-01       7.344907441995e+02 
       1.060270359164e-01       5.369578107600e+02 
       1.096863943056e-01       3.843123501966e+02 
       1.134471073830e-01       2.693109286910e+02 
       1.173155669539e-01       1.842613156384e+02 
       1.212980586983e-01       1.219831139667e+02 
       1.254007961065e-01       7.647990224527e+01 
       1.296299459934e-01       4.337259099707e+01 
       1.339916477160e-01       2.004593293000e+01 
       1.384920277736e-01       5.526227567683e+00 
       1.431372111762e-01       3.072337423731e-02 
       1.479333307714e-01       4.131486823606e+00 
       1.528865355934e-01       1.769202324212e+01 
       1.580029992204e-01       3.893218848560e+01 
       1.632889290723e-01       6.411695332594e+01 
       1.687505775527e-01       8.828977870553e+01 
       1.743942559171e-01       1.068323051059e+02 
       1.802263517371e-01       1.170945117786e+02 
       1.862533508214e-01       1.190403728133e+02 
       1.924818644494e-01       1.149291896992e+02 
       1.989186627765e-01       1.081218149471e+02 
       2.055707152847e-01       1.010489547255e+02 
       2.124452391818e-01       9.438384980557e+01 
       2.195497567139e-01       8.734369513887e+01 
       2.268921624510e-01       7.855299315606e+01 
       2.344808017550e-01       6.691937733991e+01 
       2.423245618548e-01       5.260828203872e+01 
       2.504329772620e-01       3.749630879241e+01 
       2.588163516754e-01       2.407749577137e+01 
       2.674858990930e-01       1.393028734083e+01 
       2.764539076010e-01       7.246121288309e+00 
       2.857339303080e-01       3.231940514743e+00 
       2.953410092148e-01       9.732639938986e-01 
       3.052919395542e-01       4.033309602079e-02 
       3.156055844677e-01       3.132737115093e-01 
       3.263032530092e-01       1.520963606654e+00 
       3.374091587054e-01       3.007776322337e+00 
       3.489509817175e-01       4.141188014946e+00 
       3.609605657343e-01       4.706885828479e+00 
       3.734747921333e-01       4.845584779181e+00 
       3.865366902904e-01       4.621937133672e+00 
       4.001968667448e-01       3.975135250236e+00 
       4.145153713076e-01       2.959312862755e+00 
       4.295641718077e-01       1.872470271697e+00 
       4.454304922144e-01       9.829720520646e-01 
       4.622214006969e-01       3.854759762479e-01 
       4.800702491654e-01       6.831157430427e-02 
       4.991459272112e-01       4.042163758631e-03 
       5.196665217302e-01       9.616088279786e-02 
       5.419201087032e-01       2.164928144117e-01 
       5.662975451962e-01       2.783561301914e-01 
       5.933463737275e-01       2.383719838417e-01 
       6.238638458458e-01       1.327022790488e-01 
       6.590669257916e-01       3.496102453576e-02 
       7.009246080454e-01       3.618405274224e-05 
       7.528593308799e-01       1.267984641867e-02 
       8.213469537518e-01       1.173092222493e-02 
       9.196980813302e-01       5.330628851919e-06 
       1.075112183810e+00       5.435537785242e-04 
       1.322697471132e+00       2.390978193185e-05 
       1.662328205042e+00       2.200807593826e-07 
       2.092692408506e+00       1.013588136950e-07 
       2.634543445090e+00       1.569740539944e-08 
       3.316693691389e+00       4.557227150871e-09 
       4.175469971226e+00       1.653772401690e-09 
       5.256605252960e+00       5.589220870081e-10 
       6.617673932723e+00       1.752877308040e-10 
       8.331157880872e+00       5.874255374507e-11 
       1.048830636590e+01       1.959726657684e-11 
       1.320399541071e+01       6.153457913339e-12 
       1.662284535976e+01       2.160879514082e-12 
       2.092692243973e+01       5.311936760178e-13 
       2.634543445002e+01       1.860029099736e-13 
       3.316693691389e+01       4.917706912853e-14 
       4.175469971226e+01       1.165295412837e-14 
       5.256605252960e+01       4.311355611059e-15 
       6.617673932723e+01       6.790297818950e-16 
