# Matter power spectrum P(k) at redshift z=99
# for k=1.04775e-05 to 67.6233 h/Mpc,
# number of wavenumbers equal to 246
#    1:k (h/Mpc)              2:P (Mpc/h)^3        
       1.047750691046e-05       7.261927681107e-03 
       1.131335172503e-05       7.820331652696e-03 
       1.221587619537e-05       8.421675995739e-03 
       1.319039970183e-05       9.069258202155e-03 
       1.424266597921e-05       9.766638412463e-03 
       1.537887696968e-05       1.051764070837e-02 
       1.660572937635e-05       1.132639106764e-02 
       1.793045413292e-05       1.219733232756e-02 
       1.936085902198e-05       1.313524225823e-02 
       2.090537469327e-05       1.414527123447e-02 
       2.257310435294e-05       1.523296273874e-02 
       2.437387741694e-05       1.640429446344e-02 
       2.631830744443e-05       1.766569584118e-02 
       2.841785469300e-05       1.902408737069e-02 
       3.068489366414e-05       2.048692972842e-02 
       3.313278603720e-05       2.206225516017e-02 
       3.577595942169e-05       2.375870707518e-02 
       3.862999239199e-05       2.558560730289e-02 
       4.171170630578e-05       2.755297766370e-02 
       4.503926444729e-05       2.967161930574e-02 
       4.863227907969e-05       3.195316454341e-02 
       5.251192703764e-05       3.441013523063e-02 
       5.670107454120e-05       3.705601726597e-02 
       6.122441196689e-05       3.990533417931e-02 
       6.610859936996e-05       4.297372172922e-02 
       7.138242361596e-05       4.627802146771e-02 
       7.707696804727e-05       4.983636199632e-02 
       8.322579568497e-05       5.366826853125e-02 
       8.986514704559e-05       5.779476400915e-02 
       9.703415373875e-05       6.223848250720e-02 
       1.047750691046e-04       6.702379873000e-02 
       1.131335172503e-04       7.217695161307e-02 
       1.221587619537e-04       7.772619082109e-02 
       1.319039970183e-04       8.370193441567e-02 
       1.424266597921e-04       9.013692517444e-02 
       1.537887696968e-04       9.706641253227e-02 
       1.660572937635e-04       1.045283355419e-01 
       1.793045413292e-04       1.125635350304e-01 
       1.936085902198e-04       1.212159616299e-01 
       2.090537469327e-04       1.305329134147e-01 
       2.257310435294e-04       1.405652847757e-01 
       2.437387741694e-04       1.513678304201e-01 
       2.631830744443e-04       1.629994506659e-01 
       2.841785469300e-04       1.755234923150e-01 
       3.068489366414e-04       1.890080672486e-01 
       3.313278603720e-04       2.035264004667e-01 
       3.577595942169e-04       2.191571806084e-01 
       3.862999239199e-04       2.359849440179e-01 
       4.171170630578e-04       2.541004744323e-01 
       4.503926444729e-04       2.736012083274e-01 
       4.863227907969e-04       2.945916794190e-01 
       5.251192703764e-04       3.171839528653e-01 
       5.670107454121e-04       3.414980767736e-01 
       6.122441196689e-04       3.676625417117e-01 
       6.610859936996e-04       3.958147256624e-01 
       7.138242361596e-04       4.261013289475e-01 
       7.707696804727e-04       4.586787797472e-01 
       8.322579568497e-04       4.937136006407e-01 
       8.986514704559e-04       5.313826807171e-01 
       9.703415373875e-04       5.718734978355e-01 
       1.047750691046e-03       6.153841636156e-01 
       1.131335172503e-03       6.621233246606e-01 
       1.221587619537e-03       7.123098228093e-01 
       1.319039970183e-03       7.661720592949e-01 
       1.424266597921e-03       8.239546306510e-01 
       1.537887696968e-03       8.859011182855e-01 
       1.660572937635e-03       9.522588016429e-01 
       1.793045413292e-03       1.023280100886e+00 
       1.936085902198e-03       1.099216305713e+00 
       2.090537469327e-03       1.180312991655e+00 
       2.257310435294e-03       1.266804117121e+00 
       2.437387741694e-03       1.358904854742e+00 
       2.631830744443e-03       1.456802684553e+00 
       2.841785469300e-03       1.560646891974e+00 
       3.068489366414e-03       1.670536063998e+00 
       3.313278603720e-03       1.786503853707e+00 
       3.577595942169e-03       1.908502932329e+00 
       3.862999239199e-03       2.036387732229e+00 
       4.171170630578e-03       2.169896193919e+00 
       4.503926444729e-03       2.308631880341e+00 
       4.863227907969e-03       2.452047292122e+00 
       5.251192703764e-03       2.599430628967e+00 
       5.670107454120e-03       2.749896932284e+00 
       6.122441196689e-03       2.902386513259e+00 
       6.610859936996e-03       3.055668701285e+00 
       7.138242361596e-03       3.208356459475e+00 
       7.707696804727e-03       3.358923888999e+00 
       8.322579568496e-03       3.505725589791e+00 
       8.986514704559e-03       3.647009613847e+00 
       9.703415373875e-03       3.780923292445e+00 
       1.047750691046e-02       3.905490654432e+00 
       1.131335172503e-02       4.018588022547e+00 
       1.221587619537e-02       4.117901552535e+00 
       1.319039970183e-02       4.200915372596e+00 
       1.424266597920e-02       4.264942508888e+00 
       1.537887696964e-02       4.307218621480e+00 
       1.660572937560e-02       4.325062389721e+00 
       1.793045412207e-02       4.316058503749e+00 
       1.936085889642e-02       4.278229261417e+00 
       2.090537351881e-02       4.210199504707e+00 
       2.257309534705e-02       4.111419485620e+00 
       2.437382002240e-02       3.982418024053e+00 
       2.631799943729e-02       3.825167347197e+00 
       2.841644544598e-02       3.643281635948e+00 
       3.067933354524e-02       3.442205840159e+00 
       3.311368469821e-02       3.229244487918e+00 
       3.571840442514e-02       3.013507212618e+00 
       3.847720347390e-02       2.805277282431e+00 
       4.135335537314e-02       2.614413866635e+00 
       4.429361666563e-02       2.448120499764e+00 
       4.724366437916e-02       2.309238153605e+00 
       5.016480834039e-02       2.196110669563e+00 
       5.303989618930e-02       2.104360447457e+00 
       5.586870668205e-02       2.028461218347e+00 
       5.866042679206e-02       1.963148954514e+00 
       6.142798931504e-02       1.903780389094e+00 
       6.418496438662e-02       1.846476467133e+00 
       6.694418832236e-02       1.788191364396e+00 
       6.971731104453e-02       1.726713142356e+00 
       7.251476154108e-02       1.660647942011e+00 
       7.534587669814e-02       1.589464701031e+00 
       7.821907664495e-02       1.513432993030e+00 
       8.114203771084e-02       1.433562152565e+00 
       8.412184533139e-02       1.351484400496e+00 
       8.716512277352e-02       1.269268351830e+00 
       9.027813693913e-02       1.189185063305e+00 
       9.346688429613e-02       1.113494901141e+00 
       9.673716026122e-02       1.044164942464e+00 
       1.000946150608e-01       9.826973318016e-01 
       1.035447986307e-01       9.299267398830e-01 
       1.070931966524e-01       8.859508744809e-01 
       1.107452594180e-01       8.500617939117e-01 
       1.145064248899e-01       8.207913195178e-01 
       1.183821370656e-01       7.960114165202e-01 
       1.223778605591e-01       7.731324944427e-01 
       1.264990921707e-01       7.494376380925e-01 
       1.307513701078e-01       7.225425358628e-01 
       1.351402814485e-01       6.908915550906e-01 
       1.396714683894e-01       6.541649159481e-01 
       1.443506337875e-01       6.134085056136e-01 
       1.491835464900e-01       5.708498639702e-01 
       1.541760469368e-01       5.293459840102e-01 
       1.593340535209e-01       4.916916710541e-01 
       1.646635701934e-01       4.598995620095e-01 
       1.701706958081e-01       4.347074648091e-01 
       1.758616357070e-01       4.153853160968e-01 
       1.817427160581e-01       3.999138740876e-01 
       1.878204014651e-01       3.856575059762e-01 
       1.941013163855e-01       3.697840907646e-01 
       2.005922709060e-01       3.505190693438e-01 
       2.073002914514e-01       3.280145914277e-01 
       2.142326570343e-01       3.041850396124e-01 
       2.213969417044e-01       2.815812503960e-01 
       2.288010639201e-01       2.622261544195e-01 
       2.364533436625e-01       2.469291149095e-01 
       2.443625682390e-01       2.349794196267e-01 
       2.525380678946e-01       2.243825651877e-01 
       2.609898025770e-01       2.130560536358e-01 
       2.697284614969e-01       2.000631747102e-01 
       2.787655775073e-01       1.859806584135e-01 
       2.881136588192e-01       1.724766600321e-01 
       2.977863412019e-01       1.610239716924e-01 
       3.077985646248e-01       1.517172429465e-01 
       3.181667793367e-01       1.435141686569e-01 
       3.289091877084e-01       1.351342780174e-01 
       3.400460298905e-01       1.261161533055e-01 
       3.515999235695e-01       1.171518102973e-01 
       3.635962710278e-01       1.091252740427e-01 
       3.760637505499e-01       1.022561878196e-01 
       3.890349143014e-01       9.588248864047e-02 
       4.025469215929e-01       8.945076034203e-02 
       4.166424455447e-01       8.305315822718e-02 
       4.313708034899e-01       7.715509139679e-02 
       4.467893781976e-01       7.183827215600e-02 
       4.629654198623e-01       6.680468456223e-02 
       4.799783500912e-01       6.185115253602e-02 
       4.979227318246e-01       5.715393695862e-02 
       5.169121269689e-01       5.283233113953e-02 
       5.370841403262e-01       4.869701389295e-02 
       5.586070463286e-01       4.471580272206e-02 
       5.816885093582e-01       4.097447533245e-02 
       6.065870143577e-01       3.741002117455e-02 
       6.336266466978e-01       3.399382028017e-02 
       6.632156057925e-01       3.074938666530e-02 
       6.958678637575e-01       2.764020694694e-02 
       7.322247983784e-01       2.467583278640e-02 
       7.730680193171e-01       2.184505347724e-02 
       8.193049551574e-01       1.915784419659e-02 
       8.718988013754e-01       1.662719090233e-02 
       9.317218028590e-01       1.427807782505e-02 
       9.993660906273e-01       1.214016633648e-02 
       1.075037109879e+00       1.023768870602e-02 
       1.158653485387e+00       8.580341957446e-03 
       1.250099156961e+00       7.160771396779e-03 
       1.349432400897e+00       5.957312942461e-03 
       1.456947456991e+00       4.943444069128e-03 
       1.573135110893e+00       4.092111769963e-03 
       1.698621895119e+00       3.378716962908e-03 
       1.834127512423e+00       2.781813809294e-03 
       1.980444933977e+00       2.283056181352e-03 
       2.138435191130e+00       1.866907524147e-03 
       2.309029198543e+00       1.520161454435e-03 
       2.493232376993e+00       1.231733402183e-03 
       2.692130394536e+00       9.922794262260e-04 
       2.906895533764e+00       7.939192809982e-04 
       3.138793596840e+00       6.300481432245e-04 
       3.389191365541e+00       4.951392258673e-04 
       3.659564656886e+00       3.845712112883e-04 
       3.951507021438e+00       2.944555761345e-04 
       4.266739135513e+00       2.215572092098e-04 
       4.607118942658e+00       1.631564271000e-04 
       4.974652604172e+00       1.169601182350e-04 
       5.371506323193e+00       8.102660449477e-05 
       5.800019112071e+00       5.369531153336e-05 
       6.262716578240e+00       3.352439540100e-05 
       6.762325809881e+00       1.924867888598e-05 
       7.301791449077e+00       9.736362018580e-06 
       7.884293047211e+00       3.965410242547e-06 
       8.513263804891e+00       1.007916800226e-06 
       9.192410806865e+00       2.638970620157e-08 
       9.925736871166e+00       2.801787633328e-07 
       1.071756414128e+01       1.141149960259e-06 
       1.157255956041e+01       2.113338228041e-06 
       1.249576237789e+01       2.850153750920e-06 
       1.349261385000e+01       3.164263961103e-06 
       1.456898931011e+01       3.020147321147e-06 
       1.573123279727e+01       2.508175159607e-06 
       1.698619444729e+01       1.797666653655e-06 
       1.834127086665e+01       1.078763696077e-06 
       1.980444872733e+01       5.047949474396e-07 
       2.138435183937e+01       1.524488365170e-07 
       2.309029197863e+01       1.211470864689e-08 
       2.493232376942e+01       1.113728795788e-08 
       2.692130394533e+01       5.822074858773e-08 
       2.906895533764e+01       8.687605516446e-08 
       3.138793596840e+01       7.649123351510e-08 
       3.389191365541e+01       4.344651981974e-08 
       3.659564656886e+01       1.398571337658e-08 
       3.951507021438e+01       1.122177859178e-09 
       4.266739135513e+01       6.581560069118e-10 
       4.607118942658e+01       2.598820916839e-09 
       4.974652604172e+01       2.203479233801e-09 
       5.371506323193e+01       7.176114759512e-10 
       5.800019112071e+01       3.099343733860e-11 
       6.262716578240e+01       4.528839182916e-11 
       6.762325809881e+01       7.018867547225e-11 
