# Matter power spectrum P(k) at redshift z=0
# for k=1.04775e-05 to 66.1767 h/Mpc,
# number of wavenumbers equal to 130
#    1:k (h/Mpc)              2:P (Mpc/h)^3        
       1.047750691046e-05       5.020965845710e+01 
       1.319039970183e-05       6.270562389618e+01 
       1.660572937635e-05       7.831147453961e+01 
       2.090537469327e-05       9.780109009345e+01 
       2.631830744443e-05       1.221408334524e+02 
       3.313278603720e-05       1.525374499530e+02 
       4.171170630578e-05       1.904975998079e+02 
       5.251192703764e-05       2.379022265511e+02 
       6.610859936996e-05       2.970989272406e+02 
       8.322579568497e-05       3.710167348001e+02 
       1.047750691046e-04       4.633080785680e+02 
       1.319039970183e-04       5.785234113826e+02 
       1.660572937635e-04       7.223242655191e+02 
       2.090537469327e-04       9.017396264544e+02 
       2.631830744443e-04       1.125468118444e+03 
       3.313278603720e-04       1.404223037470e+03 
       4.171170630578e-04       1.751107975776e+03 
       5.251192703764e-04       2.181998289371e+03 
       6.610859936996e-04       2.715889511459e+03 
       8.322579568497e-04       3.375150920733e+03 
       1.047750691046e-03       4.185547988345e+03 
       1.319039970183e-03       5.175730547121e+03 
       1.660572937635e-03       6.376084727490e+03 
       2.090537469327e-03       7.815558124858e+03 
       2.631830744443e-03       9.517460236830e+03 
       3.313278603720e-03       1.149268621355e+04 
       4.171170630578e-03       1.373028371927e+04 
       5.251192703764e-03       1.618445310655e+04 
       6.610859936996e-03       1.875898361036e+04 
       8.322579568497e-03       2.128781603756e+04 
       1.047750691046e-02       2.351490096920e+04 
       1.319039970183e-02       2.507547859891e+04 
       1.660572937633e-02       2.549794420254e+04 
       2.090537453514e-02       2.426944597779e+04 
       2.631818545635e-02       2.104389026056e+04 
       3.311571692125e-02       1.604447485458e+04 
       4.113809243311e-02       1.066395163610e+04 
       4.792590854610e-02       7.239612083865e+03 
       5.284436902701e-02       5.408845421980e+03 
       5.689644391095e-02       4.236750784301e+03 
       6.051252627066e-02       3.393229366666e+03 
       6.388413457411e-02       2.742094357336e+03 
       6.711249296401e-02       2.215812868440e+03 
       7.025823437965e-02       1.777133199459e+03 
       7.336115587705e-02       1.404491278503e+03 
       7.644928796912e-02       1.085265696344e+03 
       7.954353299775e-02       8.124537483696e+02 
       8.266024078725e-02       5.823994617150e+02 
       8.581273398637e-02       3.933509725477e+02 
       8.901225918437e-02       2.442126619456e+02 
       9.226860540985e-02       1.335722251830e+02 
       9.559052048996e-02       5.897149155515e+01 
       9.898599946599e-02       1.646961548743e+01 
       1.024624891378e-01       5.799281563923e-01 
       1.060270359164e-01       4.613738015393e+00 
       1.096863943056e-01       2.134269669842e+01 
       1.134471073830e-01       4.385297088176e+01 
       1.173155669539e-01       6.638649319460e+01 
       1.212980586983e-01       8.494787257742e+01 
       1.254007961065e-01       9.753533204580e+01 
       1.296299459934e-01       1.039411097673e+02 
       1.339916477160e-01       1.052054909907e+02 
       1.384920277736e-01       1.029353347627e+02 
       1.431372111762e-01       9.866122544409e+01 
       1.479333307714e-01       9.341998079084e+01 
       1.528865355934e-01       8.758077319028e+01 
       1.580029992204e-01       8.089972910849e+01 
       1.632889290723e-01       7.276952128335e+01 
       1.687505775527e-01       6.264491947749e+01 
       1.743942559171e-01       5.050992673150e+01 
       1.802263517371e-01       3.718602533253e+01 
       1.862533508214e-01       2.420361080073e+01 
       1.924818644494e-01       1.329916103196e+01 
       1.989186627765e-01       5.732758698378e+00 
       2.055707152847e-01       1.617726099291e+00 
       2.124452391818e-01       1.209917677545e-01 
       2.195497567139e-01       1.288593844975e-01 
       2.268921624510e-01       7.589135092428e-01 
       2.344808017550e-01       1.552935757299e+00 
       2.423245618548e-01       2.395838642380e+00 
       2.504329772620e-01       3.247983397666e+00 
       2.588163516754e-01       3.962007934546e+00 
       2.674858990930e-01       4.295974435383e+00 
       2.764539076010e-01       4.024882427320e+00 
       2.857339303080e-01       3.185420602659e+00 
       2.953410092148e-01       2.135306305059e+00 
       3.052919395542e-01       1.224069130560e+00 
       3.156055844677e-01       6.047380399764e-01 
       3.263032530092e-01       2.452826136006e-01 
       3.374091587054e-01       5.723338846393e-02 
       3.489509817175e-01       3.903951897374e-06 
       3.609605657343e-01       4.808791810865e-02 
       3.734747921333e-01       1.413260535998e-01 
       3.865366902904e-01       2.034849469124e-01 
       4.001968667448e-01       2.064758714798e-01 
       4.145153713076e-01       1.731947917472e-01 
       4.295641718077e-01       1.231668437971e-01 
       4.454304922144e-01       6.893733258532e-02 
       4.622214006969e-01       2.420140407588e-02 
       4.800702491654e-01       2.749622432052e-03 
       4.991459272112e-01       6.402862711874e-04 
       5.196665217302e-01       5.810120264599e-03 
       5.419201087032e-01       9.895601362466e-03 
       5.662975451962e-01       8.252771938982e-03 
       5.933463737275e-01       3.635577167922e-03 
       6.238638458458e-01       4.641841517503e-04 
       6.590669257916e-01       1.371112183040e-04 
       7.009246080454e-01       6.695011121955e-04 
       7.528593308799e-01       3.031272744891e-04 
       8.213469537518e-01       4.656006791160e-08 
       9.196980813302e-01       8.962973257395e-06 
       1.075112183810e+00       3.102569596209e-06 
       1.322697471132e+00       4.027424677297e-08 
       1.662328205042e+00       2.486171824949e-08 
       2.092692408506e+00       7.312670752021e-09 
       2.634543445090e+00       2.890298684798e-09 
       3.316693691389e+00       9.888299087285e-10 
       4.175469971226e+00       2.541492044456e-10 
       5.256605252960e+00       1.301036250584e-10 
       6.617673932723e+00       5.920256975528e-11 
       8.331157880872e+00       1.941500772913e-11 
       1.048830636590e+01       1.335179349471e-11 
       1.320399541071e+01       3.315134824830e-13 
       1.662284535976e+01       2.419737401101e-15 
       2.092692243973e+01       8.870676654928e-14 
       2.634543445002e+01       3.261421970249e-13 
       3.316693691389e+01       1.072445578500e-14 
       4.175469971226e+01       2.848508996237e-13 
       5.256605252960e+01       2.276364520448e-14 
       6.617673932723e+01       6.059074434451e-15 
