# Matter power spectrum P(k) at redshift z=0
# for k=1.04775e-05 to 66.1767 h/Mpc,
# number of wavenumbers equal to 130
#    1:k (h/Mpc)              2:P (Mpc/h)^3        
       1.047750691046e-05       5.020964811313e+01 
       1.319039970183e-05       6.270562594766e+01 
       1.660572937635e-05       7.831147247912e+01 
       2.090537469327e-05       9.780108069296e+01 
       2.631830744443e-05       1.221408203809e+02 
       3.313278603720e-05       1.525374501932e+02 
       4.171170630578e-05       1.904975994009e+02 
       5.251192703764e-05       2.379022224249e+02 
       6.610859936996e-05       2.970989227881e+02 
       8.322579568497e-05       3.710167318946e+02 
       1.047750691046e-04       4.633080766742e+02 
       1.319039970183e-04       5.785234129332e+02 
       1.660572937635e-04       7.223242666092e+02 
       2.090537469327e-04       9.017396271824e+02 
       2.631830744443e-04       1.125468123750e+03 
       3.313278603720e-04       1.404223053681e+03 
       4.171170630578e-04       1.751108028789e+03 
       5.251192703764e-04       2.181998448133e+03 
       6.610859936996e-04       2.715889983592e+03 
       8.322579568497e-04       3.375152337134e+03 
       1.047750691046e-03       4.185552174305e+03 
       1.319039970183e-03       5.175742739239e+03 
       1.660572937635e-03       6.376123051781e+03 
       2.090537469327e-03       7.815671904041e+03 
       2.631830744443e-03       9.517783069107e+03 
       3.313278603720e-03       1.149357460340e+04 
       4.171170630578e-03       1.373266014450e+04 
       5.251192703764e-03       1.619063614222e+04 
       6.610859936996e-03       1.877460421074e+04 
       8.322579568497e-03       2.132607234455e+04 
       1.047750691046e-02       2.360548857286e+04 
       1.319039970183e-02       2.528218645550e+04 
       1.660572937633e-02       2.595027209856e+04 
       2.090537453514e-02       2.520937322216e+04 
       2.631818545635e-02       2.287034835986e+04 
       3.311571692125e-02       1.928624296935e+04 
       4.113809243311e-02       1.568425007622e+04 
       4.792590854610e-02       1.361060735009e+04 
       5.284436902701e-02       1.259130614898e+04 
       5.689644391095e-02       1.195553252087e+04 
       6.051252627066e-02       1.147546812719e+04 
       6.388413457411e-02       1.105589115109e+04 
       6.711249296401e-02       1.064899028259e+04 
       7.025823437965e-02       1.022932562582e+04 
       7.336115587705e-02       9.784585839779e+03 
       7.644928796912e-02       9.311673574206e+03 
       7.954353299775e-02       8.814558676532e+03 
       8.266024078725e-02       8.302143349335e+03 
       8.581273398637e-02       7.786923568110e+03 
       8.901225918437e-02       7.283220079135e+03 
       9.226860540985e-02       6.805214985125e+03 
       9.559052048996e-02       6.365665026746e+03 
       9.898599946599e-02       5.974361155565e+03 
       1.024624891378e-01       5.637376037417e+03 
       1.060270359164e-01       5.355789306882e+03 
       1.096863943056e-01       5.126249414833e+03 
       1.134471073830e-01       4.940493466837e+03 
       1.173155669539e-01       4.786178710158e+03 
       1.212980586983e-01       4.647929296878e+03 
       1.254007961065e-01       4.509175043472e+03 
       1.296299459934e-01       4.354548040400e+03 
       1.339916477160e-01       4.173209029004e+03 
       1.384920277736e-01       3.961170245238e+03 
       1.431372111762e-01       3.722686015711e+03 
       1.479333307714e-01       3.469559501929e+03 
       1.528865355934e-01       3.218345489044e+03 
       1.580029992204e-01       2.986264463083e+03 
       1.632889290723e-01       2.786956709526e+03 
       1.687505775527e-01       2.626827309635e+03 
       1.743942559171e-01       2.503765067141e+03 
       1.802263517371e-01       2.407328338395e+03 
       1.862533508214e-01       2.322232415754e+03 
       1.924818644494e-01       2.231556083965e+03 
       1.989186627765e-01       2.122184227352e+03 
       2.055707152847e-01       1.992013884515e+03 
       2.124452391818e-01       1.850314271522e+03 
       2.195497567139e-01       1.712167793227e+03 
       2.268921624510e-01       1.590976188510e+03 
       2.344808017550e-01       1.493662153025e+03 
       2.423245618548e-01       1.418316334162e+03 
       2.504329772620e-01       1.354467846845e+03 
       2.588163516754e-01       1.288930319625e+03 
       2.674858990930e-01       1.213931669113e+03 
       2.764539076010e-01       1.130693540419e+03 
       2.857339303080e-01       1.048092528820e+03 
       2.953410092148e-01       9.761792138107e+02 
       3.052919395542e-01       9.178080278547e+02 
       3.156055844677e-01       8.678955346224e+02 
       3.263032530092e-01       8.185241500687e+02 
       3.374091587054e-01       7.651439911189e+02 
       3.489509817175e-01       7.106688719324e+02 
       3.609605657343e-01       6.607830161732e+02 
       3.734747921333e-01       6.180831319851e+02 
       3.865366902904e-01       5.793088786647e+02 
       4.001968667448e-01       5.403901595850e+02 
       4.145153713076e-01       5.011500774141e+02 
       4.295641718077e-01       4.644962927039e+02 
       4.454304922144e-01       4.314068700646e+02 
       4.622214006969e-01       4.001129843755e+02 
       4.800702491654e-01       3.690878598740e+02 
       4.991459272112e-01       3.394748176791e+02 
       5.196665217302e-01       3.119844927240e+02 
       5.419201087032e-01       2.852456027053e+02 
       5.662975451962e-01       2.593296993041e+02 
       5.933463737275e-01       2.345470132047e+02 
       6.238638458458e-01       2.102296055227e+02 
       6.590669257916e-01       1.864323793456e+02 
       7.009246080454e-01       1.627243292562e+02 
       7.528593308799e-01       1.388172433900e+02 
       8.213469537518e-01       1.141875367823e+02 
       9.196980813302e-01       8.835841060835e+01 
       1.075112183810e+00       6.172493681406e+01 
       1.322697471132e+00       3.804198990356e+01 
       1.662328205042e+00       2.209716031683e+01 
       2.092692408506e+00       1.266834169193e+01 
       2.634543445090e+00       7.202496837251e+00 
       3.316693691389e+00       4.064300454782e+00 
       4.175469971226e+00       2.277769273094e+00 
       5.256605252960e+00       1.268493582769e+00 
       6.617673932723e+00       7.022710689433e-01 
       8.331157880872e+00       3.866039516898e-01 
       1.048830636590e+01       2.116238385648e-01 
       1.320399541071e+01       1.151422828872e-01 
       1.662284535976e+01       6.219825228713e-02 
       2.092692243973e+01       3.328020813564e-02 
       2.634543445002e+01       1.755770328923e-02 
       3.316693691389e+01       9.056520731008e-03 
       4.175469971226e+01       4.497838373297e-03 
       5.256605252960e+01       2.091686473492e-03 
       6.617673932723e+01       8.645675032106e-04 
