# Matter power spectrum P(k) at redshift z=99
# for k=1.04775e-05 to 66.1767 h/Mpc,
# number of wavenumbers equal to 130
#    1:k (h/Mpc)              2:P (Mpc/h)^3        
       1.047750691046e-05       7.261927680862e-03 
       1.319039970183e-05       9.069258201849e-03 
       1.660572937635e-05       1.132639106725e-02 
       2.090537469327e-05       1.414527123399e-02 
       2.631830744443e-05       1.766569584058e-02 
       3.313278603720e-05       2.206225515942e-02 
       4.171170630578e-05       2.755297766277e-02 
       5.251192703764e-05       3.441013522947e-02 
       6.610859936996e-05       4.297372172778e-02 
       8.322579568497e-05       5.366826852944e-02 
       1.047750691046e-04       6.702379872775e-02 
       1.319039970183e-04       8.370193441285e-02 
       1.660572937635e-04       1.045283355384e-01 
       2.090537469327e-04       1.305329134104e-01 
       2.631830744443e-04       1.629994506605e-01 
       3.313278603720e-04       2.035264004601e-01 
       4.171170630578e-04       2.541004744243e-01 
       5.251192703764e-04       3.171839528558e-01 
       6.610859936996e-04       3.958147256513e-01 
       8.322579568497e-04       4.937136006271e-01 
       1.047750691046e-03       6.153841636042e-01 
       1.319039970183e-03       7.661720592432e-01 
       1.660572937635e-03       9.522588016469e-01 
       2.090537469327e-03       1.180312991700e+00 
       2.631830744443e-03       1.456802684686e+00 
       3.313278603720e-03       1.786503854037e+00 
       4.171170630578e-03       2.169896195015e+00 
       5.251192703764e-03       2.599430630719e+00 
       6.610859936996e-03       3.055668627011e+00 
       8.322579568497e-03       3.505725598368e+00 
       1.047750691046e-02       3.905490977154e+00 
       1.319039970183e-02       4.200915302373e+00 
       1.660572937633e-02       4.325063253149e+00 
       2.090537453514e-02       4.210203974405e+00 
       2.631818545635e-02       3.825150647050e+00 
       3.311571692125e-02       3.229062036566e+00 
       4.113809243311e-02       2.627720763918e+00 
       4.792590854610e-02       2.280794084668e+00 
       5.284436902701e-02       2.110083432078e+00 
       5.689644391095e-02       2.003540215789e+00 
       6.051252627066e-02       1.923054408120e+00 
       6.388413457411e-02       1.852734308132e+00 
       6.711249296401e-02       1.784565761273e+00 
       7.025823437965e-02       1.714280119028e+00 
       7.336115587705e-02       1.639812849658e+00 
       7.644928796912e-02       1.560661689267e+00 
       7.954353299775e-02       1.477455996566e+00 
       8.266024078725e-02       1.391696624494e+00 
       8.581273398637e-02       1.305462014041e+00 
       8.901225918437e-02       1.221124132490e+00 
       9.226860540985e-02       1.141080896082e+00 
       9.559052048996e-02       1.067449614246e+00 
       9.898599946599e-02       1.001891054652e+00 
       1.024624891378e-01       9.453732304210e-01 
       1.060270359164e-01       8.981502752784e-01 
       1.096863943056e-01       8.596141714059e-01 
       1.134471073830e-01       8.284057109022e-01 
       1.173155669539e-01       8.024660515454e-01 
       1.212980586983e-01       7.792296536222e-01 
       1.254007961065e-01       7.559165737382e-01 
       1.296299459934e-01       7.299850249063e-01 
       1.339916477160e-01       6.995933386805e-01 
       1.384920277736e-01       6.640786529042e-01 
       1.431372111762e-01       6.241457423851e-01 
       1.479333307714e-01       5.817650541989e-01 
       1.528865355934e-01       5.396941786144e-01 
       1.580029992204e-01       5.008142637413e-01 
       1.632889290723e-01       4.673978101717e-01 
       1.687505775527e-01       4.405348114182e-01 
       1.743942559171e-01       4.198658640009e-01 
       1.802263517371e-01       4.036611421267e-01 
       1.862533508214e-01       3.893607134627e-01 
       1.924818644494e-01       3.741348747330e-01 
       1.989186627765e-01       3.558020756874e-01 
       2.055707152847e-01       3.339995823632e-01 
       2.124452391818e-01       3.102659240851e-01 
       2.195497567139e-01       2.871228992139e-01 
       2.268921624510e-01       2.668084517520e-01 
       2.344808017550e-01       2.504838497295e-01 
       2.423245618548e-01       2.378340783412e-01 
       2.504329772620e-01       2.271115562998e-01 
       2.588163516754e-01       2.161169032034e-01 
       2.674858990930e-01       2.035453448634e-01 
       2.764539076010e-01       1.895975623206e-01 
       2.857339303080e-01       1.757577194719e-01 
       2.953410092148e-01       1.636999681498e-01 
       3.052919395542e-01       1.539064351606e-01 
       3.156055844677e-01       1.455309558586e-01 
       3.263032530092e-01       1.372501190932e-01 
       3.374091587054e-01       1.283019711293e-01 
       3.489509817175e-01       1.191713542552e-01 
       3.609605657343e-01       1.108074893145e-01 
       3.734747921333e-01       1.036455576842e-01 
       3.865366902904e-01       9.714141612221e-02 
       4.001968667448e-01       9.061551084166e-02 
       4.145153713076e-01       8.403706613882e-02 
       4.295641718077e-01       7.789124761493e-02 
       4.454304922144e-01       7.234172613160e-02 
       4.622214006969e-01       6.709376897700e-02 
       4.800702491654e-01       6.189201303986e-02 
       4.991459272112e-01       5.692647233050e-02 
       5.196665217302e-01       5.231633228238e-02 
       5.419201087032e-01       4.783264467829e-02 
       5.662975451962e-01       4.348690082792e-02 
       5.933463737275e-01       3.933093267851e-02 
       6.238638458458e-01       3.525332426170e-02 
       6.590669257916e-01       3.126288072357e-02 
       7.009246080454e-01       2.728745757518e-02 
       7.528593308799e-01       2.327846591298e-02 
       8.213469537518e-01       1.914824558983e-02 
       9.196980813302e-01       1.481702791580e-02 
       1.075112183810e+00       1.035086416577e-02 
       1.322697471132e+00       6.379457887189e-03 
       1.662328205042e+00       3.705646373878e-03 
       2.092692408506e+00       2.124508017547e-03 
       2.634543445090e+00       1.207943053821e-03 
       3.316693691389e+00       6.816860149418e-04 
       4.175469971226e+00       3.821006593343e-04 
       5.256605252960e+00       2.128563878324e-04 
       6.617673932723e+00       1.179049370170e-04 
       8.331157880872e+00       6.497208447185e-05 
       1.048830636590e+01       3.563143266694e-05 
       1.320399541071e+01       1.945408504589e-05 
       1.662284535976e+01       1.057727971440e-05 
       2.092692243973e+01       5.728238030242e-06 
       2.634543445002e+01       3.090237293014e-06 
       3.316693691389e+01       1.660725880139e-06 
       4.175469971226e+01       8.889320864470e-07 
       5.256605252960e+01       4.737195675368e-07 
       6.617673932723e+01       2.511432411199e-07 
