# Matter power spectrum P(k) at redshift z=0
# for k=1.04775e-05 to 66.1767 h/Mpc,
# number of wavenumbers equal to 130
#    1:k (h/Mpc)              2:P (Mpc/h)^3        
       1.047750691046e-05       5.020963950780e+01 
       1.319039970183e-05       6.270562651656e+01 
       1.660572937635e-05       7.831146694367e+01 
       2.090537469327e-05       9.780106825577e+01 
       2.631830744443e-05       1.221408204518e+02 
       3.313278603720e-05       1.525374502002e+02 
       4.171170630578e-05       1.904975993598e+02 
       5.251192703764e-05       2.379022226472e+02 
       6.610859936996e-05       2.970989228095e+02 
       8.322579568497e-05       3.710167327662e+02 
       1.047750691046e-04       4.633080766528e+02 
       1.319039970183e-04       5.785234117038e+02 
       1.660572937635e-04       7.223242666050e+02 
       2.090537469327e-04       9.017396271667e+02 
       2.631830744443e-04       1.125468123481e+03 
       3.313278603720e-04       1.404223053656e+03 
       4.171170630578e-04       1.751108028492e+03 
       5.251192703764e-04       2.181998446966e+03 
       6.610859936996e-04       2.715889983880e+03 
       8.322579568497e-04       3.375152335212e+03 
       1.047750691046e-03       4.185552168739e+03 
       1.319039970183e-03       5.175742724156e+03 
       1.660572937635e-03       6.376122989639e+03 
       2.090537469327e-03       7.815671677822e+03 
       2.631830744443e-03       9.517782483401e+03 
       3.313278603720e-03       1.149357284914e+04 
       4.171170630578e-03       1.373265508792e+04 
       5.251192703764e-03       1.619062196503e+04 
       6.610859936996e-03       1.877456423498e+04 
       8.322579568497e-03       2.132597502334e+04 
       1.047750691046e-02       2.360523518909e+04 
       1.319039970183e-02       2.528158025714e+04 
       1.660572937633e-02       2.594887293554e+04 
       2.090537453514e-02       2.520624658822e+04 
       2.631818545635e-02       2.286388867200e+04 
       3.311571692125e-02       1.927400317852e+04 
       4.113809243311e-02       1.566324853036e+04 
       4.792590854610e-02       1.358124549799e+04 
       5.284436902701e-02       1.255545552936e+04 
       5.689644391095e-02       1.191410901254e+04 
       6.051252627066e-02       1.142896199576e+04 
       6.388413457411e-02       1.100466612760e+04 
       6.711249296401e-02       1.059324943051e+04 
       7.025823437965e-02       1.016922086065e+04 
       7.336115587705e-02       9.720275352267e+03 
       7.644928796912e-02       9.243385726101e+03 
       7.954353299775e-02       8.742319611355e+03 
       8.266024078725e-02       8.226017873187e+03 
       8.581273398637e-02       7.707047542109e+03 
       8.901225918437e-02       7.199531322148e+03 
       9.226860540985e-02       6.717599126837e+03 
       9.559052048996e-02       6.274117562597e+03 
       9.898599946599e-02       5.878735973964e+03 
       1.024624891378e-01       5.537310402927e+03 
       1.060270359164e-01       5.251024851457e+03 
       1.096863943056e-01       5.016439075826e+03 
       1.134471073830e-01       4.825266068709e+03 
       1.173155669539e-01       4.665326517782e+03 
       1.212980586983e-01       4.521333624118e+03 
       1.254007961065e-01       4.376857305327e+03 
       1.296299459934e-01       4.216790780366e+03 
       1.339916477160e-01       4.030422530208e+03 
       1.384920277736e-01       3.813840651966e+03 
       1.431372111762e-01       3.571364072314e+03 
       1.479333307714e-01       3.314639474272e+03 
       1.528865355934e-01       3.059997052820e+03 
       1.580029992204e-01       2.824346117197e+03 
       1.632889290723e-01       2.620906383209e+03 
       1.687505775527e-01       2.455905992763e+03 
       1.743942559171e-01       2.327167664841e+03 
       1.802263517371e-01       2.224414184075e+03 
       1.862533508214e-01       2.132920845607e+03 
       1.924818644494e-01       2.036302218726e+03 
       1.989186627765e-01       1.922108482379e+03 
       2.055707152847e-01       1.788366864375e+03 
       2.124452391818e-01       1.644050054789e+03 
       2.195497567139e-01       1.503594687799e+03 
       2.268921624510e-01       1.379633374876e+03 
       2.344808017550e-01       1.278568583230e+03 
       2.423245618548e-01       1.198491485437e+03 
       2.504329772620e-01       1.129603135043e+03 
       2.588163516754e-01       1.059740869540e+03 
       2.674858990930e-01       9.818426048646e+02 
       2.764539076010e-01       8.971298270004e+02 
       2.857339303080e-01       8.137157231958e+02 
       2.953410092148e-01       7.405137102403e+02 
       3.052919395542e-01       6.799638473353e+02 
       3.156055844677e-01       6.275221318240e+02 
       3.263032530092e-01       5.763433675668e+02 
       3.374091587054e-01       5.226091866297e+02 
       3.489509817175e-01       4.688379768010e+02 
       3.609605657343e-01       4.197391306587e+02 
       3.734747921333e-01       3.773490686965e+02 
       3.865366902904e-01       3.390164082189e+02 
       4.001968667448e-01       3.015629134361e+02 
       4.145153713076e-01       2.648979247393e+02 
       4.295641718077e-01       2.312001517083e+02 
       4.454304922144e-01       2.011399642767e+02 
       4.622214006969e-01       1.734593531940e+02 
       4.800702491654e-01       1.471479265391e+02 
       4.991459272112e-01       1.229738885954e+02 
       5.196665217302e-01       1.013869076148e+02 
       5.419201087032e-01       8.160264231147e+01 
       5.662975451962e-01       6.371288359806e+01 
       5.933463737275e-01       4.794871548661e+01 
       6.238638458458e-01       3.409298542704e+01 
       6.590669257916e-01       2.232413944986e+01 
       7.009246080454e-01       1.271519801263e+01 
       7.528593308799e-01       5.528595237680e+00 
       8.213469537518e-01       1.145415081188e+00 
       9.196980813302e-01       6.232482716778e-02 
       1.075112183810e+00       1.984592696320e+00 
       1.322697471132e+00       3.303776299472e+00 
       1.662328205042e+00       1.390907585387e+00 
       2.092692408506e+00       4.869437144636e-02 
       2.634543445090e+00       6.488092918537e-02 
       3.316693691389e+00       2.124338947872e-02 
       4.175469971226e+00       1.132575391962e-03 
       5.256605252960e+00       3.492013471795e-04 
       6.617673932723e+00       5.308616607075e-05 
       8.331157880872e+00       1.833932475894e-06 
       1.048830636590e+01       9.363623982805e-09 
       1.320399541071e+01       1.129461137057e-08 
       1.662284535976e+01       1.356349028953e-09 
       2.092692243973e+01       7.431845549294e-10 
       2.634543445002e+01       2.866403983756e-10 
       3.316693691389e+01       1.021232203581e-10 
       4.175469971226e+01       3.681038074574e-11 
       5.256605252960e+01       1.330493259029e-11 
       6.617673932723e+01       3.713818243333e-12 
