# Matter power spectrum P(k) at redshift z=99
# for k=1.04775e-05 to 66.1767 h/Mpc,
# number of wavenumbers equal to 130
#    1:k (h/Mpc)              2:P (Mpc/h)^3        
       1.047750691046e-05       7.261927680862e-03 
       1.319039970183e-05       9.069258201848e-03 
       1.660572937635e-05       1.132639106725e-02 
       2.090537469327e-05       1.414527123399e-02 
       2.631830744443e-05       1.766569584058e-02 
       3.313278603720e-05       2.206225515942e-02 
       4.171170630578e-05       2.755297766277e-02 
       5.251192703764e-05       3.441013522947e-02 
       6.610859936996e-05       4.297372172777e-02 
       8.322579568497e-05       5.366826852944e-02 
       1.047750691046e-04       6.702379872774e-02 
       1.319039970183e-04       8.370193441286e-02 
       1.660572937635e-04       1.045283355384e-01 
       2.090537469327e-04       1.305329134104e-01 
       2.631830744443e-04       1.629994506605e-01 
       3.313278603720e-04       2.035264004601e-01 
       4.171170630578e-04       2.541004744243e-01 
       5.251192703764e-04       3.171839528557e-01 
       6.610859936996e-04       3.958147256513e-01 
       8.322579568497e-04       4.937136006268e-01 
       1.047750691046e-03       6.153841636042e-01 
       1.319039970183e-03       7.661720592415e-01 
       1.660572937635e-03       9.522588016472e-01 
       2.090537469327e-03       1.180312991699e+00 
       2.631830744443e-03       1.456802684686e+00 
       3.313278603720e-03       1.786503854044e+00 
       4.171170630578e-03       2.169896197918e+00 
       5.251192703764e-03       2.599430630722e+00 
       6.610859936996e-03       3.055668707237e+00 
       8.322579568497e-03       3.505725598470e+00 
       1.047750691046e-02       3.905489887363e+00 
       1.319039970183e-02       4.200915324627e+00 
       1.660572937633e-02       4.325063188107e+00 
       2.090537453514e-02       4.210204867679e+00 
       2.631818545635e-02       3.825154961762e+00 
       3.311571692125e-02       3.229067096730e+00 
       4.113809243311e-02       2.627727907368e+00 
       4.792590854610e-02       2.280791475719e+00 
       5.284436902701e-02       2.110089253833e+00 
       5.689644391095e-02       2.003542275145e+00 
       6.051252627066e-02       1.923058932821e+00 
       6.388413457411e-02       1.852734089303e+00 
       6.711249296401e-02       1.784563389055e+00 
       7.025823437965e-02       1.714275170776e+00 
       7.336115587705e-02       1.639814320214e+00 
       7.644928796912e-02       1.560662454832e+00 
       7.954353299775e-02       1.477457577926e+00 
       8.266024078725e-02       1.391699562123e+00 
       8.581273398637e-02       1.305462293689e+00 
       8.901225918437e-02       1.221125283119e+00 
       9.226860540985e-02       1.141077150003e+00 
       9.559052048996e-02       1.067450980552e+00 
       9.898599946599e-02       1.001888135093e+00 
       1.024624891378e-01       9.453831578959e-01 
       1.060270359164e-01       8.981503784723e-01 
       1.096863943056e-01       8.596146807084e-01 
       1.134471073830e-01       8.284052425949e-01 
       1.173155669539e-01       8.024666804633e-01 
       1.212980586983e-01       7.792299032509e-01 
       1.254007961065e-01       7.559172497097e-01 
       1.296299459934e-01       7.299819298952e-01 
       1.339916477160e-01       6.995935247578e-01 
       1.384920277736e-01       6.640777782825e-01 
       1.431372111762e-01       6.241475745974e-01 
       1.479333307714e-01       5.817640943054e-01 
       1.528865355934e-01       5.396941710606e-01 
       1.580029992204e-01       5.008149631735e-01 
       1.632889290723e-01       4.673984421209e-01 
       1.687505775527e-01       4.405329349245e-01 
       1.743942559171e-01       4.198653300535e-01 
       1.802263517371e-01       4.036607014907e-01 
       1.862533508214e-01       3.893592159135e-01 
       1.924818644494e-01       3.741351596496e-01 
       1.989186627765e-01       3.558020345985e-01 
       2.055707152847e-01       3.339985863596e-01 
       2.124452391818e-01       3.102653603301e-01 
       2.195497567139e-01       2.871232088637e-01 
       2.268921624510e-01       2.668087585964e-01 
       2.344808017550e-01       2.504836437027e-01 
       2.423245618548e-01       2.378338955680e-01 
       2.504329772620e-01       2.271122450565e-01 
       2.588163516754e-01       2.161175545553e-01 
       2.674858990930e-01       2.035456968227e-01 
       2.764539076010e-01       1.895977593421e-01 
       2.857339303080e-01       1.757572825290e-01 
       2.953410092148e-01       1.636997632215e-01 
       3.052919395542e-01       1.539062261816e-01 
       3.156055844677e-01       1.455312619860e-01 
       3.263032530092e-01       1.372499882565e-01 
       3.374091587054e-01       1.283017160436e-01 
       3.489509817175e-01       1.191713103814e-01 
       3.609605657343e-01       1.108074896039e-01 
       3.734747921333e-01       1.036451735494e-01 
       3.865366902904e-01       9.714139559569e-02 
       4.001968667448e-01       9.061587734716e-02 
       4.145153713076e-01       8.403723754825e-02 
       4.295641718077e-01       7.789134638412e-02 
       4.454304922144e-01       7.234181317364e-02 
       4.622214006969e-01       6.709392279439e-02 
       4.800702491654e-01       6.189211211330e-02 
       4.991459272112e-01       5.692647862668e-02 
       5.196665217302e-01       5.231622426140e-02 
       5.419201087032e-01       4.783269573942e-02 
       5.662975451962e-01       4.348694782620e-02 
       5.933463737275e-01       3.933116373057e-02 
       6.238638458458e-01       3.525350451897e-02 
       6.590669257916e-01       3.126286200675e-02 
       7.009246080454e-01       2.728724676824e-02 
       7.528593308799e-01       2.327847268902e-02 
       8.213469537518e-01       1.914830341746e-02 
       9.196980813302e-01       1.481703425569e-02 
       1.075112183810e+00       1.035093087561e-02 
       1.322697471132e+00       6.379488688733e-03 
       1.662328205042e+00       3.705674071682e-03 
       2.092692408506e+00       2.124532966802e-03 
       2.634543445090e+00       1.207956566696e-03 
       3.316693691389e+00       6.817056891096e-04 
       4.175469971226e+00       3.821201115188e-04 
       5.256605252960e+00       2.128706890312e-04 
       6.617673932723e+00       1.179193314420e-04 
       8.331157880872e+00       6.498415345313e-05 
       1.048830636590e+01       3.564232247305e-05 
       1.320399541071e+01       1.946352587192e-05 
       1.662284535976e+01       1.058536871844e-05 
       2.092692243973e+01       5.735088608766e-06 
       2.634543445002e+01       3.096094142199e-06 
       3.316693691389e+01       1.665680367214e-06 
       4.175469971226e+01       8.930652142796e-07 
       5.256605252960e+01       4.771500712029e-07 
       6.617673932723e+01       2.539517620025e-07 
