# Matter power spectrum P(k) at redshift z=99
# for k=1.04775e-05 to 66.1767 h/Mpc,
# number of wavenumbers equal to 130
#    1:k (h/Mpc)              2:P (Mpc/h)^3        
       1.047750691046e-05       7.261927680862e-03 
       1.319039970183e-05       9.069258201849e-03 
       1.660572937635e-05       1.132639106725e-02 
       2.090537469327e-05       1.414527123399e-02 
       2.631830744443e-05       1.766569584058e-02 
       3.313278603720e-05       2.206225515942e-02 
       4.171170630578e-05       2.755297766277e-02 
       5.251192703764e-05       3.441013522947e-02 
       6.610859936996e-05       4.297372172778e-02 
       8.322579568497e-05       5.366826852944e-02 
       1.047750691046e-04       6.702379872774e-02 
       1.319039970183e-04       8.370193441286e-02 
       1.660572937635e-04       1.045283355384e-01 
       2.090537469327e-04       1.305329134104e-01 
       2.631830744443e-04       1.629994506605e-01 
       3.313278603720e-04       2.035264004601e-01 
       4.171170630578e-04       2.541004744243e-01 
       5.251192703764e-04       3.171839528557e-01 
       6.610859936996e-04       3.958147256513e-01 
       8.322579568497e-04       4.937136006278e-01 
       1.047750691046e-03       6.153841636042e-01 
       1.319039970183e-03       7.661720592238e-01 
       1.660572937635e-03       9.522588016477e-01 
       2.090537469327e-03       1.180312991698e+00 
       2.631830744443e-03       1.456802684686e+00 
       3.313278603720e-03       1.786503854034e+00 
       4.171170630578e-03       2.169896195211e+00 
       5.251192703764e-03       2.599430630719e+00 
       6.610859936996e-03       3.055668706905e+00 
       8.322579568497e-03       3.505724916077e+00 
       1.047750691046e-02       3.905490196271e+00 
       1.319039970183e-02       4.200915319966e+00 
       1.660572937633e-02       4.325061682393e+00 
       2.090537453514e-02       4.210201276751e+00 
       2.631818545635e-02       3.825147735132e+00 
       3.311571692125e-02       3.229065801237e+00 
       4.113809243311e-02       2.627730444158e+00 
       4.792590854610e-02       2.280798813938e+00 
       5.284436902701e-02       2.110084968176e+00 
       5.689644391095e-02       2.003536281320e+00 
       6.051252627066e-02       1.923055816485e+00 
       6.388413457411e-02       1.852732067749e+00 
       6.711249296401e-02       1.784562791301e+00 
       7.025823437965e-02       1.714275592147e+00 
       7.336115587705e-02       1.639816981093e+00 
       7.644928796912e-02       1.560659596607e+00 
       7.954353299775e-02       1.477456002748e+00 
       8.266024078725e-02       1.391698199891e+00 
       8.581273398637e-02       1.305462399446e+00 
       8.901225918437e-02       1.221125003799e+00 
       9.226860540985e-02       1.141078923960e+00 
       9.559052048996e-02       1.067449539202e+00 
       9.898599946599e-02       1.001889114884e+00 
       1.024624891378e-01       9.453822273467e-01 
       1.060270359164e-01       8.981476888347e-01 
       1.096863943056e-01       8.596123454290e-01 
       1.134471073830e-01       8.284044234845e-01 
       1.173155669539e-01       8.024677716011e-01 
       1.212980586983e-01       7.792294480908e-01 
       1.254007961065e-01       7.559189938999e-01 
       1.296299459934e-01       7.299827359591e-01 
       1.339916477160e-01       6.995931944274e-01 
       1.384920277736e-01       6.640792776310e-01 
       1.431372111762e-01       6.241460299208e-01 
       1.479333307714e-01       5.817640343228e-01 
       1.528865355934e-01       5.396936927057e-01 
       1.580029992204e-01       5.008136072964e-01 
       1.632889290723e-01       4.673989813962e-01 
       1.687505775527e-01       4.405335290775e-01 
       1.743942559171e-01       4.198660885228e-01 
       1.802263517371e-01       4.036605057914e-01 
       1.862533508214e-01       3.893602166069e-01 
       1.924818644494e-01       3.741348467992e-01 
       1.989186627765e-01       3.558022992476e-01 
       2.055707152847e-01       3.339985993489e-01 
       2.124452391818e-01       3.102662662681e-01 
       2.195497567139e-01       2.871229149166e-01 
       2.268921624510e-01       2.668089499519e-01 
       2.344808017550e-01       2.504836169528e-01 
       2.423245618548e-01       2.378341114667e-01 
       2.504329772620e-01       2.271119800592e-01 
       2.588163516754e-01       2.161170956685e-01 
       2.674858990930e-01       2.035453977048e-01 
       2.764539076010e-01       1.895975409466e-01 
       2.857339303080e-01       1.757572396099e-01 
       2.953410092148e-01       1.636996327917e-01 
       3.052919395542e-01       1.539062791120e-01 
       3.156055844677e-01       1.455315556212e-01 
       3.263032530092e-01       1.372498667562e-01 
       3.374091587054e-01       1.283015756664e-01 
       3.489509817175e-01       1.191709875413e-01 
       3.609605657343e-01       1.108072734110e-01 
       3.734747921333e-01       1.036452432086e-01 
       3.865366902904e-01       9.714155429901e-02 
       4.001968667448e-01       9.061580921759e-02 
       4.145153713076e-01       8.403711438321e-02 
       4.295641718077e-01       7.789119746300e-02 
       4.454304922144e-01       7.234168989655e-02 
       4.622214006969e-01       6.709388662092e-02 
       4.800702491654e-01       6.189183667901e-02 
       4.991459272112e-01       5.692634987960e-02 
       5.196665217302e-01       5.231609087123e-02 
       5.419201087032e-01       4.783256403718e-02 
       5.662975451962e-01       4.348692432078e-02 
       5.933463737275e-01       3.933110328547e-02 
       6.238638458458e-01       3.525336457763e-02 
       6.590669257916e-01       3.126285407665e-02 
       7.009246080454e-01       2.728732061124e-02 
       7.528593308799e-01       2.327840594678e-02 
       8.213469537518e-01       1.914824566200e-02 
       9.196980813302e-01       1.481701350701e-02 
       1.075112183810e+00       1.035092107158e-02 
       1.322697471132e+00       6.379458434494e-03 
       1.662328205042e+00       3.705664259517e-03 
       2.092692408506e+00       2.124527406433e-03 
       2.634543445090e+00       1.207945020094e-03 
       3.316693691389e+00       6.816950095729e-04 
       4.175469971226e+00       3.821078799939e-04 
       5.256605252960e+00       2.128598016657e-04 
       6.617673932723e+00       1.179075434197e-04 
       8.331157880872e+00       6.497208810241e-05 
       1.048830636590e+01       3.563022531781e-05 
       1.320399541071e+01       1.945136764209e-05 
       1.662284535976e+01       1.057304102923e-05 
       2.092692243973e+01       5.722672035568e-06 
       2.634543445002e+01       3.083616153302e-06 
       3.316693691389e+01       1.653131261560e-06 
       4.175469971226e+01       8.805516889951e-07 
       5.256605252960e+01       4.647475444683e-07 
       6.617673932723e+01       2.418258473181e-07 
