# Matter power spectrum P(k) at redshift z=0
# for k=1.04775e-05 to 66.1767 h/Mpc,
# number of wavenumbers equal to 130
#    1:k (h/Mpc)              2:P (Mpc/h)^3        
       1.047750691046e-05       5.020970981905e+01 
       1.319039970183e-05       6.270561478968e+01 
       1.660572937635e-05       7.831146930698e+01 
       2.090537469327e-05       9.780106245866e+01 
       2.631830744443e-05       1.221408161873e+02 
       3.313278603720e-05       1.525374406302e+02 
       4.171170630578e-05       1.904975961903e+02 
       5.251192703764e-05       2.379022215324e+02 
       6.610859936996e-05       2.970989227653e+02 
       8.322579568497e-05       3.710167323354e+02 
       1.047750691046e-04       4.633080777580e+02 
       1.319039970183e-04       5.785234122363e+02 
       1.660572937635e-04       7.223242654406e+02 
       2.090537469327e-04       9.017396191165e+02 
       2.631830744443e-04       1.125468097915e+03 
       3.313278603720e-04       1.404222973287e+03 
       4.171170630578e-04       1.751107786752e+03 
       5.251192703764e-04       2.181997723107e+03 
       6.610859936996e-04       2.715887811155e+03 
       8.322579568497e-04       3.375145870583e+03 
       1.047750691046e-03       4.185533120486e+03 
       1.319039970183e-03       5.175687451365e+03 
       1.660572937635e-03       6.375961562685e+03 
       2.090537469327e-03       7.815212658716e+03 
       2.631830744443e-03       9.516509961389e+03 
       3.313278603720e-03       1.149013096028e+04 
       4.171170630578e-03       1.372359086743e+04 
       5.251192703764e-03       1.616742827919e+04 
       6.610859936996e-03       1.871706326425e+04 
       8.322579568497e-03       2.118827592465e+04 
       1.047750691046e-02       2.328779418469e+04 
       1.319039970183e-02       2.458085990842e+04 
       1.660572937633e-02       2.447862388206e+04 
       2.090537453514e-02       2.231146817244e+04 
       2.631818545635e-02       1.763177191470e+04 
       3.311571692125e-02       1.090266080923e+04 
       4.113809243311e-02       4.500657232542e+03 
       4.792590854610e-02       1.407074216593e+03 
       5.284436902701e-02       3.712229581144e+02 
       5.689644391095e-02       4.742294066098e+01 
       6.051252627066e-02       3.812061851350e+00 
       6.388413457411e-02       6.875474438616e+01 
       6.711249296401e-02       1.612184570997e+02 
       7.025823437965e-02       2.411076793650e+02 
       7.336115587705e-02       2.904240224947e+02 
       7.644928796912e-02       3.044818004486e+02 
       7.954353299775e-02       2.867643884116e+02 
       8.266024078725e-02       2.454656073486e+02 
       8.581273398637e-02       1.908626186867e+02 
       8.901225918437e-02       1.331861893478e+02 
       9.226860540985e-02       8.105766769869e+01 
       9.559052048996e-02       4.042215775894e+01 
       9.898599946599e-02       1.406566263626e+01 
       1.024624891378e-01       1.726547623504e+00 
       1.060270359164e-01       6.995873607662e-01 
       1.096863943056e-01       6.806781703132e+00 
       1.134471073830e-01       1.551625922739e+01 
       1.173155669539e-01       2.297770700972e+01 
       1.212980586983e-01       2.674557400510e+01 
       1.254007961065e-01       2.606516111247e+01 
       1.296299459934e-01       2.168411781128e+01 
       1.339916477160e-01       1.529709846125e+01 
       1.384920277736e-01       8.829493412607e+00 
       1.431372111762e-01       3.790450759979e+00 
       1.479333307714e-01       8.905393745425e-01 
       1.528865355934e-01       2.907253744206e-03 
       1.580029992204e-01       4.252285626620e-01 
       1.632889290723e-01       1.284115861810e+00 
       1.687505775527e-01       1.902030913896e+00 
       1.743942559171e-01       1.984794166502e+00 
       1.802263517371e-01       1.598909790802e+00 
       1.862533508214e-01       1.009267131112e+00 
       1.924818644494e-01       4.717029729328e-01 
       1.989186627765e-01       1.359203306520e-01 
       2.055707152847e-01       9.309700959360e-03 
       2.124452391818e-01       1.169544606606e-02 
       2.195497567139e-01       5.658673336881e-02 
       2.268921624510e-01       8.529877003793e-02 
       2.344808017550e-01       8.137760904142e-02 
       2.423245618548e-01       5.857262262018e-02 
       2.504329772620e-01       3.151496561695e-02 
       2.588163516754e-01       1.068850549515e-02 
       2.674858990930e-01       1.338220880057e-03 
       2.764539076010e-01       2.560709284677e-04 
       2.857339303080e-01       2.788427771234e-03 
       2.953410092148e-01       4.572499776216e-03 
       3.052919395542e-01       4.348425802663e-03 
       3.156055844677e-01       2.789579856656e-03 
       3.263032530092e-01       9.939944485135e-04 
       3.374091587054e-01       1.502159400646e-04 
       3.489509817175e-01       2.028910695978e-05 
       3.609605657343e-01       1.748666312055e-04 
       3.734747921333e-01       2.592047466544e-04 
       3.865366902904e-01       1.553268352761e-04 
       4.001968667448e-01       4.029901420337e-05 
       4.145153713076e-01       1.323619746002e-06 
       4.295641718077e-01       3.029004948306e-05 
       4.454304922144e-01       5.475759246366e-05 
       4.622214006969e-01       3.056001479770e-05 
       4.800702491654e-01       4.744249041951e-06 
       4.991459272112e-01       3.615154830172e-09 
       5.196665217302e-01       2.788875546899e-07 
       5.419201087032e-01       1.098445318826e-08 
       5.662975451962e-01       2.581619550359e-07 
       5.933463737275e-01       4.806675592092e-07 
       6.238638458458e-01       2.327334660980e-07 
       6.590669257916e-01       6.071886005013e-08 
       7.009246080454e-01       3.575703794877e-07 
       7.528593308799e-01       2.843972117120e-07 
       8.213469537518e-01       1.115681026426e-08 
       9.196980813302e-01       6.135824265845e-09 
       1.075112183810e+00       2.624899447990e-09 
       1.322697471132e+00       9.096984470988e-10 
       1.662328205042e+00       1.455795612936e-10 
       2.092692408506e+00       2.468398499051e-10 
       2.634543445090e+00       3.672783462544e-10 
       3.316693691389e+00       1.013576200323e-11 
       4.175469971226e+00       6.706528490945e-12 
       5.256605252960e+00       4.726938656129e-12 
       6.617673932723e+00       1.750501653731e-13 
       8.331157880872e+00       1.082123411158e-13 
       1.048830636590e+01       1.440691570420e-14 
       1.320399541071e+01       1.010547297655e-14 
       1.662284535976e+01       3.418552732412e-15 
       2.092692243973e+01       4.960782611868e-16 
       2.634543445002e+01       5.599537523321e-16 
       3.316693691389e+01       1.550090899573e-16 
       4.175469971226e+01       3.770136097451e-17 
       5.256605252960e+01       5.548426932707e-19 
       6.617673932723e+01       8.591848904349e-20 
