# Matter power spectrum P(k) at redshift z=99
# for k=1.04775e-05 to 66.1767 h/Mpc,
# number of wavenumbers equal to 130
#    1:k (h/Mpc)              2:P (Mpc/h)^3        
       1.047750691046e-05       7.261927682062e-03 
       1.319039970183e-05       9.069258203353e-03 
       1.660572937635e-05       1.132639106912e-02 
       2.090537469327e-05       1.414527123633e-02 
       2.631830744443e-05       1.766569584351e-02 
       3.313278603720e-05       2.206225516306e-02 
       4.171170630578e-05       2.755297766729e-02 
       5.251192703764e-05       3.441013523518e-02 
       6.610859936996e-05       4.297372173487e-02 
       8.322579568497e-05       5.366826853827e-02 
       1.047750691046e-04       6.702379873879e-02 
       1.319039970183e-04       8.370193442665e-02 
       1.660572937635e-04       1.045283355556e-01 
       2.090537469327e-04       1.305329134317e-01 
       2.631830744443e-04       1.629994506868e-01 
       3.313278603720e-04       2.035264004928e-01 
       4.171170630578e-04       2.541004744644e-01 
       5.251192703764e-04       3.171839529045e-01 
       6.610859936996e-04       3.958147257093e-01 
       8.322579568497e-04       4.937136006962e-01 
       1.047750691046e-03       6.153841636764e-01 
       1.319039970183e-03       7.661720593111e-01 
       1.660572937635e-03       9.522588016846e-01 
       2.090537469327e-03       1.180312991610e+00 
       2.631830744443e-03       1.456802684245e+00 
       3.313278603720e-03       1.786503852684e+00 
       4.171170630578e-03       2.169896186762e+00 
       5.251192703764e-03       2.599430621186e+00 
       6.610859936996e-03       3.055668686693e+00 
       8.322579568497e-03       3.505725537736e+00 
       1.047750691046e-02       3.905491372253e+00 
       1.319039970183e-02       4.200914976085e+00 
       1.660572937633e-02       4.325062836204e+00 
       2.090537453514e-02       4.210200652196e+00 
       2.631818545635e-02       3.825142250770e+00 
       3.311571692125e-02       3.229050141509e+00 
       4.113809243311e-02       2.627718673918e+00 
       4.792590854610e-02       2.280776226787e+00 
       5.284436902701e-02       2.110071241009e+00 
       5.689644391095e-02       2.003521052998e+00 
       6.051252627066e-02       1.923035208350e+00 
       6.388413457411e-02       1.852704687690e+00 
       6.711249296401e-02       1.784537074599e+00 
       7.025823437965e-02       1.714246438762e+00 
       7.336115587705e-02       1.639783916492e+00 
       7.644928796912e-02       1.560627498580e+00 
       7.954353299775e-02       1.477422174763e+00 
       8.266024078725e-02       1.391661569298e+00 
       8.581273398637e-02       1.305424677498e+00 
       8.901225918437e-02       1.221086730685e+00 
       9.226860540985e-02       1.141039138854e+00 
       9.559052048996e-02       1.067410631681e+00 
       9.898599946599e-02       1.001847637149e+00 
       1.024624891378e-01       9.453376268799e-01 
       1.060270359164e-01       8.981052234114e-01 
       1.096863943056e-01       8.595683951701e-01 
       1.134471073830e-01       8.283558859590e-01 
       1.173155669539e-01       8.024163943217e-01 
       1.212980586983e-01       7.791719964149e-01 
       1.254007961065e-01       7.558636690968e-01 
       1.296299459934e-01       7.299249572273e-01 
       1.339916477160e-01       6.995329216380e-01 
       1.384920277736e-01       6.640181144008e-01 
       1.431372111762e-01       6.240836272528e-01 
       1.479333307714e-01       5.817006055502e-01 
       1.528865355934e-01       5.396304860547e-01 
       1.580029992204e-01       5.007492383346e-01 
       1.632889290723e-01       4.673329723624e-01 
       1.687505775527e-01       4.404652370685e-01 
       1.743942559171e-01       4.197949661407e-01 
       1.802263517371e-01       4.035881434181e-01 
       1.862533508214e-01       3.892855087301e-01 
       1.924818644494e-01       3.740581272099e-01 
       1.989186627765e-01       3.557241054468e-01 
       2.055707152847e-01       3.339197159870e-01 
       2.124452391818e-01       3.101855748808e-01 
       2.195497567139e-01       2.870429963770e-01 
       2.268921624510e-01       2.667274030221e-01 
       2.344808017550e-01       2.504006776692e-01 
       2.423245618548e-01       2.377494612033e-01 
       2.504329772620e-01       2.270259126159e-01 
       2.588163516754e-01       2.160298160643e-01 
       2.674858990930e-01       2.034571170959e-01 
       2.764539076010e-01       1.895079829766e-01 
       2.857339303080e-01       1.756674382269e-01 
       2.953410092148e-01       1.636098309236e-01 
       3.052919395542e-01       1.538151413209e-01 
       3.156055844677e-01       1.454380802296e-01 
       3.263032530092e-01       1.371560939951e-01 
       3.374091587054e-01       1.282070329643e-01 
       3.489509817175e-01       1.190761533645e-01 
       3.609605657343e-01       1.107117860193e-01 
       3.734747921333e-01       1.035487029170e-01 
       3.865366902904e-01       9.704399537645e-02 
       4.001968667448e-01       9.051753123269e-02 
       4.145153713076e-01       8.393861539035e-02 
       4.295641718077e-01       7.779213748469e-02 
       4.454304922144e-01       7.224212300826e-02 
       4.622214006969e-01       6.699382436871e-02 
       4.800702491654e-01       6.179128007268e-02 
       4.991459272112e-01       5.682547430965e-02 
       5.196665217302e-01       5.221480719593e-02 
       5.419201087032e-01       4.773107091881e-02 
       5.662975451962e-01       4.338506453291e-02 
       5.933463737275e-01       3.922924633498e-02 
       6.238638458458e-01       3.515137906581e-02 
       6.590669257916e-01       3.116098446311e-02 
       7.009246080454e-01       2.718534381285e-02 
       7.528593308799e-01       2.317682546593e-02 
       8.213469537518e-01       1.904712648623e-02 
       9.196980813302e-01       1.471703709679e-02 
       1.075112183810e+00       1.025289604599e-02 
       1.322697471132e+00       6.284982593201e-03 
       1.662328205042e+00       3.616102918090e-03 
       2.092692408506e+00       2.040773407981e-03 
       2.634543445090e+00       1.130765865477e-03 
       3.316693691389e+00       6.117783058959e-04 
       4.175469971226e+00       3.201122604611e-04 
       5.256605252960e+00       1.594047951144e-04 
       6.617673932723e+00       7.351770878246e-05 
       8.331157880872e+00       2.994529182181e-05 
       1.048830636590e+01       9.828734782238e-06 
       1.320399541071e+01       2.084279707913e-06 
       1.662284535976e+01       1.041335098727e-07 
       2.092692243973e+01       8.369368641329e-08 
       2.634543445002e+01       2.265100452974e-07 
       3.316693691389e+01       1.378900376626e-07 
       4.175469971226e+01       2.387611036778e-08 
       5.256605252960e+01       7.607860222382e-11 
       6.617673932723e+01       2.399500040286e-09 
