# Matter power spectrum P(k) at redshift z=99
# for k=1.04775e-05 to 66.1767 h/Mpc,
# number of wavenumbers equal to 130
#    1:k (h/Mpc)              2:P (Mpc/h)^3        
       1.047750691046e-05       7.262220447965e-03 
       1.319039970183e-05       9.069622616208e-03 
       1.660572937635e-05       1.132684688499e-02 
       2.090537469327e-05       1.414583837333e-02 
       2.631830744443e-05       1.766640453697e-02 
       3.313278603720e-05       2.206313955446e-02 
       4.171170630578e-05       2.755408431515e-02 
       5.251192703764e-05       3.441151713553e-02 
       6.610859936996e-05       4.297544838336e-02 
       8.322579568497e-05       5.367042329192e-02 
       1.047750691046e-04       6.702648739276e-02 
       1.319039970183e-04       8.370528770262e-02 
       1.660572937635e-04       1.045325109291e-01 
       2.090537469327e-04       1.305381066261e-01 
       2.631830744443e-04       1.630058936192e-01 
       3.313278603720e-04       2.035343609014e-01 
       4.171170630578e-04       2.541102451930e-01 
       5.251192703764e-04       3.171958189654e-01 
       6.610859936996e-04       3.958288705673e-01 
       8.322579568497e-04       4.937299134428e-01 
       1.047750691046e-03       6.154018094800e-01 
       1.319039970183e-03       7.661885350102e-01 
       1.660572937635e-03       9.522677054772e-01 
       2.090537469327e-03       1.180297441739e+00 
       2.631830744443e-03       1.456724279958e+00 
       3.313278603720e-03       1.786272532754e+00 
       4.171170630578e-03       2.169296613259e+00 
       5.251192703764e-03       2.597941128347e+00 
       6.610859936996e-03       3.052033090058e+00 
       8.322579568497e-03       3.496998919538e+00 
       1.047750691046e-02       3.885092933424e+00 
       1.319039970183e-02       4.154973310301e+00 
       1.660572937633e-02       4.226128638500e+00 
       2.090537453514e-02       4.008397133985e+00 
       2.631818545635e-02       3.441651647799e+00 
       3.311571692125e-02       2.566633090002e+00 
       4.113809243311e-02       1.634196870092e+00 
       4.792590854610e-02       1.053905575513e+00 
       5.284436902701e-02       7.535672038382e-01 
       5.689644391095e-02       5.681346603647e-01 
       6.051252627066e-02       4.398681633283e-01 
       6.388413457411e-02       3.449526881343e-01 
       6.711249296401e-02       2.715208995424e-01 
       7.025823437965e-02       2.128993921235e-01 
       7.336115587705e-02       1.650905576912e-01 
       7.644928796912e-02       1.256196685846e-01 
       7.954353299775e-02       9.293314996557e-02 
       8.266024078725e-02       6.607025258784e-02 
       8.581273398637e-02       4.442637767415e-02 
       8.901225918437e-02       2.758590597547e-02 
       9.226860540985e-02       1.519143996444e-02 
       9.559052048996e-02       6.843400425849e-03 
       9.898599946599e-02       2.032567533774e-03 
       1.024624891378e-01       1.205120148267e-04 
       1.060270359164e-01       3.596797527930e-04 
       1.096863943056e-01       1.955640957718e-03 
       1.134471073830e-01       4.153956005667e-03 
       1.173155669539e-01       6.329619043960e-03 
       1.212980586983e-01       8.053988948685e-03 
       1.254007961065e-01       9.120920334107e-03 
       1.296299459934e-01       9.525724761674e-03 
       1.339916477160e-01       9.402152457429e-03 
       1.384920277736e-01       8.944166811050e-03 
       1.431372111762e-01       8.334747076716e-03 
       1.479333307714e-01       7.700019697137e-03 
       1.528865355934e-01       7.092062710795e-03 
       1.580029992204e-01       6.495269947589e-03 
       1.632889290723e-01       5.849012067911e-03 
       1.687505775527e-01       5.085007284928e-03 
       1.743942559171e-01       4.171068038945e-03 
       1.802263517371e-01       3.145101622742e-03 
       1.862533508214e-01       2.114482258063e-03 
       1.924818644494e-01       1.219065629232e-03 
       1.989186627765e-01       5.742427576701e-04 
       2.055707152847e-01       2.018473237521e-04 
       2.124452391818e-01       3.979734479657e-05 
       2.195497567139e-01       2.010325612735e-07 
       2.268921624510e-01       1.296643995980e-05 
       2.344808017550e-01       4.169701913801e-05 
       2.423245618548e-01       7.821755941821e-05 
       2.504329772620e-01       1.229074316065e-04 
       2.588163516754e-01       1.697565376845e-04 
       2.674858990930e-01       2.039481054434e-04 
       2.764539076010e-01       2.061651834474e-04 
       2.857339303080e-01       1.715846468288e-04 
       2.953410092148e-01       1.200422106255e-04 
       3.052919395542e-01       7.314581536357e-05 
       3.156055844677e-01       4.095143858697e-05 
       3.263032530092e-01       2.168328589925e-05 
       3.374091587054e-01       9.307989594208e-06 
       3.489509817175e-01       2.006340718160e-06 
       3.609605657343e-01       4.734264386085e-08 
       3.734747921333e-01       2.255647065696e-06 
       3.865366902904e-01       4.964207635362e-06 
       4.001968667448e-01       6.034749756248e-06 
       4.145153713076e-01       5.995314919846e-06 
       4.295641718077e-01       5.230394108655e-06 
       4.454304922144e-01       3.808146532713e-06 
       4.622214006969e-01       1.986961435867e-06 
       4.800702491654e-01       6.674983047242e-07 
       4.991459272112e-01       1.141357182808e-07 
       5.196665217302e-01       1.894228964360e-09 
       5.419201087032e-01       1.010544904935e-07 
       5.662975451962e-01       1.709529139098e-07 
       5.933463737275e-01       1.345272939184e-07 
       6.238638458458e-01       5.308477217477e-08 
       6.590669257916e-01       3.220362086613e-09 
       7.009246080454e-01       5.701284103086e-09 
       7.528593308799e-01       1.156566243762e-08 
       8.213469537518e-01       2.240519806067e-09 
       9.196980813302e-01       1.886796723652e-11 
       1.075112183810e+00       7.606340633056e-11 
       1.322697471132e+00       1.212180066326e-11 
       1.662328205042e+00       4.502971482410e-12 
       2.092692408506e+00       1.500157196983e-12 
       2.634543445090e+00       3.875363663085e-13 
       3.316693691389e+00       8.725186798984e-14 
       4.175469971226e+00       3.702223585338e-14 
       5.256605252960e+00       3.180592599340e-14 
       6.617673932723e+00       5.777968443209e-15 
       8.331157880872e+00       4.118191186461e-15 
       1.048830636590e+01       5.171789303662e-16 
       1.320399541071e+01       1.617714907293e-16 
       1.662284535976e+01       4.824424723062e-17 
       2.092692243973e+01       1.552465645027e-17 
       2.634543445002e+01       6.107022507726e-18 
       3.316693691389e+01       2.012130922487e-18 
       4.175469971226e+01       6.067639546774e-19 
       5.256605252960e+01       2.097167104879e-19 
       6.617673932723e+01       6.631198795660e-20 
