# Matter power spectrum P(k) at redshift z=0
# for k=1.04775e-05 to 67.6233 h/Mpc,
# number of wavenumbers equal to 246
#    1:k (h/Mpc)              2:P (Mpc/h)^3        
       1.047750691046e-05       5.020964811312e+01 
       1.131335172503e-05       5.407050701930e+01 
       1.221587619537e-05       5.822819068627e+01 
       1.319039970183e-05       6.270562594775e+01 
       1.424266597921e-05       6.752732240880e+01 
       1.537887696968e-05       7.271977206173e+01 
       1.660572937635e-05       7.831147247912e+01 
       1.793045413292e-05       8.433311821988e+01 
       1.936085902198e-05       9.081778249833e+01 
       2.090537469327e-05       9.780108069295e+01 
       2.257310435294e-05       1.053213197893e+02 
       2.437387741694e-05       1.134197377890e+02 
       2.631830744443e-05       1.221408203809e+02 
       2.841785469300e-05       1.315324642460e+02 
       3.068489366414e-05       1.416462094881e+02 
       3.313278603720e-05       1.525374501932e+02 
       3.577595942169e-05       1.642660688414e+02 
       3.862999239199e-05       1.768963506307e+02 
       4.171170630578e-05       1.904975994010e+02 
       4.503926444729e-05       2.051444491974e+02 
       4.863227907969e-05       2.209171465549e+02 
       5.251192703764e-05       2.379022224248e+02 
       5.670107454120e-05       2.561927927519e+02 
       6.122441196689e-05       2.758890444040e+02 
       6.610859936996e-05       2.970989227881e+02 
       7.138242361596e-05       3.199385560802e+02 
       7.707696804727e-05       3.445329783680e+02 
       8.322579568497e-05       3.710167318945e+02 
       8.986514704559e-05       3.995346444203e+02 
       9.703415373875e-05       4.302425407382e+02 
       1.047750691046e-04       4.633080766741e+02 
       1.131335172503e-04       4.989116271564e+02 
       1.221587619537e-04       5.372471950929e+02 
       1.319039970183e-04       5.785234129338e+02 
       1.424266597921e-04       6.229645936044e+02 
       1.537887696968e-04       6.708118490403e+02 
       1.660572937635e-04       7.223242666090e+02 
       1.793045413292e-04       7.777801560648e+02 
       1.936085902198e-04       8.374783614137e+02 
       2.090537469327e-04       9.017396271819e+02 
       2.257310435294e-04       9.709080268036e+02 
       2.437387741694e-04       1.045352449492e+03 
       2.631830744443e-04       1.125468123749e+03 
       2.841785469300e-04       1.211678180493e+03 
       3.068489366414e-04       1.304435250149e+03 
       3.313278603720e-04       1.404223053679e+03 
       3.577595942169e-04       1.511558014614e+03 
       3.862999239199e-04       1.626990837763e+03 
       4.171170630578e-04       1.751108028787e+03 
       4.503926444729e-04       1.884533382868e+03 
       4.863227907969e-04       2.027929378107e+03 
       5.251192703764e-04       2.181998448126e+03 
       5.670107454121e-04       2.347484102746e+03 
       6.122441196689e-04       2.525171871354e+03 
       6.610859936996e-04       2.715889983579e+03 
       7.138242361596e-04       2.920509688368e+03 
       7.707696804727e-04       3.139945100258e+03 
       8.322579568497e-04       3.375152337560e+03 
       8.986514704559e-04       3.627127831107e+03 
       9.703415373875e-04       3.896905453094e+03 
       1.047750691046e-03       4.185552174244e+03 
       1.131335172503e-03       4.494162430307e+03 
       1.221587619537e-03       4.823850706410e+03 
       1.319039970183e-03       5.175742742640e+03 
       1.424266597921e-03       5.551019596794e+03 
       1.537887696968e-03       5.950788340389e+03 
       1.660572937635e-03       6.376123051543e+03 
       1.793045413292e-03       6.828073901173e+03 
       1.936085902198e-03       7.307625380700e+03 
       2.090537469327e-03       7.815671867583e+03 
       2.257310435294e-03       8.352990375226e+03 
       2.437387741694e-03       8.920211063594e+03 
       2.631830744443e-03       9.517783068141e+03 
       2.841785469300e-03       1.014593704312e+04 
       3.068489366414e-03       1.080464502632e+04 
       3.313278603720e-03       1.149357460149e+04 
       3.577595942169e-03       1.221203621472e+04 
       3.862999239199e-03       1.295892539132e+04 
       4.171170630578e-03       1.373266012479e+04 
       4.503926444729e-03       1.453111835129e+04 
       4.863227907969e-03       1.535154967527e+04 
       5.251192703764e-03       1.619063508318e+04 
       5.670107454120e-03       1.704431250793e+04 
       6.122441196689e-03       1.790755999084e+04 
       6.610859936996e-03       1.877460448796e+04 
       7.138242361596e-03       1.963872602183e+04 
       7.707696804727e-03       2.049215684723e+04 
       8.322579568496e-03       2.132611309023e+04 
       8.986514704559e-03       2.213055804162e+04 
       9.703415373875e-03       2.289445659456e+04 
       1.047750691046e-02       2.360548191662e+04 
       1.131335172503e-02       2.425024499393e+04 
       1.221587619537e-02       2.481422835378e+04 
       1.319039970183e-02       2.528219058643e+04 
       1.424266597920e-02       2.563813814166e+04 
       1.537887696964e-02       2.586610061365e+04 
       1.660572937560e-02       2.595026976494e+04 
       1.793045412207e-02       2.587631343877e+04 
       1.936085889642e-02       2.563217594644e+04 
       2.090537351881e-02       2.520927766811e+04 
       2.257309534705e-02       2.460442623626e+04 
       2.437382002240e-02       2.382080053522e+04 
       2.631799943729e-02       2.287038569309e+04 
       2.841644544598e-02       2.177437389711e+04 
       3.067933354524e-02       2.056543056448e+04 
       3.311368469821e-02       1.928732246056e+04 
       3.571840442514e-02       1.799391829399e+04 
       3.847720347390e-02       1.674671174513e+04 
       4.135335537314e-02       1.560451647050e+04 
       4.429361666563e-02       1.461026802491e+04 
       4.724366437916e-02       1.378047808104e+04 
       5.016480834039e-02       1.310497987038e+04 
       5.303989618930e-02       1.255713076777e+04 
       5.586870668205e-02       1.210426265121e+04 
       5.866042679206e-02       1.171466545209e+04 
       6.142798931504e-02       1.136013797021e+04 
       6.418496438662e-02       1.101858719162e+04 
       6.694418832236e-02       1.067066096418e+04 
       6.971731104453e-02       1.030366422475e+04 
       7.251476154108e-02       9.909062977491e+03 
       7.534587669814e-02       9.483616401092e+03 
       7.821907664495e-02       9.029282070828e+03 
       8.114203771084e-02       8.552115887826e+03 
       8.412184533139e-02       8.061919717255e+03 
       8.716512277352e-02       7.570760153430e+03 
       9.027813693913e-02       7.092472465607e+03 
       9.346688429613e-02       6.640522641986e+03 
       9.673716026122e-02       6.226713875701e+03 
       1.000946150608e-01       5.859944997953e+03 
       1.035447986307e-01       5.545246380801e+03 
       1.070931966524e-01       5.283161387910e+03 
       1.107452594180e-01       5.069444309411e+03 
       1.145064248899e-01       4.895278733892e+03 
       1.183821370656e-01       4.747838604375e+03 
       1.223778605591e-01       4.611730486849e+03 
       1.264990921707e-01       4.470605196656e+03 
       1.307513701078e-01       4.310278170902e+03 
       1.351402814485e-01       4.121400101170e+03 
       1.396714683894e-01       3.902053788192e+03 
       1.443506337875e-01       3.658645398751e+03 
       1.491835464900e-01       3.404468143884e+03 
       1.541760469368e-01       3.156637520007e+03 
       1.593340535209e-01       2.931923385913e+03 
       1.646635701934e-01       2.742348379376e+03 
       1.701706958081e-01       2.592232843387e+03 
       1.758616357070e-01       2.477207900916e+03 
       1.817427160581e-01       2.385157890466e+03 
       1.878204014651e-01       2.300338214852e+03 
       1.941013163855e-01       2.205768113409e+03 
       2.005922709060e-01       2.090834882053e+03 
       2.073002914514e-01       1.956455199208e+03 
       2.142326570343e-01       1.814171839947e+03 
       2.213969417044e-01       1.679264915106e+03 
       2.288010639201e-01       1.563836420538e+03 
       2.364533436625e-01       1.472665686547e+03 
       2.443625682390e-01       1.401506079432e+03 
       2.525380678946e-01       1.338405693188e+03 
       2.609898025770e-01       1.270887533073e+03 
       2.697284614969e-01       1.193346336776e+03 
       2.787655775073e-01       1.109321842839e+03 
       2.881136588192e-01       1.028750922299e+03 
       2.977863412019e-01       9.604640151008e+02 
       3.077985646248e-01       9.050044470251e+02 
       3.181667793367e-01       8.561252316979e+02 
       3.289091877084e-01       8.061664600617e+02 
       3.400460298905e-01       7.523684007327e+02 
       3.515999235695e-01       6.988984851212e+02 
       3.635962710278e-01       6.510434765756e+02 
       3.760637505499e-01       6.101043398771e+02 
       3.890349143014e-01       5.721121611847e+02 
       4.025469215929e-01       5.337604635891e+02 
       4.166424455447e-01       4.956074348996e+02 
       4.313708034899e-01       4.604475416258e+02 
       4.467893781976e-01       4.287518992096e+02 
       4.629654198623e-01       3.987507594659e+02 
       4.799783500912e-01       3.692173860686e+02 
       4.979227318246e-01       3.412178056504e+02 
       5.169121269689e-01       3.154588669088e+02 
       5.370841403262e-01       2.908112426633e+02 
       5.586070463286e-01       2.670804910019e+02 
       5.816885093582e-01       2.447831335236e+02 
       6.065870143577e-01       2.235428258323e+02 
       6.336266466978e-01       2.031851755663e+02 
       6.632156057925e-01       1.838531634597e+02 
       6.958678637575e-01       1.653276138770e+02 
       7.322247983784e-01       1.476681466170e+02 
       7.730680193171e-01       1.308060327918e+02 
       8.193049551574e-01       1.148017192864e+02 
       8.718988013754e-01       9.973159405200e+01 
       9.317218028590e-01       8.574507102955e+01 
       9.993660906273e-01       7.302017322008e+01 
       1.075037109879e+00       6.169932889961e+01 
       1.158653485387e+00       5.184046706969e+01 
       1.250099156961e+00       4.339929882188e+01 
       1.349432400897e+00       3.624609945996e+01 
       1.456947456991e+00       3.022211123618e+01 
       1.573135110893e+00       2.516591157606e+01 
       1.698621895119e+00       2.093058543458e+01 
       1.834127512423e+00       1.738787897574e+01 
       1.980444933977e+00       1.442800277162e+01 
       2.138435191130e+00       1.195787945509e+01 
       2.309029198543e+00       9.898655347585e+00 
       2.493232376993e+00       8.183704064216e+00 
       2.692130394536e+00       6.756807441877e+00 
       2.906895533764e+00       5.570559895124e+00 
       3.138793596840e+00       4.585279820115e+00 
       3.389191365541e+00       3.767517443903e+00 
       3.659564656886e+00       3.089283627624e+00 
       3.951507021438e+00       2.527173142024e+00 
       4.266739135513e+00       2.061618150282e+00 
       4.607118942658e+00       1.676309189978e+00 
       4.974652604172e+00       1.357629978211e+00 
       5.371506323193e+00       1.094252945917e+00 
       5.800019112071e+00       8.768235299661e-01 
       6.262716578240e+00       6.975570310586e-01 
       6.762325809881e+00       5.500267537633e-01 
       7.301791449077e+00       4.289282409049e-01 
       7.884293047211e+00       3.298963216329e-01 
       8.513263804891e+00       2.493581752799e-01 
       9.192410806865e+00       1.843569072267e-01 
       9.925736871166e+00       1.324810688536e-01 
       1.071756414128e+01       9.172593835182e-02 
       1.157255956041e+01       6.042014611676e-02 
       1.249576237789e+01       3.713188015666e-02 
       1.349261385000e+01       2.060748110485e-02 
       1.456898931011e+01       9.704008942280e-03 
       1.573123279727e+01       3.341552173214e-03 
       1.698619444729e+01       4.747385099304e-04 
       1.834127086665e+01       8.339167188150e-05 
       1.980444872733e+01       1.190922367990e-03 
       2.138435183937e+01       2.908366721400e-03 
       2.309029197863e+01       4.498567809456e-03 
       2.493232376942e+01       5.447603107976e-03 
       2.692130394533e+01       5.518101772099e-03 
       2.906895533764e+01       4.762801453227e-03 
       3.138793596840e+01       3.472332112168e-03 
       3.389191365541e+01       2.059973892133e-03 
       3.659564656886e+01       9.071403963101e-04 
       3.951507021438e+01       2.264876244020e-04 
       4.266739135513e+01       4.238787517391e-06 
       4.607118942658e+01       5.386516504202e-05 
       4.974652604172e+01       1.516913636178e-04 
       5.371506323193e+01       1.676572006917e-04 
       5.800019112071e+01       1.048128214943e-04 
       6.262716578240e+01       3.430519587938e-05 
       6.762325809881e+01       2.660796310070e-06 
