# Matter power spectrum P(k) at redshift z=0
# for k=1.04775e-05 to 66.1767 h/Mpc,
# number of wavenumbers equal to 130
#    1:k (h/Mpc)              2:P (Mpc/h)^3        
       1.047750691046e-05       5.020964811312e+01 
       1.319039970183e-05       6.270562594785e+01 
       1.660572937635e-05       7.831147247912e+01 
       2.090537469327e-05       9.780108069295e+01 
       2.631830744443e-05       1.221408203809e+02 
       3.313278603720e-05       1.525374501932e+02 
       4.171170630578e-05       1.904975994009e+02 
       5.251192703764e-05       2.379022224249e+02 
       6.610859936996e-05       2.970989227882e+02 
       8.322579568497e-05       3.710167318946e+02 
       1.047750691046e-04       4.633080766742e+02 
       1.319039970183e-04       5.785234129331e+02 
       1.660572937635e-04       7.223242666092e+02 
       2.090537469327e-04       9.017396271824e+02 
       2.631830744443e-04       1.125468123750e+03 
       3.313278603720e-04       1.404223053681e+03 
       4.171170630578e-04       1.751108028789e+03 
       5.251192703764e-04       2.181998448133e+03 
       6.610859936996e-04       2.715889983592e+03 
       8.322579568497e-04       3.375152337134e+03 
       1.047750691046e-03       4.185552174307e+03 
       1.319039970183e-03       5.175742739531e+03 
       1.660572937635e-03       6.376123051777e+03 
       2.090537469327e-03       7.815671859418e+03 
       2.631830744443e-03       9.517783069112e+03 
       3.313278603720e-03       1.149357460346e+04 
       4.171170630578e-03       1.373266010210e+04 
       5.251192703764e-03       1.619063614560e+04 
       6.610859936996e-03       1.877460416747e+04 
       8.322579568497e-03       2.132606792120e+04 
       1.047750691046e-02       2.360548702855e+04 
       1.319039970183e-02       2.528218790020e+04 
       1.660572937633e-02       2.595028381387e+04 
       2.090537453514e-02       2.520934194196e+04 
       2.631818545635e-02       2.287033217635e+04 
       3.311571692125e-02       1.928628277257e+04 
       4.113809243311e-02       1.568423895034e+04 
       4.792590854610e-02       1.361060031926e+04 
       5.284436902701e-02       1.259128644022e+04 
       5.689644391095e-02       1.195553689000e+04 
       6.051252627066e-02       1.147546959090e+04 
       6.388413457411e-02       1.105589279993e+04 
       6.711249296401e-02       1.064900425602e+04 
       7.025823437965e-02       1.022930083709e+04 
       7.336115587705e-02       9.784527922697e+03 
       7.644928796912e-02       9.311663075872e+03 
       7.954353299775e-02       8.814530846502e+03 
       8.266024078725e-02       8.302123776373e+03 
       8.581273398637e-02       7.786962035623e+03 
       8.901225918437e-02       7.283167788498e+03 
       9.226860540985e-02       6.805148959937e+03 
       9.559052048996e-02       6.365631954727e+03 
       9.898599946599e-02       5.974395704472e+03 
       1.024624891378e-01       5.637315054641e+03 
       1.060270359164e-01       5.355774400079e+03 
       1.096863943056e-01       5.126241246950e+03 
       1.134471073830e-01       4.940486546949e+03 
       1.173155669539e-01       4.786169127706e+03 
       1.212980586983e-01       4.647937613273e+03 
       1.254007961065e-01       4.509155236222e+03 
       1.296299459934e-01       4.354557062943e+03 
       1.339916477160e-01       4.173219664594e+03 
       1.384920277736e-01       3.961159795049e+03 
       1.431372111762e-01       3.722683831617e+03 
       1.479333307714e-01       3.469540330653e+03 
       1.528865355934e-01       3.218334231244e+03 
       1.580029992204e-01       2.986291541398e+03 
       1.632889290723e-01       2.786962668142e+03 
       1.687505775527e-01       2.626827773974e+03 
       1.743942559171e-01       2.503754995919e+03 
       1.802263517371e-01       2.407342709357e+03 
       1.862533508214e-01       2.322248475093e+03 
       1.924818644494e-01       2.231554895631e+03 
       1.989186627765e-01       2.122192105261e+03 
       2.055707152847e-01       1.992023495164e+03 
       2.124452391818e-01       1.850326018688e+03 
       2.195497567139e-01       1.712182654033e+03 
       2.268921624510e-01       1.590989893497e+03 
       2.344808017550e-01       1.493667629352e+03 
       2.423245618548e-01       1.418311038735e+03 
       2.504329772620e-01       1.354466284605e+03 
       2.588163516754e-01       1.288934097728e+03 
       2.674858990930e-01       1.213936790888e+03 
       2.764539076010e-01       1.130691026319e+03 
       2.857339303080e-01       1.048100866935e+03 
       2.953410092148e-01       9.761791866142e+02 
       3.052919395542e-01       9.178100115115e+02 
       3.156055844677e-01       8.678962518904e+02 
       3.263032530092e-01       8.185281875930e+02 
       3.374091587054e-01       7.651460806886e+02 
       3.489509817175e-01       7.106715644673e+02 
       3.609605657343e-01       6.607866068440e+02 
       3.734747921333e-01       6.180884548149e+02 
       3.865366902904e-01       5.793105441196e+02 
       4.001968667448e-01       5.403918876896e+02 
       4.145153713076e-01       5.011511966222e+02 
       4.295641718077e-01       4.645007309162e+02 
       4.454304922144e-01       4.314087314098e+02 
       4.622214006969e-01       4.001130535462e+02 
       4.800702491654e-01       3.690890021609e+02 
       4.991459272112e-01       3.394772848364e+02 
       5.196665217302e-01       3.119869182826e+02 
       5.419201087032e-01       2.852470552337e+02 
       5.662975451962e-01       2.593312016155e+02 
       5.933463737275e-01       2.345491885786e+02 
       6.238638458458e-01       2.102303013444e+02 
       6.590669257916e-01       1.864334570059e+02 
       7.009246080454e-01       1.627250881173e+02 
       7.528593308799e-01       1.388182069179e+02 
       8.213469537518e-01       1.141883289669e+02 
       9.196980813302e-01       8.835947533191e+01 
       1.075112183810e+00       6.172631956598e+01 
       1.322697471132e+00       3.804288591589e+01 
       1.662328205042e+00       2.209806902078e+01 
       2.092692408506e+00       1.266925485735e+01 
       2.634543445090e+00       7.203379074770e+00 
       3.316693691389e+00       4.065192458171e+00 
       4.175469971226e+00       2.278622608919e+00 
       5.256605252960e+00       1.269362666719e+00 
       6.617673932723e+00       7.031427883497e-01 
       8.331157880872e+00       3.874790606428e-01 
       1.048830636590e+01       2.125126783172e-01 
       1.320399541071e+01       1.160364491959e-01 
       1.662284535976e+01       6.309923645811e-02 
       2.092692243973e+01       3.417974410444e-02 
       2.634543445002e+01       1.844617677318e-02 
       3.316693691389e+01       9.919190493046e-03 
       4.175469971226e+01       5.314639502784e-03 
       5.256605252960e+01       2.836697688048e-03 
       6.617673932723e+01       1.507680686822e-03 
