# Matter power spectrum P(k) at redshift z=99
# for k=1.04775e-05 to 66.1767 h/Mpc,
# number of wavenumbers equal to 130
#    1:k (h/Mpc)              2:P (Mpc/h)^3        
       1.047750691046e-05       7.261927680919e-03 
       1.319039970183e-05       9.069258201920e-03 
       1.660572937635e-05       1.132639106734e-02 
       2.090537469327e-05       1.414527123410e-02 
       2.631830744443e-05       1.766569584072e-02 
       3.313278603720e-05       2.206225515960e-02 
       4.171170630578e-05       2.755297766298e-02 
       5.251192703764e-05       3.441013522974e-02 
       6.610859936996e-05       4.297372172811e-02 
       8.322579568497e-05       5.366826852986e-02 
       1.047750691046e-04       6.702379872827e-02 
       1.319039970183e-04       8.370193441352e-02 
       1.660572937635e-04       1.045283355392e-01 
       2.090537469327e-04       1.305329134114e-01 
       2.631830744443e-04       1.629994506618e-01 
       3.313278603720e-04       2.035264004617e-01 
       4.171170630578e-04       2.541004744262e-01 
       5.251192703764e-04       3.171839528580e-01 
       6.610859936996e-04       3.958147256541e-01 
       8.322579568497e-04       4.937136006334e-01 
       1.047750691046e-03       6.153841636075e-01 
       1.319039970183e-03       7.661720592355e-01 
       1.660572937635e-03       9.522588016497e-01 
       2.090537469327e-03       1.180312991693e+00 
       2.631830744443e-03       1.456802684659e+00 
       3.313278603720e-03       1.786503853960e+00 
       4.171170630578e-03       2.169896191484e+00 
       5.251192703764e-03       2.599430630076e+00 
       6.610859936996e-03       3.055668706544e+00 
       8.322579568497e-03       3.505725594206e+00 
       1.047750691046e-02       3.905490028912e+00 
       1.319039970183e-02       4.200915291205e+00 
       1.660572937633e-02       4.325062721248e+00 
       2.090537453514e-02       4.210197711231e+00 
       2.631818545635e-02       3.825156480091e+00 
       3.311571692125e-02       3.229060411244e+00 
       4.113809243311e-02       2.627728249732e+00 
       4.792590854610e-02       2.280796508096e+00 
       5.284436902701e-02       2.110089759299e+00 
       5.689644391095e-02       2.003537456828e+00 
       6.051252627066e-02       1.923055452966e+00 
       6.388413457411e-02       1.852727441721e+00 
       6.711249296401e-02       1.784561506516e+00 
       7.025823437965e-02       1.714274233133e+00 
       7.336115587705e-02       1.639809254501e+00 
       7.644928796912e-02       1.560656734059e+00 
       7.954353299775e-02       1.477451117331e+00 
       8.266024078725e-02       1.391691613332e+00 
       8.581273398637e-02       1.305457170556e+00 
       8.901225918437e-02       1.221120843088e+00 
       9.226860540985e-02       1.141075926994e+00 
       9.559052048996e-02       1.067446649132e+00 
       9.898599946599e-02       1.001882694179e+00 
       1.024624891378e-01       9.453762004914e-01 
       1.060270359164e-01       8.981437137950e-01 
       1.096863943056e-01       8.596068016156e-01 
       1.134471073830e-01       8.283981915936e-01 
       1.173155669539e-01       8.024595260501e-01 
       1.212980586983e-01       7.792211561262e-01 
       1.254007961065e-01       7.559094337011e-01 
       1.296299459934e-01       7.299760737725e-01 
       1.339916477160e-01       6.995835554578e-01 
       1.384920277736e-01       6.640701382376e-01 
       1.431372111762e-01       6.241368846738e-01 
       1.479333307714e-01       5.817537912866e-01 
       1.528865355934e-01       5.396836002058e-01 
       1.580029992204e-01       5.008042202807e-01 
       1.632889290723e-01       4.673867354747e-01 
       1.687505775527e-01       4.405236001360e-01 
       1.743942559171e-01       4.198543300632e-01 
       1.802263517371e-01       4.036480458784e-01 
       1.862533508214e-01       3.893474381621e-01 
       1.924818644494e-01       3.741222504445e-01 
       1.989186627765e-01       3.557887551496e-01 
       2.055707152847e-01       3.339840905919e-01 
       2.124452391818e-01       3.102511909781e-01 
       2.195497567139e-01       2.871086251659e-01 
       2.268921624510e-01       2.667934587799e-01 
       2.344808017550e-01       2.504672902998e-01 
       2.423245618548e-01       2.378166334151e-01 
       2.504329772620e-01       2.270944332526e-01 
       2.588163516754e-01       2.160999643860e-01 
       2.674858990930e-01       2.035272404312e-01 
       2.764539076010e-01       1.895791898164e-01 
       2.857339303080e-01       1.757387357414e-01 
       2.953410092148e-01       1.636801260498e-01 
       3.052919395542e-01       1.538865036191e-01 
       3.156055844677e-01       1.455105993116e-01 
       3.263032530092e-01       1.372289042077e-01 
       3.374091587054e-01       1.282802237198e-01 
       3.489509817175e-01       1.191492081375e-01 
       3.609605657343e-01       1.107847134735e-01 
       3.734747921333e-01       1.036222303343e-01 
       3.865366902904e-01       9.711765846923e-02 
       4.001968667448e-01       9.059131472197e-02 
       4.145153713076e-01       8.401206134270e-02 
       4.295641718077e-01       7.786592910632e-02 
       4.454304922144e-01       7.231565958778e-02 
       4.622214006969e-01       6.706710481618e-02 
       4.800702491654e-01       6.186444626125e-02 
       4.991459272112e-01       5.689854811757e-02 
       5.196665217302e-01       5.228753444269e-02 
       5.419201087032e-01       4.780338966414e-02 
       5.662975451962e-01       4.345700554547e-02 
       5.933463737275e-01       3.930035860727e-02 
       6.238638458458e-01       3.522197701807e-02 
       6.590669257916e-01       3.123047254531e-02 
       7.009246080454e-01       2.725396961074e-02 
       7.528593308799e-01       2.324404407363e-02 
       8.213469537518e-01       1.911238133628e-02 
       9.196980813302e-01       1.477946908914e-02 
       1.075112183810e+00       1.031114274404e-02 
       1.322697471132e+00       6.336849974283e-03 
       1.662328205042e+00       3.660259074596e-03 
       2.092692408506e+00       2.076818900029e-03 
       2.634543445090e+00       1.158608600878e-03 
       3.316693691389e+00       6.316413192897e-04 
       4.175469971226e+00       3.325910728319e-04 
       5.256605252960e+00       1.655495937932e-04 
       6.617673932723e+00       7.486934376183e-05 
       8.331157880872e+00       2.846963519593e-05 
       1.048830636590e+01       7.617870001621e-06 
       1.320399541071e+01       7.485846799269e-07 
       1.662284535976e+01       1.175751360160e-07 
       2.092692243973e+01       7.338496489913e-07 
       2.634543445002e+01       5.876499277672e-07 
       3.316693691389e+01       1.148352602286e-07 
       4.175469971226e+01       1.979359554638e-09 
       5.256605252960e+01       1.810390429303e-08 
       6.617673932723e+01       7.594065096565e-10 
