# Matter power spectrum P(k) at redshift z=99
# for k=1.04775e-05 to 66.1767 h/Mpc,
# number of wavenumbers equal to 130
#    1:k (h/Mpc)              2:P (Mpc/h)^3        
       1.047750691046e-05       7.261927680867e-03 
       1.319039970183e-05       9.069258201855e-03 
       1.660572937635e-05       1.132639106726e-02 
       2.090537469327e-05       1.414527123400e-02 
       2.631830744443e-05       1.766569584059e-02 
       3.313278603720e-05       2.206225515944e-02 
       4.171170630578e-05       2.755297766279e-02 
       5.251192703764e-05       3.441013522950e-02 
       6.610859936996e-05       4.297372172781e-02 
       8.322579568497e-05       5.366826852948e-02 
       1.047750691046e-04       6.702379872779e-02 
       1.319039970183e-04       8.370193441291e-02 
       1.660572937635e-04       1.045283355385e-01 
       2.090537469327e-04       1.305329134105e-01 
       2.631830744443e-04       1.629994506607e-01 
       3.313278603720e-04       2.035264004603e-01 
       4.171170630578e-04       2.541004744245e-01 
       5.251192703764e-04       3.171839528559e-01 
       6.610859936996e-04       3.958147256516e-01 
       8.322579568497e-04       4.937136006302e-01 
       1.047750691046e-03       6.153841636044e-01 
       1.319039970183e-03       7.661720592651e-01 
       1.660572937635e-03       9.522588016470e-01 
       2.090537469327e-03       1.180312991698e+00 
       2.631830744443e-03       1.456802684683e+00 
       3.313278603720e-03       1.786503854033e+00 
       4.171170630578e-03       2.169896196571e+00 
       5.251192703764e-03       2.599430630690e+00 
       6.610859936996e-03       3.055668704232e+00 
       8.322579568497e-03       3.505725598284e+00 
       1.047750691046e-02       3.905490991533e+00 
       1.319039970183e-02       4.200915279645e+00 
       1.660572937633e-02       4.325062516067e+00 
       2.090537453514e-02       4.210201808748e+00 
       2.631818545635e-02       3.825148321412e+00 
       3.311571692125e-02       3.229071739455e+00 
       4.113809243311e-02       2.627726943875e+00 
       4.792590854610e-02       2.280794036505e+00 
       5.284436902701e-02       2.110091719471e+00 
       5.689644391095e-02       2.003537667092e+00 
       6.051252627066e-02       1.923055436659e+00 
       6.388413457411e-02       1.852732750677e+00 
       6.711249296401e-02       1.784565537295e+00 
       7.025823437965e-02       1.714274103636e+00 
       7.336115587705e-02       1.639815273484e+00 
       7.644928796912e-02       1.560661356199e+00 
       7.954353299775e-02       1.477454825345e+00 
       8.266024078725e-02       1.391698861984e+00 
       8.581273398637e-02       1.305461847410e+00 
       8.901225918437e-02       1.221124406905e+00 
       9.226860540985e-02       1.141081511463e+00 
       9.559052048996e-02       1.067452379522e+00 
       9.898599946599e-02       1.001891660222e+00 
       1.024624891378e-01       9.453811742031e-01 
       1.060270359164e-01       8.981499452376e-01 
       1.096863943056e-01       8.596124155285e-01 
       1.134471073830e-01       8.284047086690e-01 
       1.173155669539e-01       8.024680738241e-01 
       1.212980586983e-01       7.792282617824e-01 
       1.254007961065e-01       7.559181098606e-01 
       1.296299459934e-01       7.299836711880e-01 
       1.339916477160e-01       6.995929589918e-01 
       1.384920277736e-01       6.640778469324e-01 
       1.431372111762e-01       6.241467226297e-01 
       1.479333307714e-01       5.817649881507e-01 
       1.528865355934e-01       5.396901439576e-01 
       1.580029992204e-01       5.008148542351e-01 
       1.632889290723e-01       4.674009049326e-01 
       1.687505775527e-01       4.405339518883e-01 
       1.743942559171e-01       4.198652264144e-01 
       1.802263517371e-01       4.036590736805e-01 
       1.862533508214e-01       3.893622414653e-01 
       1.924818644494e-01       3.741387220324e-01 
       1.989186627765e-01       3.558061726097e-01 
       2.055707152847e-01       3.340039274079e-01 
       2.124452391818e-01       3.102666529909e-01 
       2.195497567139e-01       2.871219140516e-01 
       2.268921624510e-01       2.668079646869e-01 
       2.344808017550e-01       2.504832590631e-01 
       2.423245618548e-01       2.378330994161e-01 
       2.504329772620e-01       2.271115319441e-01 
       2.588163516754e-01       2.161192362846e-01 
       2.674858990930e-01       2.035477014582e-01 
       2.764539076010e-01       1.895978480459e-01 
       2.857339303080e-01       1.757572756618e-01 
       2.953410092148e-01       1.636985132567e-01 
       3.052919395542e-01       1.539061901523e-01 
       3.156055844677e-01       1.455308894778e-01 
       3.263032530092e-01       1.372507154223e-01 
       3.374091587054e-01       1.283015851932e-01 
       3.489509817175e-01       1.191713089947e-01 
       3.609605657343e-01       1.108071240915e-01 
       3.734747921333e-01       1.036448957270e-01 
       3.865366902904e-01       9.714111190340e-02 
       4.001968667448e-01       9.061533690016e-02 
       4.145153713076e-01       8.403716966416e-02 
       4.295641718077e-01       7.789100271268e-02 
       4.454304922144e-01       7.234169079029e-02 
       4.622214006969e-01       6.709374205885e-02 
       4.800702491654e-01       6.189193708940e-02 
       4.991459272112e-01       5.692636026006e-02 
       5.196665217302e-01       5.231607684244e-02 
       5.419201087032e-01       4.783263279971e-02 
       5.662975451962e-01       4.348693751296e-02 
       5.933463737275e-01       3.933097933742e-02 
       6.238638458458e-01       3.525340085008e-02 
       6.590669257916e-01       3.126282259426e-02 
       7.009246080454e-01       2.728720923641e-02 
       7.528593308799e-01       2.327840796437e-02 
       8.213469537518e-01       1.914819539736e-02 
       9.196980813302e-01       1.481692577541e-02 
       1.075112183810e+00       1.035082661508e-02 
       1.322697471132e+00       6.379397725559e-03 
       1.662328205042e+00       3.705591037764e-03 
       2.092692408506e+00       2.124460464166e-03 
       2.634543445090e+00       1.207881527343e-03 
       3.316693691389e+00       6.816256549400e-04 
       4.175469971226e+00       3.820331817330e-04 
       5.256605252960e+00       2.127811301019e-04 
       6.617673932723e+00       1.178211400373e-04 
       8.331157880872e+00       6.487916405256e-05 
       1.048830636590e+01       3.552772179939e-05 
       1.320399541071e+01       1.933768327913e-05 
       1.662284535976e+01       1.044704341959e-05 
       2.092692243973e+01       5.583550246608e-06 
       2.634543445002e+01       2.931832333579e-06 
       3.316693691389e+01       1.491222804758e-06 
       4.175469971226e+01       7.142343589337e-07 
       5.256605252960e+01       3.040958849839e-07 
       6.617673932723e+01       1.012807662997e-07 
