# Matter power spectrum P(k) at redshift z=99
# for k=1.04775e-05 to 66.1767 h/Mpc,
# number of wavenumbers equal to 130
#    1:k (h/Mpc)              2:P (Mpc/h)^3        
       1.047750691046e-05       7.261927680880e-03 
       1.319039970183e-05       9.069258201872e-03 
       1.660572937635e-05       1.132639106728e-02 
       2.090537469327e-05       1.414527123403e-02 
       2.631830744443e-05       1.766569584062e-02 
       3.313278603720e-05       2.206225515948e-02 
       4.171170630578e-05       2.755297766284e-02 
       5.251192703764e-05       3.441013522956e-02 
       6.610859936996e-05       4.297372172789e-02 
       8.322579568497e-05       5.366826852958e-02 
       1.047750691046e-04       6.702379872791e-02 
       1.319039970183e-04       8.370193441307e-02 
       1.660572937635e-04       1.045283355387e-01 
       2.090537469327e-04       1.305329134107e-01 
       2.631830744443e-04       1.629994506610e-01 
       3.313278603720e-04       2.035264004606e-01 
       4.171170630578e-04       2.541004744249e-01 
       5.251192703764e-04       3.171839528565e-01 
       6.610859936996e-04       3.958147256522e-01 
       8.322579568497e-04       4.937136006275e-01 
       1.047750691046e-03       6.153841636050e-01 
       1.319039970183e-03       7.661720592317e-01 
       1.660572937635e-03       9.522588016456e-01 
       2.090537469327e-03       1.180312991696e+00 
       2.631830744443e-03       1.456802684676e+00 
       3.313278603720e-03       1.786503854012e+00 
       4.171170630578e-03       2.169896195183e+00 
       5.251192703764e-03       2.599430630613e+00 
       6.610859936996e-03       3.055668713522e+00 
       8.322579568497e-03       3.505725128856e+00 
       1.047750691046e-02       3.905490737033e+00 
       1.319039970183e-02       4.200915329918e+00 
       1.660572937633e-02       4.325061366670e+00 
       2.090537453514e-02       4.210198818889e+00 
       2.631818545635e-02       3.825155523876e+00 
       3.311571692125e-02       3.229061022156e+00 
       4.113809243311e-02       2.627728660843e+00 
       4.792590854610e-02       2.280799207104e+00 
       5.284436902701e-02       2.110085797622e+00 
       5.689644391095e-02       2.003538929083e+00 
       6.051252627066e-02       1.923058509708e+00 
       6.388413457411e-02       1.852734972920e+00 
       6.711249296401e-02       1.784564644097e+00 
       7.025823437965e-02       1.714281817333e+00 
       7.336115587705e-02       1.639817985665e+00 
       7.644928796912e-02       1.560663059909e+00 
       7.954353299775e-02       1.477459095783e+00 
       8.266024078725e-02       1.391699316715e+00 
       8.581273398637e-02       1.305461560954e+00 
       8.901225918437e-02       1.221122562333e+00 
       9.226860540985e-02       1.141078286159e+00 
       9.559052048996e-02       1.067451432769e+00 
       9.898599946599e-02       1.001893125193e+00 
       1.024624891378e-01       9.453820920557e-01 
       1.060270359164e-01       8.981472703986e-01 
       1.096863943056e-01       8.596118457916e-01 
       1.134471073830e-01       8.284058445983e-01 
       1.173155669539e-01       8.024688080622e-01 
       1.212980586983e-01       7.792270591439e-01 
       1.254007961065e-01       7.559186373193e-01 
       1.296299459934e-01       7.299841272269e-01 
       1.339916477160e-01       6.995949118019e-01 
       1.384920277736e-01       6.640794895188e-01 
       1.431372111762e-01       6.241486209920e-01 
       1.479333307714e-01       5.817645516286e-01 
       1.528865355934e-01       5.396910300751e-01 
       1.580029992204e-01       5.008126302008e-01 
       1.632889290723e-01       4.673982830286e-01 
       1.687505775527e-01       4.405344032338e-01 
       1.743942559171e-01       4.198650974740e-01 
       1.802263517371e-01       4.036588990763e-01 
       1.862533508214e-01       3.893616789620e-01 
       1.924818644494e-01       3.741386608787e-01 
       1.989186627765e-01       3.558073654426e-01 
       2.055707152847e-01       3.340017872630e-01 
       2.124452391818e-01       3.102656488255e-01 
       2.195497567139e-01       2.871221578117e-01 
       2.268921624510e-01       2.668076141303e-01 
       2.344808017550e-01       2.504829597803e-01 
       2.423245618548e-01       2.378334970837e-01 
       2.504329772620e-01       2.271112503850e-01 
       2.588163516754e-01       2.161193046151e-01 
       2.674858990930e-01       2.035469650261e-01 
       2.764539076010e-01       1.895974484806e-01 
       2.857339303080e-01       1.757570618394e-01 
       2.953410092148e-01       1.636996153230e-01 
       3.052919395542e-01       1.539059623031e-01 
       3.156055844677e-01       1.455307844888e-01 
       3.263032530092e-01       1.372498982738e-01 
       3.374091587054e-01       1.283015576539e-01 
       3.489509817175e-01       1.191710304935e-01 
       3.609605657343e-01       1.108070118812e-01 
       3.734747921333e-01       1.036446932747e-01 
       3.865366902904e-01       9.714114339404e-02 
       4.001968667448e-01       9.061529564271e-02 
       4.145153713076e-01       8.403657848926e-02 
       4.295641718077e-01       7.789089100070e-02 
       4.454304922144e-01       7.234168310149e-02 
       4.622214006969e-01       6.709351391187e-02 
       4.800702491654e-01       6.189166323726e-02 
       4.991459272112e-01       5.692626508562e-02 
       5.196665217302e-01       5.231604111885e-02 
       5.419201087032e-01       4.783239464590e-02 
       5.662975451962e-01       4.348676255859e-02 
       5.933463737275e-01       3.933094270101e-02 
       6.238638458458e-01       3.525322175321e-02 
       6.590669257916e-01       3.126266105213e-02 
       7.009246080454e-01       2.728712291581e-02 
       7.528593308799e-01       2.327828270700e-02 
       8.213469537518e-01       1.914807558345e-02 
       9.196980813302e-01       1.481681582666e-02 
       1.075112183810e+00       1.035068280557e-02 
       1.322697471132e+00       6.379254404710e-03 
       1.662328205042e+00       3.705459279802e-03 
       2.092692408506e+00       2.124322772720e-03 
       2.634543445090e+00       1.207745739793e-03 
       3.316693691389e+00       6.815033262130e-04 
       4.175469971226e+00       3.819188604465e-04 
       5.256605252960e+00       2.126794087377e-04 
       6.617673932723e+00       1.177367890215e-04 
       8.331157880872e+00       6.480982227675e-05 
       1.048830636590e+01       3.547685995884e-05 
       1.320399541071e+01       1.930688776367e-05 
       1.662284535976e+01       1.043726650742e-05 
       2.092692243973e+01       5.595219049983e-06 
       2.634543445002e+01       2.964196973036e-06 
       3.316693691389e+01       1.541833766600e-06 
       4.175469971226e+01       7.778231313183e-07 
       5.256605252960e+01       3.719628659753e-07 
       6.617673932723e+01       1.614372837073e-07 
