# Matter power spectrum P(k) at redshift z=99
# for k=1.04775e-05 to 66.1767 h/Mpc,
# number of wavenumbers equal to 130
#    1:k (h/Mpc)              2:P (Mpc/h)^3        
       1.047750691046e-05       7.261927680862e-03 
       1.319039970183e-05       9.069258201849e-03 
       1.660572937635e-05       1.132639106725e-02 
       2.090537469327e-05       1.414527123399e-02 
       2.631830744443e-05       1.766569584058e-02 
       3.313278603720e-05       2.206225515942e-02 
       4.171170630578e-05       2.755297766277e-02 
       5.251192703764e-05       3.441013522947e-02 
       6.610859936996e-05       4.297372172778e-02 
       8.322579568497e-05       5.366826852944e-02 
       1.047750691046e-04       6.702379872775e-02 
       1.319039970183e-04       8.370193441286e-02 
       1.660572937635e-04       1.045283355384e-01 
       2.090537469327e-04       1.305329134104e-01 
       2.631830744443e-04       1.629994506605e-01 
       3.313278603720e-04       2.035264004601e-01 
       4.171170630578e-04       2.541004744243e-01 
       5.251192703764e-04       3.171839528557e-01 
       6.610859936996e-04       3.958147256513e-01 
       8.322579568497e-04       4.937136006263e-01 
       1.047750691046e-03       6.153841636042e-01 
       1.319039970183e-03       7.661720592663e-01 
       1.660572937635e-03       9.522588016473e-01 
       2.090537469327e-03       1.180312991698e+00 
       2.631830744443e-03       1.456802684686e+00 
       3.313278603720e-03       1.786503854037e+00 
       4.171170630578e-03       2.169896162102e+00 
       5.251192703764e-03       2.599430630720e+00 
       6.610859936996e-03       3.055668707195e+00 
       8.322579568497e-03       3.505725387240e+00 
       1.047750691046e-02       3.905491012837e+00 
       1.319039970183e-02       4.200915344494e+00 
       1.660572937633e-02       4.325061090292e+00 
       2.090537453514e-02       4.210202422873e+00 
       2.631818545635e-02       3.825150018568e+00 
       3.311571692125e-02       3.229067067165e+00 
       4.113809243311e-02       2.627720902380e+00 
       4.792590854610e-02       2.280814830016e+00 
       5.284436902701e-02       2.110089851737e+00 
       5.689644391095e-02       2.003540699306e+00 
       6.051252627066e-02       1.923057554588e+00 
       6.388413457411e-02       1.852732942899e+00 
       6.711249296401e-02       1.784563974537e+00 
       7.025823437965e-02       1.714275513419e+00 
       7.336115587705e-02       1.639814384549e+00 
       7.644928796912e-02       1.560665247421e+00 
       7.954353299775e-02       1.477457450780e+00 
       8.266024078725e-02       1.391698442081e+00 
       8.581273398637e-02       1.305462905403e+00 
       8.901225918437e-02       1.221125418486e+00 
       9.226860540985e-02       1.141081739795e+00 
       9.559052048996e-02       1.067455556837e+00 
       9.898599946599e-02       1.001888967163e+00 
       1.024624891378e-01       9.453827975036e-01 
       1.060270359164e-01       8.981499228489e-01 
       1.096863943056e-01       8.596140249186e-01 
       1.134471073830e-01       8.284056688347e-01 
       1.173155669539e-01       8.024662248624e-01 
       1.212980586983e-01       7.792267746258e-01 
       1.254007961065e-01       7.559177337497e-01 
       1.296299459934e-01       7.299816907261e-01 
       1.339916477160e-01       6.995943430277e-01 
       1.384920277736e-01       6.640776657185e-01 
       1.431372111762e-01       6.241453645308e-01 
       1.479333307714e-01       5.817636795739e-01 
       1.528865355934e-01       5.396931268984e-01 
       1.580029992204e-01       5.008134369324e-01 
       1.632889290723e-01       4.673986795943e-01 
       1.687505775527e-01       4.405346937470e-01 
       1.743942559171e-01       4.198661222757e-01 
       1.802263517371e-01       4.036597694232e-01 
       1.862533508214e-01       3.893590465387e-01 
       1.924818644494e-01       3.741355707105e-01 
       1.989186627765e-01       3.558024910743e-01 
       2.055707152847e-01       3.340006384672e-01 
       2.124452391818e-01       3.102663907775e-01 
       2.195497567139e-01       2.871225865079e-01 
       2.268921624510e-01       2.668084653698e-01 
       2.344808017550e-01       2.504835152046e-01 
       2.423245618548e-01       2.378337165482e-01 
       2.504329772620e-01       2.271119445460e-01 
       2.588163516754e-01       2.161178997721e-01 
       2.674858990930e-01       2.035454666884e-01 
       2.764539076010e-01       1.895981519290e-01 
       2.857339303080e-01       1.757568870397e-01 
       2.953410092148e-01       1.636994552364e-01 
       3.052919395542e-01       1.539063967121e-01 
       3.156055844677e-01       1.455307880118e-01 
       3.263032530092e-01       1.372506494419e-01 
       3.374091587054e-01       1.283022392202e-01 
       3.489509817175e-01       1.191713621337e-01 
       3.609605657343e-01       1.108074203646e-01 
       3.734747921333e-01       1.036450706394e-01 
       3.865366902904e-01       9.714154149746e-02 
       4.001968667448e-01       9.061534561684e-02 
       4.145153713076e-01       8.403722053856e-02 
       4.295641718077e-01       7.789111560123e-02 
       4.454304922144e-01       7.234179205651e-02 
       4.622214006969e-01       6.709380525622e-02 
       4.800702491654e-01       6.189191984181e-02 
       4.991459272112e-01       5.692630391238e-02 
       5.196665217302e-01       5.231611262549e-02 
       5.419201087032e-01       4.783256136802e-02 
       5.662975451962e-01       4.348695470987e-02 
       5.933463737275e-01       3.933117211227e-02 
       6.238638458458e-01       3.525331069677e-02 
       6.590669257916e-01       3.126298068394e-02 
       7.009246080454e-01       2.728726601464e-02 
       7.528593308799e-01       2.327840231684e-02 
       8.213469537518e-01       1.914822944048e-02 
       9.196980813302e-01       1.481701337581e-02 
       1.075112183810e+00       1.035091581299e-02 
       1.322697471132e+00       6.379466535803e-03 
       1.662328205042e+00       3.705671283720e-03 
       2.092692408506e+00       2.124540734279e-03 
       2.634543445090e+00       1.207958496655e-03 
       3.316693691389e+00       6.817088850842e-04 
       4.175469971226e+00       3.821187423974e-04 
       5.256605252960e+00       2.128711552437e-04 
       6.617673932723e+00       1.179187678752e-04 
       8.331157880872e+00       6.498360175579e-05 
       1.048830636590e+01       3.564157977347e-05 
       1.320399541071e+01       1.946241344868e-05 
       1.662284535976e+01       1.058433886575e-05 
       2.092692243973e+01       5.734090738703e-06 
       2.634543445002e+01       3.095102597619e-06 
       3.316693691389e+01       1.664734176178e-06 
       4.175469971226e+01       8.921972876298e-07 
       5.256605252960e+01       4.763588269139e-07 
       6.617673932723e+01       2.532442664866e-07 
