# Matter power spectrum P(k) at redshift z=0
# for k=1.04775e-05 to 66.1767 h/Mpc,
# number of wavenumbers equal to 130
#    1:k (h/Mpc)              2:P (Mpc/h)^3        
       1.047750691046e-05       5.020964811307e+01 
       1.319039970183e-05       6.270562594784e+01 
       1.660572937635e-05       7.831147247912e+01 
       2.090537469327e-05       9.780108069296e+01 
       2.631830744443e-05       1.221408203809e+02 
       3.313278603720e-05       1.525374501932e+02 
       4.171170630578e-05       1.904975994010e+02 
       5.251192703764e-05       2.379022224249e+02 
       6.610859936996e-05       2.970989227881e+02 
       8.322579568497e-05       3.710167318946e+02 
       1.047750691046e-04       4.633080766742e+02 
       1.319039970183e-04       5.785234129342e+02 
       1.660572937635e-04       7.223242666092e+02 
       2.090537469327e-04       9.017396271824e+02 
       2.631830744443e-04       1.125468123749e+03 
       3.313278603720e-04       1.404223053681e+03 
       4.171170630578e-04       1.751108028790e+03 
       5.251192703764e-04       2.181998448133e+03 
       6.610859936996e-04       2.715889983592e+03 
       8.322579568497e-04       3.375152337135e+03 
       1.047750691046e-03       4.185552174311e+03 
       1.319039970183e-03       5.175742740636e+03 
       1.660572937635e-03       6.376123051778e+03 
       2.090537469327e-03       7.815671904576e+03 
       2.631830744443e-03       9.517783069112e+03 
       3.313278603720e-03       1.149357460344e+04 
       4.171170630578e-03       1.373266009075e+04 
       5.251192703764e-03       1.619063614548e+04 
       6.610859936996e-03       1.877460424459e+04 
       8.322579568497e-03       2.132607231874e+04 
       1.047750691046e-02       2.360548551778e+04 
       1.319039970183e-02       2.528218937296e+04 
       1.660572937633e-02       2.595026417311e+04 
       2.090537453514e-02       2.520936237932e+04 
       2.631818545635e-02       2.287033830809e+04 
       3.311571692125e-02       1.928627296996e+04 
       4.113809243311e-02       1.568430468476e+04 
       4.792590854610e-02       1.361063024701e+04 
       5.284436902701e-02       1.259127215065e+04 
       5.689644391095e-02       1.195554505680e+04 
       6.051252627066e-02       1.147547173530e+04 
       6.388413457411e-02       1.105589335783e+04 
       6.711249296401e-02       1.064900548818e+04 
       7.025823437965e-02       1.022925896548e+04 
       7.336115587705e-02       9.784520399080e+03 
       7.644928796912e-02       9.311657413317e+03 
       7.954353299775e-02       8.814548013327e+03 
       8.266024078725e-02       8.302088588460e+03 
       8.581273398637e-02       7.786947972308e+03 
       8.901225918437e-02       7.283117477197e+03 
       9.226860540985e-02       6.805149768299e+03 
       9.559052048996e-02       6.365587160321e+03 
       9.898599946599e-02       5.974348354163e+03 
       1.024624891378e-01       5.637344119377e+03 
       1.060270359164e-01       5.355750082651e+03 
       1.096863943056e-01       5.126230467594e+03 
       1.134471073830e-01       4.940478884039e+03 
       1.173155669539e-01       4.786152691324e+03 
       1.212980586983e-01       4.647927650030e+03 
       1.254007961065e-01       4.509143566077e+03 
       1.296299459934e-01       4.354555164482e+03 
       1.339916477160e-01       4.173223520485e+03 
       1.384920277736e-01       3.961178729457e+03 
       1.431372111762e-01       3.722687061452e+03 
       1.479333307714e-01       3.469549014840e+03 
       1.528865355934e-01       3.218334616971e+03 
       1.580029992204e-01       2.986293009026e+03 
       1.632889290723e-01       2.786964582640e+03 
       1.687505775527e-01       2.626827359930e+03 
       1.743942559171e-01       2.503751579084e+03 
       1.802263517371e-01       2.407349882152e+03 
       1.862533508214e-01       2.322251297258e+03 
       1.924818644494e-01       2.231551240264e+03 
       1.989186627765e-01       2.122187362877e+03 
       2.055707152847e-01       1.992020283997e+03 
       2.124452391818e-01       1.850319946621e+03 
       2.195497567139e-01       1.712181264763e+03 
       2.268921624510e-01       1.590989136313e+03 
       2.344808017550e-01       1.493668621060e+03 
       2.423245618548e-01       1.418307687048e+03 
       2.504329772620e-01       1.354467258096e+03 
       2.588163516754e-01       1.288935504947e+03 
       2.674858990930e-01       1.213936224879e+03 
       2.764539076010e-01       1.130693875907e+03 
       2.857339303080e-01       1.048099458466e+03 
       2.953410092148e-01       9.761831970589e+02 
       3.052919395542e-01       9.178120142672e+02 
       3.156055844677e-01       8.678975917673e+02 
       3.263032530092e-01       8.185263891910e+02 
       3.374091587054e-01       7.651460167133e+02 
       3.489509817175e-01       7.106710557755e+02 
       3.609605657343e-01       6.607856148238e+02 
       3.734747921333e-01       6.180856188966e+02 
       3.865366902904e-01       5.793101934188e+02 
       4.001968667448e-01       5.403892836046e+02 
       4.145153713076e-01       5.011517778674e+02 
       4.295641718077e-01       4.644990546337e+02 
       4.454304922144e-01       4.314078336940e+02 
       4.622214006969e-01       4.001130784499e+02 
       4.800702491654e-01       3.690888393342e+02 
       4.991459272112e-01       3.394752655313e+02 
       5.196665217302e-01       3.119843284414e+02 
       5.419201087032e-01       2.852469093503e+02 
       5.662975451962e-01       2.593303726454e+02 
       5.933463737275e-01       2.345479862420e+02 
       6.238638458458e-01       2.102302754356e+02 
       6.590669257916e-01       1.864334539911e+02 
       7.009246080454e-01       1.627252908538e+02 
       7.528593308799e-01       1.388186928995e+02 
       8.213469537518e-01       1.141877203244e+02 
       9.196980813302e-01       8.835898527156e+01 
       1.075112183810e+00       6.172571167677e+01 
       1.322697471132e+00       3.804251902802e+01 
       1.662328205042e+00       2.209792981672e+01 
       2.092692408506e+00       1.266913703668e+01 
       2.634543445090e+00       7.203310197575e+00 
       3.316693691389e+00       4.065106908478e+00 
       4.175469971226e+00       2.278614407646e+00 
       5.256605252960e+00       1.269340802047e+00 
       6.617673932723e+00       7.031336740740e-01 
       8.331157880872e+00       3.874755964307e-01 
       1.048830636590e+01       2.125089472981e-01 
       1.320399541071e+01       1.160365769183e-01 
       1.662284535976e+01       6.309825201907e-02 
       2.092692243973e+01       3.417872987911e-02 
       2.634543445002e+01       1.844519834823e-02 
       3.316693691389e+01       9.918527995161e-03 
       4.175469971226e+01       5.313954744936e-03 
       5.256605252960e+01       2.836080566874e-03 
       6.617673932723e+01       1.507173231673e-03 
