# Matter power spectrum P(k) at redshift z=0
# for k=1.04775e-05 to 66.1767 h/Mpc,
# number of wavenumbers equal to 130
#    1:k (h/Mpc)              2:P (Mpc/h)^3        
       1.047750691046e-05       5.020964811306e+01 
       1.319039970183e-05       6.270562594765e+01 
       1.660572937635e-05       7.831147247912e+01 
       2.090537469327e-05       9.780108069295e+01 
       2.631830744443e-05       1.221408203809e+02 
       3.313278603720e-05       1.525374501932e+02 
       4.171170630578e-05       1.904975994009e+02 
       5.251192703764e-05       2.379022224249e+02 
       6.610859936996e-05       2.970989227882e+02 
       8.322579568497e-05       3.710167318946e+02 
       1.047750691046e-04       4.633080766742e+02 
       1.319039970183e-04       5.785234129329e+02 
       1.660572937635e-04       7.223242666092e+02 
       2.090537469327e-04       9.017396271824e+02 
       2.631830744443e-04       1.125468123750e+03 
       3.313278603720e-04       1.404223053681e+03 
       4.171170630578e-04       1.751108028790e+03 
       5.251192703764e-04       2.181998448133e+03 
       6.610859936996e-04       2.715889983592e+03 
       8.322579568497e-04       3.375152337134e+03 
       1.047750691046e-03       4.185552174294e+03 
       1.319039970183e-03       5.175742742779e+03 
       1.660572937635e-03       6.376123051748e+03 
       2.090537469327e-03       7.815671868427e+03 
       2.631830744443e-03       9.517783069097e+03 
       3.313278603720e-03       1.149357460343e+04 
       4.171170630578e-03       1.373266009487e+04 
       5.251192703764e-03       1.619063612942e+04 
       6.610859936996e-03       1.877460414021e+04 
       8.322579568497e-03       2.132607244709e+04 
       1.047750691046e-02       2.360547994293e+04 
       1.319039970183e-02       2.528218762094e+04 
       1.660572937633e-02       2.595028824032e+04 
       2.090537453514e-02       2.520936936888e+04 
       2.631818545635e-02       2.287036470678e+04 
       3.311571692125e-02       1.928630350092e+04 
       4.113809243311e-02       1.568423126649e+04 
       4.792590854610e-02       1.361060103693e+04 
       5.284436902701e-02       1.259129777106e+04 
       5.689644391095e-02       1.195558693111e+04 
       6.051252627066e-02       1.147552344284e+04 
       6.388413457411e-02       1.105596144161e+04 
       6.711249296401e-02       1.064904404460e+04 
       7.025823437965e-02       1.022933978371e+04 
       7.336115587705e-02       9.784572399021e+03 
       7.644928796912e-02       9.311662300397e+03 
       7.954353299775e-02       8.814611183875e+03 
       8.266024078725e-02       8.302213263541e+03 
       8.581273398637e-02       7.787001751203e+03 
       8.901225918437e-02       7.283238210550e+03 
       9.226860540985e-02       6.805197967547e+03 
       9.559052048996e-02       6.365659103364e+03 
       9.898599946599e-02       5.974425260972e+03 
       1.024624891378e-01       5.637366320327e+03 
       1.060270359164e-01       5.355786275724e+03 
       1.096863943056e-01       5.126243466783e+03 
       1.134471073830e-01       4.940504720875e+03 
       1.173155669539e-01       4.786178339559e+03 
       1.212980586983e-01       4.647938349974e+03 
       1.254007961065e-01       4.509151683692e+03 
       1.296299459934e-01       4.354489838860e+03 
       1.339916477160e-01       4.173171664663e+03 
       1.384920277736e-01       3.961180509258e+03 
       1.431372111762e-01       3.722686012917e+03 
       1.479333307714e-01       3.469572057034e+03 
       1.528865355934e-01       3.218324010109e+03 
       1.580029992204e-01       2.986255788412e+03 
       1.632889290723e-01       2.786949569581e+03 
       1.687505775527e-01       2.626805106440e+03 
       1.743942559171e-01       2.503759272624e+03 
       1.802263517371e-01       2.407309369920e+03 
       1.862533508214e-01       2.322255379258e+03 
       1.924818644494e-01       2.231543426904e+03 
       1.989186627765e-01       2.122170243708e+03 
       2.055707152847e-01       1.992056781825e+03 
       2.124452391818e-01       1.850319434336e+03 
       2.195497567139e-01       1.712162642824e+03 
       2.268921624510e-01       1.590972240124e+03 
       2.344808017550e-01       1.493654784634e+03 
       2.423245618548e-01       1.418305945609e+03 
       2.504329772620e-01       1.354447862500e+03 
       2.588163516754e-01       1.288932289683e+03 
       2.674858990930e-01       1.213936507297e+03 
       2.764539076010e-01       1.130685783612e+03 
       2.857339303080e-01       1.048084449768e+03 
       2.953410092148e-01       9.761735669618e+02 
       3.052919395542e-01       9.178046135346e+02 
       3.156055844677e-01       8.678839220735e+02 
       3.263032530092e-01       8.185221862000e+02 
       3.374091587054e-01       7.651383411622e+02 
       3.489509817175e-01       7.106602051601e+02 
       3.609605657343e-01       6.607760856751e+02 
       3.734747921333e-01       6.180818237702e+02 
       3.865366902904e-01       5.793010682642e+02 
       4.001968667448e-01       5.403821848337e+02 
       4.145153713076e-01       5.011419344859e+02 
       4.295641718077e-01       4.644947603229e+02 
       4.454304922144e-01       4.314017494255e+02 
       4.622214006969e-01       4.001098351559e+02 
       4.800702491654e-01       3.690829648247e+02 
       4.991459272112e-01       3.394711979022e+02 
       5.196665217302e-01       3.119805671097e+02 
       5.419201087032e-01       2.852418859934e+02 
       5.662975451962e-01       2.593261691977e+02 
       5.933463737275e-01       2.345437581662e+02 
       6.238638458458e-01       2.102288713467e+02 
       6.590669257916e-01       1.864316639488e+02 
       7.009246080454e-01       1.627238108630e+02 
       7.528593308799e-01       1.388175610160e+02 
       8.213469537518e-01       1.141876532154e+02 
       9.196980813302e-01       8.835820993396e+01 
       1.075112183810e+00       6.172569826287e+01 
       1.322697471132e+00       3.804268718091e+01 
       1.662328205042e+00       2.209762357171e+01 
       2.092692408506e+00       1.266887996964e+01 
       2.634543445090e+00       7.203035373863e+00 
       3.316693691389e+00       4.064927660323e+00 
       4.175469971226e+00       2.278401997783e+00 
       5.256605252960e+00       1.269137795709e+00 
       6.617673932723e+00       7.029363779338e-01 
       8.331157880872e+00       3.872826716373e-01 
       1.048830636590e+01       2.123180063234e-01 
       1.320399541071e+01       1.158441864655e-01 
       1.662284535976e+01       6.290711835283e-02 
       2.092692243973e+01       3.398539368906e-02 
       2.634543445002e+01       1.824776673652e-02 
       3.316693691389e+01       9.715322039404e-03 
       4.175469971226e+01       5.104912476070e-03 
       5.256605252960e+01       2.622426122030e-03 
       6.617673932723e+01       1.292790292612e-03 
