# Matter power spectrum P(k) at redshift z=0
# for k=1.04775e-05 to 66.1767 h/Mpc,
# number of wavenumbers equal to 130
#    1:k (h/Mpc)              2:P (Mpc/h)^3        
       1.047750691046e-05       5.020964811308e+01 
       1.319039970183e-05       6.270562594774e+01 
       1.660572937635e-05       7.831147247912e+01 
       2.090537469327e-05       9.780108069296e+01 
       2.631830744443e-05       1.221408203809e+02 
       3.313278603720e-05       1.525374501932e+02 
       4.171170630578e-05       1.904975994010e+02 
       5.251192703764e-05       2.379022224249e+02 
       6.610859936996e-05       2.970989227881e+02 
       8.322579568497e-05       3.710167318946e+02 
       1.047750691046e-04       4.633080766742e+02 
       1.319039970183e-04       5.785234129335e+02 
       1.660572937635e-04       7.223242666092e+02 
       2.090537469327e-04       9.017396271824e+02 
       2.631830744443e-04       1.125468123750e+03 
       3.313278603720e-04       1.404223053681e+03 
       4.171170630578e-04       1.751108028790e+03 
       5.251192703764e-04       2.181998448133e+03 
       6.610859936996e-04       2.715889983592e+03 
       8.322579568497e-04       3.375152337134e+03 
       1.047750691046e-03       4.185552174307e+03 
       1.319039970183e-03       5.175742744061e+03 
       1.660572937635e-03       6.376123051779e+03 
       2.090537469327e-03       7.815671868414e+03 
       2.631830744443e-03       9.517783069112e+03 
       3.313278603720e-03       1.149357460342e+04 
       4.171170630578e-03       1.373266010875e+04 
       5.251192703764e-03       1.619063614556e+04 
       6.610859936996e-03       1.877460406423e+04 
       8.322579568497e-03       2.132607231964e+04 
       1.047750691046e-02       2.360549364957e+04 
       1.319039970183e-02       2.528218770350e+04 
       1.660572937633e-02       2.595028374305e+04 
       2.090537453514e-02       2.520933830572e+04 
       2.631818545635e-02       2.287036719592e+04 
       3.311571692125e-02       1.928624742182e+04 
       4.113809243311e-02       1.568425857529e+04 
       4.792590854610e-02       1.361060304396e+04 
       5.284436902701e-02       1.259128711802e+04 
       5.689644391095e-02       1.195555117050e+04 
       6.051252627066e-02       1.147546867113e+04 
       6.388413457411e-02       1.105591165572e+04 
       6.711249296401e-02       1.064899457948e+04 
       7.025823437965e-02       1.022928118820e+04 
       7.336115587705e-02       9.784519321733e+03 
       7.644928796912e-02       9.311667435959e+03 
       7.954353299775e-02       8.814546190695e+03 
       8.266024078725e-02       8.302117638154e+03 
       8.581273398637e-02       7.786951325123e+03 
       8.901225918437e-02       7.283155974687e+03 
       9.226860540985e-02       6.805156072009e+03 
       9.559052048996e-02       6.365633652362e+03 
       9.898599946599e-02       5.974396998647e+03 
       1.024624891378e-01       5.637326899457e+03 
       1.060270359164e-01       5.355767223150e+03 
       1.096863943056e-01       5.126235949221e+03 
       1.134471073830e-01       4.940474958730e+03 
       1.173155669539e-01       4.786163341050e+03 
       1.212980586983e-01       4.647934996442e+03 
       1.254007961065e-01       4.509147096319e+03 
       1.296299459934e-01       4.354538221881e+03 
       1.339916477160e-01       4.173203561747e+03 
       1.384920277736e-01       3.961166974147e+03 
       1.431372111762e-01       3.722688043663e+03 
       1.479333307714e-01       3.469529363230e+03 
       1.528865355934e-01       3.218340210996e+03 
       1.580029992204e-01       2.986296336112e+03 
       1.632889290723e-01       2.786966542920e+03 
       1.687505775527e-01       2.626832761611e+03 
       1.743942559171e-01       2.503751827570e+03 
       1.802263517371e-01       2.407340396425e+03 
       1.862533508214e-01       2.322248438409e+03 
       1.924818644494e-01       2.231553286968e+03 
       1.989186627765e-01       2.122186663882e+03 
       2.055707152847e-01       1.992024441552e+03 
       2.124452391818e-01       1.850324552643e+03 
       2.195497567139e-01       1.712184290074e+03 
       2.268921624510e-01       1.590989712240e+03 
       2.344808017550e-01       1.493664550935e+03 
       2.423245618548e-01       1.418309430697e+03 
       2.504329772620e-01       1.354463141820e+03 
       2.588163516754e-01       1.288934532800e+03 
       2.674858990930e-01       1.213933408856e+03 
       2.764539076010e-01       1.130690851491e+03 
       2.857339303080e-01       1.048103036641e+03 
       2.953410092148e-01       9.761824398406e+02 
       3.052919395542e-01       9.178084072750e+02 
       3.156055844677e-01       8.678965689768e+02 
       3.263032530092e-01       8.185221966298e+02 
       3.374091587054e-01       7.651451916997e+02 
       3.489509817175e-01       7.106736278331e+02 
       3.609605657343e-01       6.607863778165e+02 
       3.734747921333e-01       6.180841013093e+02 
       3.865366902904e-01       5.793101567821e+02 
       4.001968667448e-01       5.403905458392e+02 
       4.145153713076e-01       5.011519053060e+02 
       4.295641718077e-01       4.645010016693e+02 
       4.454304922144e-01       4.314095235776e+02 
       4.622214006969e-01       4.001135725030e+02 
       4.800702491654e-01       3.690892083900e+02 
       4.991459272112e-01       3.394770239252e+02 
       5.196665217302e-01       3.119853103222e+02 
       5.419201087032e-01       2.852462505776e+02 
       5.662975451962e-01       2.593306927800e+02 
       5.933463737275e-01       2.345476668921e+02 
       6.238638458458e-01       2.102305872963e+02 
       6.590669257916e-01       1.864338650798e+02 
       7.009246080454e-01       1.627255505988e+02 
       7.528593308799e-01       1.388188229253e+02 
       8.213469537518e-01       1.141883677977e+02 
       9.196980813302e-01       8.835946276537e+01 
       1.075112183810e+00       6.172624491802e+01 
       1.322697471132e+00       3.804270885422e+01 
       1.662328205042e+00       2.209792898015e+01 
       2.092692408506e+00       1.266914667716e+01 
       2.634543445090e+00       7.203321891979e+00 
       3.316693691389e+00       4.065127056802e+00 
       4.175469971226e+00       2.278583174203e+00 
       5.256605252960e+00       1.269319409944e+00 
       6.617673932723e+00       7.030994553114e-01 
       8.331157880872e+00       3.874406059429e-01 
       1.048830636590e+01       2.124708717004e-01 
       1.320399541071e+01       1.159970864715e-01 
       1.662284535976e+01       6.306032796892e-02 
       2.092692243973e+01       3.414078037332e-02 
       2.634543445002e+01       1.840783433149e-02 
       3.316693691389e+01       9.881533145159e-03 
       4.175469971226e+01       5.277814262039e-03 
       5.256605252960e+01       2.800785252594e-03 
       6.617673932723e+01       1.472937772646e-03 
