# Matter power spectrum P(k) at redshift z=99
# for k=1.04775e-05 to 66.1767 h/Mpc,
# number of wavenumbers equal to 130
#    1:k (h/Mpc)              2:P (Mpc/h)^3        
       1.047750691046e-05       7.261927681801e-03 
       1.319039970183e-05       9.069258203022e-03 
       1.660572937635e-05       1.132639106872e-02 
       2.090537469327e-05       1.414527123582e-02 
       2.631830744443e-05       1.766569584287e-02 
       3.313278603720e-05       2.206225516228e-02 
       4.171170630578e-05       2.755297766633e-02 
       5.251192703764e-05       3.441013523392e-02 
       6.610859936996e-05       4.297372173333e-02 
       8.322579568497e-05       5.366826853636e-02 
       1.047750691046e-04       6.702379873638e-02 
       1.319039970183e-04       8.370193442361e-02 
       1.660572937635e-04       1.045283355518e-01 
       2.090537469327e-04       1.305329134270e-01 
       2.631830744443e-04       1.629994506810e-01 
       3.313278603720e-04       2.035264004853e-01 
       4.171170630578e-04       2.541004744548e-01 
       5.251192703764e-04       3.171839528919e-01 
       6.610859936996e-04       3.958147256931e-01 
       8.322579568497e-04       4.937136006718e-01 
       1.047750691046e-03       6.153841636470e-01 
       1.319039970183e-03       7.661720593106e-01 
       1.660572937635e-03       9.522588016099e-01 
       2.090537469327e-03       1.180312991519e+00 
       2.631830744443e-03       1.456802684176e+00 
       3.313278603720e-03       1.786503852837e+00 
       4.171170630578e-03       2.169896189857e+00 
       5.251192703764e-03       2.599430625305e+00 
       6.610859936996e-03       3.055668704488e+00 
       8.322579568497e-03       3.505725577319e+00 
       1.047750691046e-02       3.905491841157e+00 
       1.319039970183e-02       4.200915284216e+00 
       1.660572937633e-02       4.325062051105e+00 
       2.090537453514e-02       4.210199725859e+00 
       2.631818545635e-02       3.825150325465e+00 
       3.311571692125e-02       3.229064278694e+00 
       4.113809243311e-02       2.627728561960e+00 
       4.792590854610e-02       2.280790847489e+00 
       5.284436902701e-02       2.110085519851e+00 
       5.689644391095e-02       2.003535591843e+00 
       6.051252627066e-02       1.923055014428e+00 
       6.388413457411e-02       1.852731728387e+00 
       6.711249296401e-02       1.784565169448e+00 
       7.025823437965e-02       1.714274424225e+00 
       7.336115587705e-02       1.639810909447e+00 
       7.644928796912e-02       1.560659635825e+00 
       7.954353299775e-02       1.477452871342e+00 
       8.266024078725e-02       1.391694360893e+00 
       8.581273398637e-02       1.305456306111e+00 
       8.901225918437e-02       1.221124437557e+00 
       9.226860540985e-02       1.141077959191e+00 
       9.559052048996e-02       1.067451226076e+00 
       9.898599946599e-02       1.001887493882e+00 
       1.024624891378e-01       9.453781904931e-01 
       1.060270359164e-01       8.981449901857e-01 
       1.096863943056e-01       8.596105940150e-01 
       1.134471073830e-01       8.284014099473e-01 
       1.173155669539e-01       8.024622806335e-01 
       1.212980586983e-01       7.792267822619e-01 
       1.254007961065e-01       7.559127344665e-01 
       1.296299459934e-01       7.299790615724e-01 
       1.339916477160e-01       6.995902197097e-01 
       1.384920277736e-01       6.640758143106e-01 
       1.431372111762e-01       6.241431412934e-01 
       1.479333307714e-01       5.817600852169e-01 
       1.528865355934e-01       5.396856419911e-01 
       1.580029992204e-01       5.008085532715e-01 
       1.632889290723e-01       4.673940847568e-01 
       1.687505775527e-01       4.405292630901e-01 
       1.743942559171e-01       4.198615073545e-01 
       1.802263517371e-01       4.036535401787e-01 
       1.862533508214e-01       3.893574926413e-01 
       1.924818644494e-01       3.741343909522e-01 
       1.989186627765e-01       3.558015262432e-01 
       2.055707152847e-01       3.339971307863e-01 
       2.124452391818e-01       3.102600574439e-01 
       2.195497567139e-01       2.871162786841e-01 
       2.268921624510e-01       2.668021401663e-01 
       2.344808017550e-01       2.504774737632e-01 
       2.423245618548e-01       2.378272144907e-01 
       2.504329772620e-01       2.271049842012e-01 
       2.588163516754e-01       2.161126567242e-01 
       2.674858990930e-01       2.035400048775e-01 
       2.764539076010e-01       1.895903181376e-01 
       2.857339303080e-01       1.757497409316e-01 
       2.953410092148e-01       1.636918391414e-01 
       3.052919395542e-01       1.538985315803e-01 
       3.156055844677e-01       1.455231922126e-01 
       3.263032530092e-01       1.372422470005e-01 
       3.374091587054e-01       1.282937755147e-01 
       3.489509817175e-01       1.191628136899e-01 
       3.609605657343e-01       1.107989018687e-01 
       3.734747921333e-01       1.036366588474e-01 
       3.865366902904e-01       9.713253089687e-02 
       4.001968667448e-01       9.060647534293e-02 
       4.145153713076e-01       8.402798000739e-02 
       4.295641718077e-01       7.788225406070e-02 
       4.454304922144e-01       7.233239281451e-02 
       4.622214006969e-01       6.708422933793e-02 
       4.800702491654e-01       6.188213987662e-02 
       4.991459272112e-01       5.691659091035e-02 
       5.196665217302e-01       5.230618347902e-02 
       5.419201087032e-01       4.782237816298e-02 
       5.662975451962e-01       4.347654721338e-02 
       5.933463737275e-01       3.932047156171e-02 
       6.238638458458e-01       3.524269066966e-02 
       6.590669257916e-01       3.125193067803e-02 
       7.009246080454e-01       2.727606790122e-02 
       7.528593308799e-01       2.326683378825e-02 
       8.213469537518e-01       1.913640731515e-02 
       9.196980813302e-01       1.480468363858e-02 
       1.075112183810e+00       1.033803097393e-02 
       1.322697471132e+00       6.365777231564e-03 
       1.662328205042e+00       3.691119468059e-03 
       2.092692408506e+00       2.109091788156e-03 
       2.634543445090e+00       1.191588025579e-03 
       3.316693691389e+00       6.644067795340e-04 
       4.175469971226e+00       3.639276650081e-04 
       5.256605252960e+00       1.939609743133e-04 
       6.617673932723e+00       9.868644303944e-05 
       8.331157880872e+00       4.616935281236e-05 
       1.048830636590e+01       1.841064758951e-05 
       1.320399541071e+01       5.273235442214e-06 
       1.662284535976e+01       6.269623311571e-07 
       2.092692243973e+01       2.188034198484e-08 
       2.634543445002e+01       2.014875022641e-07 
       3.316693691389e+01       5.985655462181e-08 
       4.175469971226e+01       3.763421994772e-10 
       5.256605252960e+01       1.321494579313e-10 
       6.617673932723e+01       5.534131435778e-10 
