# Matter power spectrum P(k) at redshift z=0
# for k=1.04775e-05 to 66.1767 h/Mpc,
# number of wavenumbers equal to 130
#    1:k (h/Mpc)              2:P (Mpc/h)^3        
       1.047750691046e-05       5.020964811307e+01 
       1.319039970183e-05       6.270562594778e+01 
       1.660572937635e-05       7.831147247912e+01 
       2.090537469327e-05       9.780108069296e+01 
       2.631830744443e-05       1.221408203809e+02 
       3.313278603720e-05       1.525374501932e+02 
       4.171170630578e-05       1.904975994010e+02 
       5.251192703764e-05       2.379022224249e+02 
       6.610859936996e-05       2.970989227882e+02 
       8.322579568497e-05       3.710167318946e+02 
       1.047750691046e-04       4.633080766742e+02 
       1.319039970183e-04       5.785234129343e+02 
       1.660572937635e-04       7.223242666092e+02 
       2.090537469327e-04       9.017396271824e+02 
       2.631830744443e-04       1.125468123750e+03 
       3.313278603720e-04       1.404223053681e+03 
       4.171170630578e-04       1.751108028790e+03 
       5.251192703764e-04       2.181998448133e+03 
       6.610859936996e-04       2.715889983592e+03 
       8.322579568497e-04       3.375152337134e+03 
       1.047750691046e-03       4.185552174318e+03 
       1.319039970183e-03       5.175742738745e+03 
       1.660572937635e-03       6.376123051715e+03 
       2.090537469327e-03       7.815671865420e+03 
       2.631830744443e-03       9.517783069071e+03 
       3.313278603720e-03       1.149357460337e+04 
       4.171170630578e-03       1.373265988154e+04 
       5.251192703764e-03       1.619063610122e+04 
       6.610859936996e-03       1.877460417411e+04 
       8.322579568497e-03       2.132607266568e+04 
       1.047750691046e-02       2.360548277740e+04 
       1.319039970183e-02       2.528218834834e+04 
       1.660572937633e-02       2.595027999248e+04 
       2.090537453514e-02       2.520934815973e+04 
       2.631818545635e-02       2.287033455798e+04 
       3.311571692125e-02       1.928625604508e+04 
       4.113809243311e-02       1.568425522519e+04 
       4.792590854610e-02       1.361057015925e+04 
       5.284436902701e-02       1.259132224687e+04 
       5.689644391095e-02       1.195554788170e+04 
       6.051252627066e-02       1.147553704918e+04 
       6.388413457411e-02       1.105592158890e+04 
       6.711249296401e-02       1.064902212663e+04 
       7.025823437965e-02       1.022932440583e+04 
       7.336115587705e-02       9.784579585221e+03 
       7.644928796912e-02       9.311690710882e+03 
       7.954353299775e-02       8.814571109773e+03 
       8.266024078725e-02       8.302166451455e+03 
       8.581273398637e-02       7.786963519498e+03 
       8.901225918437e-02       7.283263889209e+03 
       9.226860540985e-02       6.805205343932e+03 
       9.559052048996e-02       6.365651413691e+03 
       9.898599946599e-02       5.974443733798e+03 
       1.024624891378e-01       5.637376499265e+03 
       1.060270359164e-01       5.355784942682e+03 
       1.096863943056e-01       5.126237171609e+03 
       1.134471073830e-01       4.940517447089e+03 
       1.173155669539e-01       4.786176838579e+03 
       1.212980586983e-01       4.647925955848e+03 
       1.254007961065e-01       4.509060421995e+03 
       1.296299459934e-01       4.354552126151e+03 
       1.339916477160e-01       4.173163360523e+03 
       1.384920277736e-01       3.961082564814e+03 
       1.431372111762e-01       3.722692458109e+03 
       1.479333307714e-01       3.469555311058e+03 
       1.528865355934e-01       3.218316257110e+03 
       1.580029992204e-01       2.986241525854e+03 
       1.632889290723e-01       2.786948713182e+03 
       1.687505775527e-01       2.626799711631e+03 
       1.743942559171e-01       2.503752189012e+03 
       1.802263517371e-01       2.407301437947e+03 
       1.862533508214e-01       2.322259534406e+03 
       1.924818644494e-01       2.231567806750e+03 
       1.989186627765e-01       2.122202596400e+03 
       2.055707152847e-01       1.992042910752e+03 
       2.124452391818e-01       1.850304959819e+03 
       2.195497567139e-01       1.712158533313e+03 
       2.268921624510e-01       1.590972123175e+03 
       2.344808017550e-01       1.493658358608e+03 
       2.423245618548e-01       1.418304642901e+03 
       2.504329772620e-01       1.354446736440e+03 
       2.588163516754e-01       1.288932974065e+03 
       2.674858990930e-01       1.213903691837e+03 
       2.764539076010e-01       1.130677605255e+03 
       2.857339303080e-01       1.048088086760e+03 
       2.953410092148e-01       9.761717474972e+02 
       3.052919395542e-01       9.178002410216e+02 
       3.156055844677e-01       8.678830072426e+02 
       3.263032530092e-01       8.185226315716e+02 
       3.374091587054e-01       7.651443053746e+02 
       3.489509817175e-01       7.106580423057e+02 
       3.609605657343e-01       6.607767248069e+02 
       3.734747921333e-01       6.180799641332e+02 
       3.865366902904e-01       5.793001885814e+02 
       4.001968667448e-01       5.403816786611e+02 
       4.145153713076e-01       5.011427175356e+02 
       4.295641718077e-01       4.644938124664e+02 
       4.454304922144e-01       4.314009783326e+02 
       4.622214006969e-01       4.001082481608e+02 
       4.800702491654e-01       3.690819597620e+02 
       4.991459272112e-01       3.394700907934e+02 
       5.196665217302e-01       3.119797323348e+02 
       5.419201087032e-01       2.852415203959e+02 
       5.662975451962e-01       2.593265195593e+02 
       5.933463737275e-01       2.345434907047e+02 
       6.238638458458e-01       2.102285238395e+02 
       6.590669257916e-01       1.864321008598e+02 
       7.009246080454e-01       1.627234654184e+02 
       7.528593308799e-01       1.388168880806e+02 
       8.213469537518e-01       1.141874260342e+02 
       9.196980813302e-01       8.835803261010e+01 
       1.075112183810e+00       6.172522478293e+01 
       1.322697471132e+00       3.804251261738e+01 
       1.662328205042e+00       2.209727261433e+01 
       2.092692408506e+00       1.266857272332e+01 
       2.634543445090e+00       7.202703773145e+00 
       3.316693691389e+00       4.064581408223e+00 
       4.175469971226e+00       2.278089213407e+00 
       5.256605252960e+00       1.268857979114e+00 
       6.617673932723e+00       7.026669155307e-01 
       8.331157880872e+00       3.870388175471e-01 
       1.048830636590e+01       2.120980774443e-01 
       1.320399541071e+01       1.156553830839e-01 
       1.662284535976e+01       6.274694075417e-02 
       2.092692243973e+01       3.385520007653e-02 
       2.634543445002e+01       1.814962890505e-02 
       3.316693691389e+01       9.649398200616e-03 
       4.175469971226e+01       5.070617292506e-03 
       5.256605252960e+01       2.617896323602e-03 
       6.617673932723e+01       1.313918464746e-03 
