# Matter power spectrum P(k) at redshift z=99
# for k=1.04775e-05 to 66.1767 h/Mpc,
# number of wavenumbers equal to 130
#    1:k (h/Mpc)              2:P (Mpc/h)^3        
       1.047750691046e-05       7.261927680861e-03 
       1.319039970183e-05       9.069258201848e-03 
       1.660572937635e-05       1.132639106725e-02 
       2.090537469327e-05       1.414527123399e-02 
       2.631830744443e-05       1.766569584058e-02 
       3.313278603720e-05       2.206225515942e-02 
       4.171170630578e-05       2.755297766277e-02 
       5.251192703764e-05       3.441013522947e-02 
       6.610859936996e-05       4.297372172777e-02 
       8.322579568497e-05       5.366826852944e-02 
       1.047750691046e-04       6.702379872774e-02 
       1.319039970183e-04       8.370193441285e-02 
       1.660572937635e-04       1.045283355384e-01 
       2.090537469327e-04       1.305329134104e-01 
       2.631830744443e-04       1.629994506605e-01 
       3.313278603720e-04       2.035264004601e-01 
       4.171170630578e-04       2.541004744243e-01 
       5.251192703764e-04       3.171839528557e-01 
       6.610859936996e-04       3.958147256513e-01 
       8.322579568497e-04       4.937136006276e-01 
       1.047750691046e-03       6.153841636041e-01 
       1.319039970183e-03       7.661720592353e-01 
       1.660572937635e-03       9.522588016469e-01 
       2.090537469327e-03       1.180312991700e+00 
       2.631830744443e-03       1.456802684686e+00 
       3.313278603720e-03       1.786503854037e+00 
       4.171170630578e-03       2.169896193291e+00 
       5.251192703764e-03       2.599430630723e+00 
       6.610859936996e-03       3.055668705399e+00 
       8.322579568497e-03       3.505725099973e+00 
       1.047750691046e-02       3.905491064602e+00 
       1.319039970183e-02       4.200915387823e+00 
       1.660572937633e-02       4.325065654265e+00 
       2.090537453514e-02       4.210201562459e+00 
       2.631818545635e-02       3.825148487593e+00 
       3.311571692125e-02       3.229065131969e+00 
       4.113809243311e-02       2.627726364612e+00 
       4.792590854610e-02       2.280792334278e+00 
       5.284436902701e-02       2.110088979622e+00 
       5.689644391095e-02       2.003540135214e+00 
       6.051252627066e-02       1.923057562791e+00 
       6.388413457411e-02       1.852731404807e+00 
       6.711249296401e-02       1.784566357842e+00 
       7.025823437965e-02       1.714273223714e+00 
       7.336115587705e-02       1.639813075205e+00 
       7.644928796912e-02       1.560663460043e+00 
       7.954353299775e-02       1.477460602409e+00 
       8.266024078725e-02       1.391697829735e+00 
       8.581273398637e-02       1.305460353539e+00 
       8.901225918437e-02       1.221126483773e+00 
       9.226860540985e-02       1.141078077175e+00 
       9.559052048996e-02       1.067452114534e+00 
       9.898599946599e-02       1.001888448531e+00 
       1.024624891378e-01       9.453817873562e-01 
       1.060270359164e-01       8.981510339775e-01 
       1.096863943056e-01       8.596125704262e-01 
       1.134471073830e-01       8.284054832148e-01 
       1.173155669539e-01       8.024689571805e-01 
       1.212980586983e-01       7.792295382455e-01 
       1.254007961065e-01       7.559176652444e-01 
       1.296299459934e-01       7.299826157667e-01 
       1.339916477160e-01       6.995939781619e-01 
       1.384920277736e-01       6.640792375994e-01 
       1.431372111762e-01       6.241483566220e-01 
       1.479333307714e-01       5.817638919496e-01 
       1.528865355934e-01       5.396939110275e-01 
       1.580029992204e-01       5.008141661142e-01 
       1.632889290723e-01       4.673983646009e-01 
       1.687505775527e-01       4.405340973679e-01 
       1.743942559171e-01       4.198656159060e-01 
       1.802263517371e-01       4.036608690249e-01 
       1.862533508214e-01       3.893598623055e-01 
       1.924818644494e-01       3.741344500949e-01 
       1.989186627765e-01       3.558016665317e-01 
       2.055707152847e-01       3.339987423553e-01 
       2.124452391818e-01       3.102664191837e-01 
       2.195497567139e-01       2.871230868712e-01 
       2.268921624510e-01       2.668085422455e-01 
       2.344808017550e-01       2.504834696119e-01 
       2.423245618548e-01       2.378334907356e-01 
       2.504329772620e-01       2.271119450266e-01 
       2.588163516754e-01       2.161177133082e-01 
       2.674858990930e-01       2.035448261202e-01 
       2.764539076010e-01       1.895974188423e-01 
       2.857339303080e-01       1.757571608195e-01 
       2.953410092148e-01       1.636994942243e-01 
       3.052919395542e-01       1.539066817265e-01 
       3.156055844677e-01       1.455311428424e-01 
       3.263032530092e-01       1.372499027269e-01 
       3.374091587054e-01       1.283021496659e-01 
       3.489509817175e-01       1.191715257371e-01 
       3.609605657343e-01       1.108071275120e-01 
       3.734747921333e-01       1.036451512670e-01 
       3.865366902904e-01       9.714162698831e-02 
       4.001968667448e-01       9.061551889900e-02 
       4.145153713076e-01       8.403710900262e-02 
       4.295641718077e-01       7.789117452438e-02 
       4.454304922144e-01       7.234199084273e-02 
       4.622214006969e-01       6.709380757597e-02 
       4.800702491654e-01       6.189200695821e-02 
       4.991459272112e-01       5.692645056617e-02 
       5.196665217302e-01       5.231626945857e-02 
       5.419201087032e-01       4.783260325658e-02 
       5.662975451962e-01       4.348710322943e-02 
       5.933463737275e-01       3.933110079431e-02 
       6.238638458458e-01       3.525344932024e-02 
       6.590669257916e-01       3.126286515326e-02 
       7.009246080454e-01       2.728736827109e-02 
       7.528593308799e-01       2.327851011197e-02 
       8.213469537518e-01       1.914828120489e-02 
       9.196980813302e-01       1.481704519721e-02 
       1.075112183810e+00       1.035092633776e-02 
       1.322697471132e+00       6.379488849145e-03 
       1.662328205042e+00       3.705670592968e-03 
       2.092692408506e+00       2.124543522375e-03 
       2.634543445090e+00       1.207968768777e-03 
       3.316693691389e+00       6.817138591919e-04 
       4.175469971226e+00       3.821238599734e-04 
       5.256605252960e+00       2.128751781808e-04 
       6.617673932723e+00       1.179233786900e-04 
       8.331157880872e+00       6.498798034771e-05 
       1.048830636590e+01       3.564564065344e-05 
       1.320399541071e+01       1.946636488829e-05 
       1.662284535976e+01       1.058806217791e-05 
       2.092692243973e+01       5.737514996392e-06 
       2.634543445002e+01       3.098258189052e-06 
       3.316693691389e+01       1.667617195505e-06 
       4.175469971226e+01       8.948098146934e-07 
       5.256605252960e+01       4.787199761401e-07 
       6.617673932723e+01       2.553741398402e-07 
