# Matter power spectrum P(k) at redshift z=99
# for k=1.04775e-05 to 67.6233 h/Mpc,
# number of wavenumbers equal to 246
#    1:k (h/Mpc)              2:P (Mpc/h)^3        
       1.047750691046e-05       7.261927680861e-03 
       1.131335172503e-05       7.820331652431e-03 
       1.221587619537e-05       8.421675995453e-03 
       1.319039970183e-05       9.069258201848e-03 
       1.424266597921e-05       9.766638412133e-03 
       1.537887696968e-05       1.051764070801e-02 
       1.660572937635e-05       1.132639106725e-02 
       1.793045413292e-05       1.219733232715e-02 
       1.936085902198e-05       1.313524225779e-02 
       2.090537469327e-05       1.414527123399e-02 
       2.257310435294e-05       1.523296273823e-02 
       2.437387741694e-05       1.640429446288e-02 
       2.631830744443e-05       1.766569584058e-02 
       2.841785469300e-05       1.902408737005e-02 
       3.068489366414e-05       2.048692972772e-02 
       3.313278603720e-05       2.206225515942e-02 
       3.577595942169e-05       2.375870707438e-02 
       3.862999239199e-05       2.558560730202e-02 
       4.171170630578e-05       2.755297766277e-02 
       4.503926444729e-05       2.967161930473e-02 
       4.863227907969e-05       3.195316454233e-02 
       5.251192703764e-05       3.441013522947e-02 
       5.670107454120e-05       3.705601726472e-02 
       6.122441196689e-05       3.990533417797e-02 
       6.610859936996e-05       4.297372172777e-02 
       7.138242361596e-05       4.627802146614e-02 
       7.707696804727e-05       4.983636199464e-02 
       8.322579568497e-05       5.366826852944e-02 
       8.986514704559e-05       5.779476400720e-02 
       9.703415373875e-05       6.223848250510e-02 
       1.047750691046e-04       6.702379872774e-02 
       1.131335172503e-04       7.217695161064e-02 
       1.221587619537e-04       7.772619081844e-02 
       1.319039970183e-04       8.370193441285e-02 
       1.424266597921e-04       9.013692517141e-02 
       1.537887696968e-04       9.706641252902e-02 
       1.660572937635e-04       1.045283355384e-01 
       1.793045413292e-04       1.125635350266e-01 
       1.936085902198e-04       1.212159616258e-01 
       2.090537469327e-04       1.305329134104e-01 
       2.257310435294e-04       1.405652847711e-01 
       2.437387741694e-04       1.513678304151e-01 
       2.631830744443e-04       1.629994506605e-01 
       2.841785469300e-04       1.755234923092e-01 
       3.068489366414e-04       1.890080672425e-01 
       3.313278603720e-04       2.035264004601e-01 
       3.577595942169e-04       2.191571806013e-01 
       3.862999239199e-04       2.359849440103e-01 
       4.171170630578e-04       2.541004744243e-01 
       4.503926444729e-04       2.736012083188e-01 
       4.863227907969e-04       2.945916794099e-01 
       5.251192703764e-04       3.171839528557e-01 
       5.670107454121e-04       3.414980767635e-01 
       6.122441196689e-04       3.676625417011e-01 
       6.610859936996e-04       3.958147256513e-01 
       7.138242361596e-04       4.261013289361e-01 
       7.707696804727e-04       4.586787797351e-01 
       8.322579568497e-04       4.937136006287e-01 
       8.986514704559e-04       5.313826807049e-01 
       9.703415373875e-04       5.718734978233e-01 
       1.047750691046e-03       6.153841636040e-01 
       1.131335172503e-03       6.621233246495e-01 
       1.221587619537e-03       7.123098227998e-01 
       1.319039970183e-03       7.661720592799e-01 
       1.424266597921e-03       8.239546306466e-01 
       1.537887696968e-03       8.859011182850e-01 
       1.660572937635e-03       9.522588016481e-01 
       1.793045413292e-03       1.023280100902e+00 
       1.936085902198e-03       1.099216305740e+00 
       2.090537469327e-03       1.180312991699e+00 
       2.257310435294e-03       1.266804117183e+00 
       2.437387741694e-03       1.358904854835e+00 
       2.631830744443e-03       1.456802684686e+00 
       2.841785469300e-03       1.560646892157e+00 
       3.068489366414e-03       1.670536064244e+00 
       3.313278603720e-03       1.786503854041e+00 
       3.577595942169e-03       1.908502932768e+00 
       3.862999239199e-03       2.036387732816e+00 
       4.171170630578e-03       2.169896194707e+00 
       4.503926444729e-03       2.308631881359e+00 
       4.863227907969e-03       2.452047293460e+00 
       5.251192703764e-03       2.599430630722e+00 
       5.670107454120e-03       2.749896934565e+00 
       6.122441196689e-03       2.902386516273e+00 
       6.610859936996e-03       3.055668707543e+00 
       7.138242361596e-03       3.208356464662e+00 
       7.707696804727e-03       3.358923895380e+00 
       8.322579568496e-03       3.505725598706e+00 
       8.986514704559e-03       3.647009712847e+00 
       9.703415373875e-03       3.780923307784e+00 
       1.047750691046e-02       3.905492006824e+00 
       1.131335172503e-02       4.018587644466e+00 
       1.221587619537e-02       4.117901588757e+00 
       1.319039970183e-02       4.200915342070e+00 
       1.424266597920e-02       4.264941385887e+00 
       1.537887696964e-02       4.307220526322e+00 
       1.660572937560e-02       4.325065038942e+00 
       1.793045412207e-02       4.316057396457e+00 
       1.936085889642e-02       4.278229343189e+00 
       2.090537351881e-02       4.210203412862e+00 
       2.257309534705e-02       4.111421896599e+00 
       2.437382002240e-02       3.982426834892e+00 
       2.631799943729e-02       3.825168261648e+00 
       2.841644544598e-02       3.643276851958e+00 
       3.067933354524e-02       3.442200200527e+00 
       3.311368469821e-02       3.229236898542e+00 
       3.571840442514e-02       3.013510638161e+00 
       3.847720347390e-02       2.805287748259e+00 
       4.135335537314e-02       2.614407188213e+00 
       4.429361666563e-02       2.448137370046e+00 
       4.724366437916e-02       2.309239295236e+00 
       5.016480834039e-02       2.196111755578e+00 
       5.303989618930e-02       2.104365120398e+00 
       5.586870668205e-02       2.028462089116e+00 
       5.866042679206e-02       1.963153463577e+00 
       6.142798931504e-02       1.903785829214e+00 
       6.418496438662e-02       1.846476764121e+00 
       6.694418832236e-02       1.788196778795e+00 
       6.971731104453e-02       1.726710961629e+00 
       7.251476154108e-02       1.660652011523e+00 
       7.534587669814e-02       1.589471685842e+00 
       7.821907664495e-02       1.513438588316e+00 
       8.114203771084e-02       1.433568909087e+00 
       8.412184533139e-02       1.351494756107e+00 
       8.716512277352e-02       1.269273765097e+00 
       9.027813693913e-02       1.189193540817e+00 
       9.346688429613e-02       1.113500581825e+00 
       9.673716026122e-02       1.044177257422e+00 
       1.000946150608e-01       9.827087536547e-01 
       1.035447986307e-01       9.299372871352e-01 
       1.070931966524e-01       8.859588940659e-01 
       1.107452594180e-01       8.500706173552e-01 
       1.145064248899e-01       8.208033685944e-01 
       1.183821370656e-01       7.960247022905e-01 
       1.223778605591e-01       7.731464299268e-01 
       1.264990921707e-01       7.494530488060e-01 
       1.307513701078e-01       7.225576693497e-01 
       1.351402814485e-01       6.909093124533e-01 
       1.396714683894e-01       6.541810155655e-01 
       1.443506337875e-01       6.134266673005e-01 
       1.491835464900e-01       5.708674061665e-01 
       1.541760469368e-01       5.293630126924e-01 
       1.593340535209e-01       4.917102097977e-01 
       1.646635701934e-01       4.599198782009e-01 
       1.701706958081e-01       4.347288453616e-01 
       1.758616357070e-01       4.154083455049e-01 
       1.817427160581e-01       3.999376368811e-01 
       1.878204014651e-01       3.856819765892e-01 
       1.941013163855e-01       3.698099181506e-01 
       2.005922709060e-01       3.505470740270e-01 
       2.073002914514e-01       3.280431433262e-01 
       2.142326570343e-01       3.042135600264e-01 
       2.213969417044e-01       2.816118369266e-01 
       2.288010639201e-01       2.622575994813e-01 
       2.364533436625e-01       2.469623804101e-01 
       2.443625682390e-01       2.350129475071e-01 
       2.525380678946e-01       2.244177582267e-01 
       2.609898025770e-01       2.130935778837e-01 
       2.697284614969e-01       2.001018346882e-01 
       2.787655775073e-01       1.860198153701e-01 
       2.881136588192e-01       1.725173523114e-01 
       2.977863412019e-01       1.610664395082e-01 
       3.077985646248e-01       1.517612682841e-01 
       3.181667793367e-01       1.435594698926e-01 
       3.289091877084e-01       1.351816535031e-01 
       3.400460298905e-01       1.261644997581e-01 
       3.515999235695e-01       1.172022563624e-01 
       3.635962710278e-01       1.091767888377e-01 
       3.760637505499e-01       1.023094633021e-01 
       3.890349143014e-01       9.593747398322e-02 
       4.025469215929e-01       8.950779568192e-02 
       4.166424455447e-01       8.311205344383e-02 
       4.313708034899e-01       7.721562147410e-02 
       4.467893781976e-01       7.190057531985e-02 
       4.629654198623e-01       6.686901987577e-02 
       4.799783500912e-01       6.191762200395e-02 
       4.979227318246e-01       5.722223604938e-02 
       5.169121269689e-01       5.290298531644e-02 
       5.370841403262e-01       4.876992320824e-02 
       5.586070463286e-01       4.479096190657e-02 
       5.816885093582e-01       4.105198897058e-02 
       6.065870143577e-01       3.748994073373e-02 
       6.336266466978e-01       3.407639923447e-02 
       6.632156057925e-01       3.083466668962e-02 
       6.958678637575e-01       2.772845045549e-02 
       7.322247983784e-01       2.476712229074e-02 
       7.730680193171e-01       2.193958424910e-02 
       8.193049551574e-01       1.925616871436e-02 
       8.718988013754e-01       1.672928973615e-02 
       9.317218028590e-01       1.438422650194e-02 
       9.993660906273e-01       1.225066566685e-02 
       1.075037109879e+00       1.035262338757e-02 
       1.158653485387e+00       8.699724829673e-03 
       1.250099156961e+00       7.284601785377e-03 
       1.349432400897e+00       6.085472038123e-03 
       1.456947456991e+00       5.075742908001e-03 
       1.573135110893e+00       4.228326265352e-03 
       1.698621895119e+00       3.518548575884e-03 
       1.834127512423e+00       2.924978147948e-03 
       1.980444933977e+00       2.429163616418e-03 
       2.138435191130e+00       2.015515005839e-03 
       2.309029198543e+00       1.670775802886e-03 
       2.493232376993e+00       1.383804604953e-03 
       2.692130394536e+00       1.145137537226e-03 
       2.906895533764e+00       9.468579209207e-04 
       3.138793596840e+00       7.822907795723e-04 
       3.389191365541e+00       6.458264697534e-04 
       3.659564656886e+00       5.327692908936e-04 
       3.951507021438e+00       4.391863534502e-04 
       4.266739135513e+00       3.617905270737e-04 
       4.607118942658e+00       2.978282771353e-04 
       4.974652604172e+00       2.450148799081e-04 
       5.371506323193e+00       2.014362861243e-04 
       5.800019112071e+00       1.655067144260e-04 
       6.262716578240e+00       1.359036523858e-04 
       6.762325809881e+00       1.115305873271e-04 
       7.301791449077e+00       9.147609560101e-05 
       7.884293047211e+00       7.498692015719e-05 
       8.513263804891e+00       6.143594569590e-05 
       9.192410806865e+00       5.030833753153e-05 
       9.925736871166e+00       4.117509690729e-05 
       1.071756414128e+01       3.368329701660e-05 
       1.157255956041e+01       2.754130847194e-05 
       1.249576237789e+01       2.250894567549e-05 
       1.349261385000e+01       1.838759425856e-05 
       1.456898931011e+01       1.501408167210e-05 
       1.573123279727e+01       1.225433897847e-05 
       1.698619444729e+01       9.997603163775e-06 
       1.834127086665e+01       8.153075205378e-06 
       1.980444872733e+01       6.646225217007e-06 
       2.138435183937e+01       5.415737315753e-06 
       2.309029197863e+01       4.411347851657e-06 
       2.493232376942e+01       3.591878050953e-06 
       2.692130394533e+01       2.923554402607e-06 
       2.906895533764e+01       2.378736726861e-06 
       3.138793596840e+01       1.934766383346e-06 
       3.389191365541e+01       1.573105704856e-06 
       3.659564656886e+01       1.278623901161e-06 
       3.951507021438e+01       1.038914808336e-06 
       4.266739135513e+01       8.438672551994e-07 
       4.607118942658e+01       6.852087861045e-07 
       4.974652604172e+01       5.562026361038e-07 
       5.371506323193e+01       4.513406923447e-07 
       5.800019112071e+01       3.661304741949e-07 
       6.262716578240e+01       2.969149025032e-07 
       6.762325809881e+01       2.407035875706e-07 
