# Matter power spectrum P(k) at redshift z=0
# for k=1.04775e-05 to 66.1767 h/Mpc,
# number of wavenumbers equal to 130
#    1:k (h/Mpc)              2:P (Mpc/h)^3        
       1.047750691046e-05       5.020964811312e+01 
       1.319039970183e-05       6.270562594779e+01 
       1.660572937635e-05       7.831147247912e+01 
       2.090537469327e-05       9.780108069295e+01 
       2.631830744443e-05       1.221408203809e+02 
       3.313278603720e-05       1.525374501932e+02 
       4.171170630578e-05       1.904975994009e+02 
       5.251192703764e-05       2.379022224249e+02 
       6.610859936996e-05       2.970989227882e+02 
       8.322579568497e-05       3.710167318945e+02 
       1.047750691046e-04       4.633080766742e+02 
       1.319039970183e-04       5.785234129331e+02 
       1.660572937635e-04       7.223242666092e+02 
       2.090537469327e-04       9.017396271824e+02 
       2.631830744443e-04       1.125468123750e+03 
       3.313278603720e-04       1.404223053681e+03 
       4.171170630578e-04       1.751108028790e+03 
       5.251192703764e-04       2.181998448133e+03 
       6.610859936996e-04       2.715889983592e+03 
       8.322579568497e-04       3.375152337134e+03 
       1.047750691046e-03       4.185552174307e+03 
       1.319039970183e-03       5.175742739531e+03 
       1.660572937635e-03       6.376123051777e+03 
       2.090537469327e-03       7.815671868442e+03 
       2.631830744443e-03       9.517783069112e+03 
       3.313278603720e-03       1.149357460343e+04 
       4.171170630578e-03       1.373266008557e+04 
       5.251192703764e-03       1.619063614560e+04 
       6.610859936996e-03       1.877460417830e+04 
       8.322579568497e-03       2.132607231811e+04 
       1.047750691046e-02       2.360548361929e+04 
       1.319039970183e-02       2.528218650215e+04 
       1.660572937633e-02       2.595026863794e+04 
       2.090537453514e-02       2.520936042333e+04 
       2.631818545635e-02       2.287035747413e+04 
       3.311571692125e-02       1.928624072392e+04 
       4.113809243311e-02       1.568431017120e+04 
       4.792590854610e-02       1.361064937924e+04 
       5.284436902701e-02       1.259131096799e+04 
       5.689644391095e-02       1.195556900007e+04 
       6.051252627066e-02       1.147547117783e+04 
       6.388413457411e-02       1.105589427615e+04 
       6.711249296401e-02       1.064898797031e+04 
       7.025823437965e-02       1.022929281491e+04 
       7.336115587705e-02       9.784518680277e+03 
       7.644928796912e-02       9.311664449396e+03 
       7.954353299775e-02       8.814535583325e+03 
       8.266024078725e-02       8.302123369707e+03 
       8.581273398637e-02       7.786938375104e+03 
       8.901225918437e-02       7.283175520301e+03 
       9.226860540985e-02       6.805155036641e+03 
       9.559052048996e-02       6.365626045663e+03 
       9.898599946599e-02       5.974389582823e+03 
       1.024624891378e-01       5.637323871381e+03 
       1.060270359164e-01       5.355775507407e+03 
       1.096863943056e-01       5.126246697295e+03 
       1.134471073830e-01       4.940473598316e+03 
       1.173155669539e-01       4.786159937302e+03 
       1.212980586983e-01       4.647938165501e+03 
       1.254007961065e-01       4.509153687451e+03 
       1.296299459934e-01       4.354560608995e+03 
       1.339916477160e-01       4.173213484340e+03 
       1.384920277736e-01       3.961160433527e+03 
       1.431372111762e-01       3.722679788713e+03 
       1.479333307714e-01       3.469553691422e+03 
       1.528865355934e-01       3.218338967949e+03 
       1.580029992204e-01       2.986292816575e+03 
       1.632889290723e-01       2.786965417640e+03 
       1.687505775527e-01       2.626829941833e+03 
       1.743942559171e-01       2.503754449251e+03 
       1.802263517371e-01       2.407341599453e+03 
       1.862533508214e-01       2.322247528969e+03 
       1.924818644494e-01       2.231550788189e+03 
       1.989186627765e-01       2.122193300269e+03 
       2.055707152847e-01       1.992031050179e+03 
       2.124452391818e-01       1.850327979671e+03 
       2.195497567139e-01       1.712184689373e+03 
       2.268921624510e-01       1.590992796955e+03 
       2.344808017550e-01       1.493667963898e+03 
       2.423245618548e-01       1.418311504475e+03 
       2.504329772620e-01       1.354470336523e+03 
       2.588163516754e-01       1.288934228651e+03 
       2.674858990930e-01       1.213938548017e+03 
       2.764539076010e-01       1.130695474620e+03 
       2.857339303080e-01       1.048099868756e+03 
       2.953410092148e-01       9.761825926434e+02 
       3.052919395542e-01       9.178117223427e+02 
       3.156055844677e-01       8.678989907619e+02 
       3.263032530092e-01       8.185254993756e+02 
       3.374091587054e-01       7.651461788696e+02 
       3.489509817175e-01       7.106715167888e+02 
       3.609605657343e-01       6.607861959676e+02 
       3.734747921333e-01       6.180872833451e+02 
       3.865366902904e-01       5.793119770355e+02 
       4.001968667448e-01       5.403923988093e+02 
       4.145153713076e-01       5.011524788277e+02 
       4.295641718077e-01       4.645002197341e+02 
       4.454304922144e-01       4.314100356499e+02 
       4.622214006969e-01       4.001134197395e+02 
       4.800702491654e-01       3.690895568716e+02 
       4.991459272112e-01       3.394764523322e+02 
       5.196665217302e-01       3.119854450358e+02 
       5.419201087032e-01       2.852468113712e+02 
       5.662975451962e-01       2.593308210853e+02 
       5.933463737275e-01       2.345489739538e+02 
       6.238638458458e-01       2.102304138605e+02 
       6.590669257916e-01       1.864335110139e+02 
       7.009246080454e-01       1.627251499882e+02 
       7.528593308799e-01       1.388183649937e+02 
       8.213469537518e-01       1.141883386764e+02 
       9.196980813302e-01       8.835909270338e+01 
       1.075112183810e+00       6.172621866816e+01 
       1.322697471132e+00       3.804281403442e+01 
       1.662328205042e+00       2.209807942847e+01 
       2.092692408506e+00       1.266922064823e+01 
       2.634543445090e+00       7.203365076783e+00 
       3.316693691389e+00       4.065176308270e+00 
       4.175469971226e+00       2.278632770611e+00 
       5.256605252960e+00       1.269362750567e+00 
       6.617673932723e+00       7.031402220291e-01 
       8.331157880872e+00       3.874802974333e-01 
       1.048830636590e+01       2.125113127842e-01 
       1.320399541071e+01       1.160374913788e-01 
       1.662284535976e+01       6.309973022302e-02 
       2.092692243973e+01       3.417978370083e-02 
       2.634543445002e+01       1.844632484045e-02 
       3.316693691389e+01       9.919188317402e-03 
       4.175469971226e+01       5.314660013060e-03 
       5.256605252960e+01       2.836707371749e-03 
       6.617673932723e+01       1.507719428702e-03 
