# Matter power spectrum P(k) at redshift z=0
# for k=1.04775e-05 to 66.1767 h/Mpc,
# number of wavenumbers equal to 130
#    1:k (h/Mpc)              2:P (Mpc/h)^3        
       1.047750691046e-05       5.020964811308e+01 
       1.319039970183e-05       6.270562594777e+01 
       1.660572937635e-05       7.831147247912e+01 
       2.090537469327e-05       9.780108069295e+01 
       2.631830744443e-05       1.221408203809e+02 
       3.313278603720e-05       1.525374501932e+02 
       4.171170630578e-05       1.904975994009e+02 
       5.251192703764e-05       2.379022224249e+02 
       6.610859936996e-05       2.970989227882e+02 
       8.322579568497e-05       3.710167318946e+02 
       1.047750691046e-04       4.633080766742e+02 
       1.319039970183e-04       5.785234129332e+02 
       1.660572937635e-04       7.223242666092e+02 
       2.090537469327e-04       9.017396271824e+02 
       2.631830744443e-04       1.125468123750e+03 
       3.313278603720e-04       1.404223053681e+03 
       4.171170630578e-04       1.751108028790e+03 
       5.251192703764e-04       2.181998448133e+03 
       6.610859936996e-04       2.715889983592e+03 
       8.322579568497e-04       3.375152337134e+03 
       1.047750691046e-03       4.185552174305e+03 
       1.319039970183e-03       5.175742742696e+03 
       1.660572937635e-03       6.376123051775e+03 
       2.090537469327e-03       7.815671913464e+03 
       2.631830744443e-03       9.517783069089e+03 
       3.313278603720e-03       1.149357460337e+04 
       4.171170630578e-03       1.373266011549e+04 
       5.251192703764e-03       1.619063614494e+04 
       6.610859936996e-03       1.877460418142e+04 
       8.322579568497e-03       2.132606996274e+04 
       1.047750691046e-02       2.360548192640e+04 
       1.319039970183e-02       2.528218558583e+04 
       1.660572937633e-02       2.595027846092e+04 
       2.090537453514e-02       2.520941323837e+04 
       2.631818545635e-02       2.287036079047e+04 
       3.311571692125e-02       1.928628318175e+04 
       4.113809243311e-02       1.568421112236e+04 
       4.792590854610e-02       1.361062045747e+04 
       5.284436902701e-02       1.259128286374e+04 
       5.689644391095e-02       1.195555201128e+04 
       6.051252627066e-02       1.147547075302e+04 
       6.388413457411e-02       1.105588554586e+04 
       6.711249296401e-02       1.064899768852e+04 
       7.025823437965e-02       1.022926910360e+04 
       7.336115587705e-02       9.784505985842e+03 
       7.644928796912e-02       9.311657244100e+03 
       7.954353299775e-02       8.814538674142e+03 
       8.266024078725e-02       8.302107998064e+03 
       8.581273398637e-02       7.786959147872e+03 
       8.901225918437e-02       7.283161128376e+03 
       9.226860540985e-02       6.805144981393e+03 
       9.559052048996e-02       6.365593406045e+03 
       9.898599946599e-02       5.974354334249e+03 
       1.024624891378e-01       5.637355116295e+03 
       1.060270359164e-01       5.355777692840e+03 
       1.096863943056e-01       5.126227958925e+03 
       1.134471073830e-01       4.940472882709e+03 
       1.173155669539e-01       4.786158025153e+03 
       1.212980586983e-01       4.647926009407e+03 
       1.254007961065e-01       4.509119816083e+03 
       1.296299459934e-01       4.354543772331e+03 
       1.339916477160e-01       4.173209240635e+03 
       1.384920277736e-01       3.961152095251e+03 
       1.431372111762e-01       3.722673570595e+03 
       1.479333307714e-01       3.469544339387e+03 
       1.528865355934e-01       3.218334096469e+03 
       1.580029992204e-01       2.986283393058e+03 
       1.632889290723e-01       2.786956491796e+03 
       1.687505775527e-01       2.626820628872e+03 
       1.743942559171e-01       2.503746239259e+03 
       1.802263517371e-01       2.407339007132e+03 
       1.862533508214e-01       2.322241475050e+03 
       1.924818644494e-01       2.231541156851e+03 
       1.989186627765e-01       2.122176471442e+03 
       2.055707152847e-01       1.992012371656e+03 
       2.124452391818e-01       1.850307764253e+03 
       2.195497567139e-01       1.712172619570e+03 
       2.268921624510e-01       1.590978290302e+03 
       2.344808017550e-01       1.493650671617e+03 
       2.423245618548e-01       1.418294245497e+03 
       2.504329772620e-01       1.354453835875e+03 
       2.588163516754e-01       1.288922215654e+03 
       2.674858990930e-01       1.213920861723e+03 
       2.764539076010e-01       1.130675782241e+03 
       2.857339303080e-01       1.048084941339e+03 
       2.953410092148e-01       9.761653371554e+02 
       3.052919395542e-01       9.177933529095e+02 
       3.156055844677e-01       8.678784115951e+02 
       3.263032530092e-01       8.185086086021e+02 
       3.374091587054e-01       7.651282844153e+02 
       3.489509817175e-01       7.106513046794e+02 
       3.609605657343e-01       6.607678064360e+02 
       3.734747921333e-01       6.180656847955e+02 
       3.865366902904e-01       5.792908096145e+02 
       4.001968667448e-01       5.403710450469e+02 
       4.145153713076e-01       5.011299305379e+02 
       4.295641718077e-01       4.644772022624e+02 
       4.454304922144e-01       4.313858227680e+02 
       4.622214006969e-01       4.000911783195e+02 
       4.800702491654e-01       3.690665256574e+02 
       4.991459272112e-01       3.394526133531e+02 
       5.196665217302e-01       3.119623620859e+02 
       5.419201087032e-01       2.852225008219e+02 
       5.662975451962e-01       2.593066569034e+02 
       5.933463737275e-01       2.345219868228e+02 
       6.238638458458e-01       2.102044569255e+02 
       6.590669257916e-01       1.864065733386e+02 
       7.009246080454e-01       1.626974931905e+02 
       7.528593308799e-01       1.387898136343e+02 
       8.213469537518e-01       1.141591395788e+02 
       9.196980813302e-01       8.832904854384e+01 
       1.075112183810e+00       6.169453021478e+01 
       1.322697471132e+00       3.800952235654e+01 
       1.662328205042e+00       2.206326975479e+01 
       2.092692408506e+00       1.263350007339e+01 
       2.634543445090e+00       7.166994153829e+00 
       3.316693691389e+00       4.028600377303e+00 
       4.175469971226e+00       2.242267991749e+00 
       5.256605252960e+00       1.233690870588e+00 
       6.617673932723e+00       6.686458578215e-01 
       8.331157880872e+00       3.547389478138e-01 
       1.048830636590e+01       1.821623309030e-01 
       1.320399541071e+01       8.878430124452e-02 
       1.662284535976e+01       3.967622051741e-02 
       2.092692243973e+01       1.524069061636e-02 
       2.634543445002e+01       4.382014272621e-03 
       3.316693691389e+01       6.180353816264e-04 
       4.175469971226e+01       3.060038586426e-06 
       5.256605252960e+01       2.109151247280e-04 
       6.617673932723e+01       2.400237461017e-04 
