# Matter power spectrum P(k) at redshift z=0
# for k=1.04775e-05 to 66.1767 h/Mpc,
# number of wavenumbers equal to 130
#    1:k (h/Mpc)              2:P (Mpc/h)^3        
       1.047750691046e-05       5.020964811358e+01 
       1.319039970183e-05       6.270561466861e+01 
       1.660572937635e-05       7.831147247934e+01 
       2.090537469327e-05       9.780108069694e+01 
       2.631830744443e-05       1.221408204044e+02 
       3.313278603720e-05       1.525374501932e+02 
       4.171170630578e-05       1.904975993900e+02 
       5.251192703764e-05       2.379022224222e+02 
       6.610859936996e-05       2.970989227957e+02 
       8.322579568497e-05       3.710167318946e+02 
       1.047750691046e-04       4.633080766726e+02 
       1.319039970183e-04       5.785234081899e+02 
       1.660572937635e-04       7.223242666088e+02 
       2.090537469327e-04       9.017396271821e+02 
       2.631830744443e-04       1.125468123756e+03 
       3.313278603720e-04       1.404223053679e+03 
       4.171170630578e-04       1.751108028786e+03 
       5.251192703764e-04       2.181998448122e+03 
       6.610859936996e-04       2.715889983575e+03 
       8.322579568497e-04       3.375152337079e+03 
       1.047750691046e-03       4.185552174183e+03 
       1.319039970183e-03       5.175742740556e+03 
       1.660572937635e-03       6.376123050348e+03 
       2.090537469327e-03       7.815671859827e+03 
       2.631830744443e-03       9.517783048901e+03 
       3.313278603720e-03       1.149357453035e+04 
       4.171170630578e-03       1.373266010001e+04 
       5.251192703764e-03       1.619063460315e+04 
       6.610859936996e-03       1.877460139147e+04 
       8.322579568497e-03       2.132610378469e+04 
       1.047750691046e-02       2.360545632096e+04 
       1.319039970183e-02       2.528211592436e+04 
       1.660572937633e-02       2.595004804776e+04 
       2.090537453514e-02       2.520887973810e+04 
       2.631818545635e-02       2.286926791209e+04 
       3.311571692125e-02       1.928402346129e+04 
       4.113809243311e-02       1.568033861191e+04 
       4.792590854610e-02       1.360488866960e+04 
       5.284436902701e-02       1.258412150584e+04 
       5.689644391095e-02       1.194703348392e+04 
       6.051252627066e-02       1.146562882327e+04 
       6.388413457411e-02       1.104473452686e+04 
       6.711249296401e-02       1.063651536699e+04 
       7.025823437965e-02       1.021546319124e+04 
       7.336115587705e-02       9.769302380069e+03 
       7.644928796912e-02       9.294990928024e+03 
       7.954353299775e-02       8.796429718920e+03 
       8.266024078725e-02       8.282502925094e+03 
       8.581273398637e-02       7.765832998045e+03 
       8.901225918437e-02       7.260545914844e+03 
       9.226860540985e-02       6.780966142758e+03 
       9.559052048996e-02       6.339861362280e+03 
       9.898599946599e-02       5.946972193513e+03 
       1.024624891378e-01       5.608159635386e+03 
       1.060270359164e-01       5.324761848199e+03 
       1.096863943056e-01       5.093253873874e+03 
       1.134471073830e-01       4.905365178553e+03 
       1.173155669539e-01       4.748763496455e+03 
       1.212980586983e-01       4.608111927683e+03 
       1.254007961065e-01       4.466760549371e+03 
       1.296299459934e-01       4.309543878522e+03 
       1.339916477160e-01       4.125555311153e+03 
       1.384920277736e-01       3.910874675773e+03 
       1.431372111762e-01       3.669827497372e+03 
       1.479333307714e-01       3.414169051972e+03 
       1.528865355934e-01       3.160447837195e+03 
       1.580029992204e-01       2.925820785369e+03 
       1.632889290723e-01       2.723713977385e+03 
       1.687505775527e-01       2.560521319511e+03 
       1.743942559171e-01       2.434044202187e+03 
       1.802263517371e-01       2.333824953333e+03 
       1.862533508214e-01       2.244738553460e+03 
       1.924818644494e-01       2.150023058435e+03 
       1.989186627765e-01       2.036853009138e+03 
       2.055707152847e-01       1.903213436610e+03 
       2.124452391818e-01       1.758287968033e+03 
       2.195497567139e-01       1.617005520727e+03 
       2.268921624510e-01       1.492435280130e+03 
       2.344808017550e-01       1.391287222734e+03 
       2.423245618548e-01       1.311570372457e+03 
       2.504329772620e-01       1.243058773600e+03 
       2.588163516754e-01       1.172995107380e+03 
       2.674858990930e-01       1.093944658921e+03 
       2.764539076010e-01       1.007179685715e+03 
       2.857339303080e-01       9.212939162648e+02 
       2.953410092148e-01       8.458130484587e+02 
       3.052919395542e-01       7.833478665529e+02 
       3.156055844677e-01       7.290514192819e+02 
       3.263032530092e-01       6.755311261339e+02 
       3.374091587054e-01       6.186582782681e+02 
       3.489509817175e-01       5.611868079169e+02 
       3.609605657343e-01       5.082972240403e+02 
       3.734747921333e-01       4.622709400576e+02 
       3.865366902904e-01       4.201756292617e+02 
       4.001968667448e-01       3.784817449803e+02 
       4.145153713076e-01       3.371120657260e+02 
       4.295641718077e-01       2.985504448838e+02 
       4.454304922144e-01       2.636070141150e+02 
       4.622214006969e-01       2.308506476913e+02 
       4.800702491654e-01       1.991431912540e+02 
       4.991459272112e-01       1.694202565340e+02 
       5.196665217302e-01       1.422539339992e+02 
       5.419201087032e-01       1.167482944229e+02 
       5.662975451962e-01       9.306863227147e+01 
       5.933463737275e-01       7.155991811880e+01 
       6.238638458458e-01       5.203339247625e+01 
       6.590669257916e-01       3.482846538824e+01 
       7.009246080454e-01       2.020762586050e+01 
       7.528593308799e-01       8.797850704385e+00 
       8.213469537518e-01       1.628543241398e+00 
       9.196980813302e-01       3.341461168620e-01 
       1.075112183810e+00       5.568726692873e+00 
       1.322697471132e+00       9.527041002593e+00 
       1.662328205042e+00       3.583886730423e+00 
       2.092692408506e+00       2.921001745008e-03 
       2.634543445090e+00       6.255339494787e-01 
       3.316693691389e+00       1.108020123515e-02 
       4.175469971226e+00       4.284631721746e-02 
       5.256605252960e+00       3.680479103491e-03 
       6.617673932723e+00       1.218950319403e-04 
       8.331157880872e+00       1.793118453139e-05 
       1.048830636590e+01       4.441549816796e-06 
       1.320399541071e+01       2.025896181450e-09 
       1.662284535976e+01       2.949350503704e-11 
       2.092692243973e+01       6.218853675489e-10 
       2.634543445002e+01       2.729377093195e-10 
       3.316693691389e+01       9.283263668095e-11 
       4.175469971226e+01       3.200025297524e-11 
       5.256605252960e+01       9.940977004357e-12 
       6.617673932723e+01       2.942029125762e-12 
