# Matter power spectrum P(k) at redshift z=99
# for k=1.04775e-05 to 67.6233 h/Mpc,
# number of wavenumbers equal to 246
#    1:k (h/Mpc)              2:P (Mpc/h)^3        
       1.047750691046e-05       7.261927680902e-03 
       1.131335172503e-05       7.820331652475e-03 
       1.221587619537e-05       8.421675995501e-03 
       1.319039970183e-05       9.069258201899e-03 
       1.424266597921e-05       9.766638412187e-03 
       1.537887696968e-05       1.051764070807e-02 
       1.660572937635e-05       1.132639106732e-02 
       1.793045413292e-05       1.219733232722e-02 
       1.936085902198e-05       1.313524225786e-02 
       2.090537469327e-05       1.414527123407e-02 
       2.257310435294e-05       1.523296273831e-02 
       2.437387741694e-05       1.640429446297e-02 
       2.631830744443e-05       1.766569584068e-02 
       2.841785469300e-05       1.902408737016e-02 
       3.068489366414e-05       2.048692972784e-02 
       3.313278603720e-05       2.206225515955e-02 
       3.577595942169e-05       2.375870707451e-02 
       3.862999239199e-05       2.558560730216e-02 
       4.171170630578e-05       2.755297766292e-02 
       4.503926444729e-05       2.967161930491e-02 
       4.863227907969e-05       3.195316454251e-02 
       5.251192703764e-05       3.441013522966e-02 
       5.670107454120e-05       3.705601726491e-02 
       6.122441196689e-05       3.990533417818e-02 
       6.610859936996e-05       4.297372172801e-02 
       7.138242361596e-05       4.627802146640e-02 
       7.707696804727e-05       4.983636199491e-02 
       8.322579568497e-05       5.366826852974e-02 
       8.986514704559e-05       5.779476400752e-02 
       9.703415373875e-05       6.223848250544e-02 
       1.047750691046e-04       6.702379872811e-02 
       1.131335172503e-04       7.217695161103e-02 
       1.221587619537e-04       7.772619081887e-02 
       1.319039970183e-04       8.370193441332e-02 
       1.424266597921e-04       9.013692517192e-02 
       1.537887696968e-04       9.706641252956e-02 
       1.660572937635e-04       1.045283355390e-01 
       1.793045413292e-04       1.125635350273e-01 
       1.936085902198e-04       1.212159616265e-01 
       2.090537469327e-04       1.305329134111e-01 
       2.257310435294e-04       1.405652847719e-01 
       2.437387741694e-04       1.513678304159e-01 
       2.631830744443e-04       1.629994506614e-01 
       2.841785469300e-04       1.755234923102e-01 
       3.068489366414e-04       1.890080672435e-01 
       3.313278603720e-04       2.035264004612e-01 
       3.577595942169e-04       2.191571806025e-01 
       3.862999239199e-04       2.359849440117e-01 
       4.171170630578e-04       2.541004744256e-01 
       4.503926444729e-04       2.736012083203e-01 
       4.863227907969e-04       2.945916794114e-01 
       5.251192703764e-04       3.171839528572e-01 
       5.670107454121e-04       3.414980767651e-01 
       6.122441196689e-04       3.676625417029e-01 
       6.610859936996e-04       3.958147256531e-01 
       7.138242361596e-04       4.261013289378e-01 
       7.707696804727e-04       4.586787797370e-01 
       8.322579568497e-04       4.937136006312e-01 
       8.986514704559e-04       5.313826807068e-01 
       9.703415373875e-04       5.718734978252e-01 
       1.047750691046e-03       6.153841636064e-01 
       1.131335172503e-03       6.621233246512e-01 
       1.221587619537e-03       7.123098228012e-01 
       1.319039970183e-03       7.661720592797e-01 
       1.424266597921e-03       8.239546306460e-01 
       1.537887696968e-03       8.859011182849e-01 
       1.660572937635e-03       9.522588016376e-01 
       1.793045413292e-03       1.023280100899e+00 
       1.936085902198e-03       1.099216305735e+00 
       2.090537469327e-03       1.180312991691e+00 
       2.257310435294e-03       1.266804117175e+00 
       2.437387741694e-03       1.358904854819e+00 
       2.631830744443e-03       1.456802684664e+00 
       2.841785469300e-03       1.560646892127e+00 
       3.068489366414e-03       1.670536064204e+00 
       3.313278603720e-03       1.786503853992e+00 
       3.577595942169e-03       1.908502932703e+00 
       3.862999239199e-03       2.036387732728e+00 
       4.171170630578e-03       2.169896193601e+00 
       4.503926444729e-03       2.308631881215e+00 
       4.863227907969e-03       2.452047293275e+00 
       5.251192703764e-03       2.599430630487e+00 
       5.670107454120e-03       2.749896934258e+00 
       6.122441196689e-03       2.902386515897e+00 
       6.610859936996e-03       3.055668712529e+00 
       7.138242361596e-03       3.208356464063e+00 
       7.707696804727e-03       3.358923895313e+00 
       8.322579568496e-03       3.505725597511e+00 
       8.986514704559e-03       3.647009633921e+00 
       9.703415373875e-03       3.780923306276e+00 
       1.047750691046e-02       3.905491048299e+00 
       1.131335172503e-02       4.018587812755e+00 
       1.221587619537e-02       4.117901586061e+00 
       1.319039970183e-02       4.200915352569e+00 
       1.424266597920e-02       4.264942510521e+00 
       1.537887696964e-02       4.307219259039e+00 
       1.660572937560e-02       4.325063369620e+00 
       1.793045412207e-02       4.316058741015e+00 
       1.936085889642e-02       4.278230763932e+00 
       2.090537351881e-02       4.210205213258e+00 
       2.257309534705e-02       4.111420370390e+00 
       2.437382002240e-02       3.982423055814e+00 
       2.631799943729e-02       3.825177719995e+00 
       2.841644544598e-02       3.643277891407e+00 
       3.067933354524e-02       3.442195499698e+00 
       3.311368469821e-02       3.229237528983e+00 
       3.571840442514e-02       3.013514288160e+00 
       3.847720347390e-02       2.805279335446e+00 
       4.135335537314e-02       2.614419265748e+00 
       4.429361666563e-02       2.448137819662e+00 
       4.724366437916e-02       2.309237441522e+00 
       5.016480834039e-02       2.196111134795e+00 
       5.303989618930e-02       2.104366668280e+00 
       5.586870668205e-02       2.028464695789e+00 
       5.866042679206e-02       1.963153822265e+00 
       6.142798931504e-02       1.903781391664e+00 
       6.418496438662e-02       1.846478584537e+00 
       6.694418832236e-02       1.788197214394e+00 
       6.971731104453e-02       1.726713599739e+00 
       7.251476154108e-02       1.660654615754e+00 
       7.534587669814e-02       1.589470779763e+00 
       7.821907664495e-02       1.513439679179e+00 
       8.114203771084e-02       1.433569124924e+00 
       8.412184533139e-02       1.351490350377e+00 
       8.716512277352e-02       1.269273739287e+00 
       9.027813693913e-02       1.189190951824e+00 
       9.346688429613e-02       1.113501200512e+00 
       9.673716026122e-02       1.044174671672e+00 
       1.000946150608e-01       9.827056007357e-01 
       1.035447986307e-01       9.299372597430e-01 
       1.070931966524e-01       8.859597618472e-01 
       1.107452594180e-01       8.500710340977e-01 
       1.145064248899e-01       8.208012187605e-01 
       1.183821370656e-01       7.960260180117e-01 
       1.223778605591e-01       7.731436052267e-01 
       1.264990921707e-01       7.494517035989e-01 
       1.307513701078e-01       7.225581946527e-01 
       1.351402814485e-01       6.909105648656e-01 
       1.396714683894e-01       6.541822572006e-01 
       1.443506337875e-01       6.134284987691e-01 
       1.491835464900e-01       5.708688852211e-01 
       1.541760469368e-01       5.293628115184e-01 
       1.593340535209e-01       4.917082835824e-01 
       1.646635701934e-01       4.599189921493e-01 
       1.701706958081e-01       4.347265867063e-01 
       1.758616357070e-01       4.154070258743e-01 
       1.817427160581e-01       3.999345522019e-01 
       1.878204014651e-01       3.856844991454e-01 
       1.941013163855e-01       3.698109558471e-01 
       2.005922709060e-01       3.505470119601e-01 
       2.073002914514e-01       3.280446319903e-01 
       2.142326570343e-01       3.042122674894e-01 
       2.213969417044e-01       2.816096619668e-01 
       2.288010639201e-01       2.622553524362e-01 
       2.364533436625e-01       2.469595067885e-01 
       2.443625682390e-01       2.350108363135e-01 
       2.525380678946e-01       2.244177966151e-01 
       2.609898025770e-01       2.130940294606e-01 
       2.697284614969e-01       2.001002471850e-01 
       2.787655775073e-01       1.860168634019e-01 
       2.881136588192e-01       1.725146219210e-01 
       2.977863412019e-01       1.610630873137e-01 
       3.077985646248e-01       1.517581794231e-01 
       3.181667793367e-01       1.435558875480e-01 
       3.289091877084e-01       1.351787851630e-01 
       3.400460298905e-01       1.261608801125e-01 
       3.515999235695e-01       1.171981840767e-01 
       3.635962710278e-01       1.091727753259e-01 
       3.760637505499e-01       1.023053148009e-01 
       3.890349143014e-01       9.593375008768e-02 
       4.025469215929e-01       8.950347172616e-02 
       4.166424455447e-01       8.310686800695e-02 
       4.313708034899e-01       7.721066507081e-02 
       4.467893781976e-01       7.189517826275e-02 
       4.629654198623e-01       6.686378990173e-02 
       4.799783500912e-01       6.191184601679e-02 
       4.979227318246e-01       5.721625014453e-02 
       5.169121269689e-01       5.289665318715e-02 
       5.370841403262e-01       4.876329696977e-02 
       5.586070463286e-01       4.478392109194e-02 
       5.816885093582e-01       4.104464386869e-02 
       6.065870143577e-01       3.748237623589e-02 
       6.336266466978e-01       3.406829840791e-02 
       6.632156057925e-01       3.082624722389e-02 
       6.958678637575e-01       2.771936191381e-02 
       7.322247983784e-01       2.475772950635e-02 
       7.730680193171e-01       2.192946321221e-02 
       8.193049551574e-01       1.924533596510e-02 
       8.718988013754e-01       1.671767350617e-02 
       9.317218028590e-01       1.437174100416e-02 
       9.993660906273e-01       1.223720856542e-02 
       1.075037109879e+00       1.033807397939e-02 
       1.158653485387e+00       8.683986915763e-03 
       1.250099156961e+00       7.267579803282e-03 
       1.349432400897e+00       6.067121513028e-03 
       1.456947456991e+00       5.055914354340e-03 
       1.573135110893e+00       4.206986221833e-03 
       1.698621895119e+00       3.495646694127e-03 
       1.834127512423e+00       2.900454403676e-03 
       1.980444933977e+00       2.402932834333e-03 
       2.138435191130e+00       1.987514457906e-03 
       2.309029198543e+00       1.640960279431e-03 
       2.493232376993e+00       1.352146495120e-03 
       2.692130394536e+00       1.111621878681e-03 
       2.906895533764e+00       9.114821770892e-04 
       3.138793596840e+00       7.450574653062e-04 
       3.389191365541e+00       6.067903135327e-04 
       3.659564656886e+00       4.920000580243e-04 
       3.951507021438e+00       3.967909562967e-04 
       4.266739135513e+00       3.179159700850e-04 
       4.607118942658e+00       2.526778246236e-04 
       4.974652604172e+00       1.988300885376e-04 
       5.371506323193e+00       1.545271116683e-04 
       5.800019112071e+00       1.182387280662e-04 
       6.262716578240e+00       8.870571758662e-05 
       6.762325809881e+00       6.489204204165e-05 
       7.301791449077e+00       4.594180441847e-05 
       7.884293047211e+00       3.114253322335e-05 
       8.513263804891e+00       1.989062799661e-05 
       9.192410806865e+00       1.166438040772e-05 
       9.925736871166e+00       5.994306718240e-06 
       1.071756414128e+01       2.442470046507e-06 
       1.157255956041e+01       5.851319688137e-07 
       1.249576237789e+01       3.915282134663e-09 
       1.349261385000e+01       2.861913610670e-07 
       1.456898931011e+01       1.036182883578e-06 
       1.573123279727e+01       1.897296566915e-06 
       1.698619444729e+01       2.581444436905e-06 
       1.834127086665e+01       2.900234991730e-06 
       1.980444872733e+01       2.787387088487e-06 
       2.138435183937e+01       2.301303093290e-06 
       2.309029197863e+01       1.599707520906e-06 
       2.493232376942e+01       8.861234951020e-07 
       2.692130394533e+01       3.398556262068e-07 
       2.906895533764e+01       5.330059437275e-08 
       3.138793596840e+01       5.421982617363e-09 
       3.389191365541e+01       8.724864779112e-08 
       3.659564656886e+01       1.698975177138e-07 
       3.951507021438e+01       1.767519155503e-07 
       4.266739135513e+01       1.139184569528e-07 
       4.607118942658e+01       3.974330421668e-08 
       4.974652604172e+01       2.685196520630e-09 
       5.371506323193e+01       3.843228827909e-09 
       5.800019112071e+01       1.330304461474e-08 
       6.262716578240e+01       1.133930275448e-08 
       6.762325809881e+01       3.321697491775e-09 
