# Matter power spectrum P(k) at redshift z=99
# for k=1.04775e-05 to 66.1767 h/Mpc,
# number of wavenumbers equal to 130
#    1:k (h/Mpc)              2:P (Mpc/h)^3        
       1.047750691046e-05       7.261927683411e-03 
       1.319039970183e-05       9.069258205033e-03 
       1.660572937635e-05       1.132639107123e-02 
       2.090537469327e-05       1.414527123896e-02 
       2.631830744443e-05       1.766569584681e-02 
       3.313278603720e-05       2.206225516716e-02 
       4.171170630578e-05       2.755297767244e-02 
       5.251192703764e-05       3.441013524155e-02 
       6.610859936996e-05       4.297372174283e-02 
       8.322579568497e-05       5.366826854822e-02 
       1.047750691046e-04       6.702379875117e-02 
       1.319039970183e-04       8.370193444209e-02 
       1.660572937635e-04       1.045283355747e-01 
       2.090537469327e-04       1.305329134554e-01 
       2.631830744443e-04       1.629994507162e-01 
       3.313278603720e-04       2.035264005284e-01 
       4.171170630578e-04       2.541004745071e-01 
       5.251192703764e-04       3.171839529543e-01 
       6.610859936996e-04       3.958147257654e-01 
       8.322579568497e-04       4.937136007514e-01 
       1.047750691046e-03       6.153841637227e-01 
       1.319039970183e-03       7.661720593098e-01 
       1.660572937635e-03       9.522588015659e-01 
       2.090537469327e-03       1.180312991204e+00 
       2.631830744443e-03       1.456802683196e+00 
       3.313278603720e-03       1.786503850225e+00 
       4.171170630578e-03       2.169896197662e+00 
       5.251192703764e-03       2.599430607660e+00 
       6.610859936996e-03       3.055668650078e+00 
       8.322579568497e-03       3.505724946994e+00 
       1.047750691046e-02       3.905490867383e+00 
       1.319039970183e-02       4.200915255845e+00 
       1.660572937633e-02       4.325059448530e+00 
       2.090537453514e-02       4.210196708560e+00 
       2.631818545635e-02       3.825132337745e+00 
       3.311571692125e-02       3.229014131960e+00 
       4.113809243311e-02       2.627651387924e+00 
       4.792590854610e-02       2.280679178894e+00 
       5.284436902701e-02       2.109943366501e+00 
       5.689644391095e-02       2.003368933338e+00 
       6.051252627066e-02       1.922857916879e+00 
       6.388413457411e-02       1.852502624859e+00 
       6.711249296401e-02       1.784308597255e+00 
       7.025823437965e-02       1.713991050360e+00 
       7.336115587705e-02       1.639495064818e+00 
       7.644928796912e-02       1.560315195842e+00 
       7.954353299775e-02       1.477077261204e+00 
       8.266024078725e-02       1.391281108029e+00 
       8.581273398637e-02       1.305015689856e+00 
       8.901225918437e-02       1.220646725387e+00 
       9.226860540985e-02       1.140563033148e+00 
       9.559052048996e-02       1.066902025334e+00 
       9.898599946599e-02       1.001302633149e+00 
       1.024624891378e-01       9.447559349520e-01 
       1.060270359164e-01       8.974850627411e-01 
       1.096863943056e-01       8.589023903764e-01 
       1.134471073830e-01       8.276465545989e-01 
       1.173155669539e-01       8.016542168049e-01 
       1.212980586983e-01       7.783603065700e-01 
       1.254007961065e-01       7.549887233438e-01 
       1.296299459934e-01       7.289900982976e-01 
       1.339916477160e-01       6.985367029786e-01 
       1.384920277736e-01       6.629572866128e-01 
       1.431372111762e-01       6.229607771164e-01 
       1.479333307714e-01       5.805151438622e-01 
       1.528865355934e-01       5.383804355589e-01 
       1.580029992204e-01       4.994353666524e-01 
       1.632889290723e-01       4.659498748642e-01 
       1.687505775527e-01       4.390095872526e-01 
       1.743942559171e-01       4.182544723787e-01 
       1.802263517371e-01       4.019538742054e-01 
       1.862533508214e-01       3.875491096496e-01 
       1.924818644494e-01       3.722177243854e-01 
       1.989186627765e-01       3.537795551598e-01 
       2.055707152847e-01       3.318765344112e-01 
       2.124452391818e-01       3.080487682061e-01 
       2.195497567139e-01       2.848112370969e-01 
       2.268921624510e-01       2.643962645049e-01 
       2.344808017550e-01       2.479583645280e-01 
       2.423245618548e-01       2.351806468502e-01 
       2.504329772620e-01       2.243191672629e-01 
       2.588163516754e-01       2.131831484518e-01 
       2.674858990930e-01       2.004764109731e-01 
       2.764539076010e-01       1.864030200029e-01 
       2.857339303080e-01       1.724398229875e-01 
       2.953410092148e-01       1.602498044925e-01 
       3.052919395542e-01       1.503064557436e-01 
       3.156055844677e-01       1.417677671684e-01 
       3.263032530092e-01       1.333223692402e-01 
       3.374091587054e-01       1.242190540393e-01 
       3.489509817175e-01       1.149401460823e-01 
       3.609605657343e-01       1.064212569586e-01 
       3.734747921333e-01       9.908746908493e-02 
       3.865366902904e-01       9.240263982057e-02 
       4.001968667448e-01       8.569940004106e-02 
       4.145153713076e-01       7.895063656925e-02 
       4.295641718077e-01       7.262847914147e-02 
       4.454304922144e-01       6.689114406765e-02 
       4.622214006969e-01       6.145031521766e-02 
       4.800702491654e-01       5.606067399765e-02 
       4.991459272112e-01       5.090434485957e-02 
       5.196665217302e-01       4.609346569818e-02 
       5.419201087032e-01       4.140979542173e-02 
       5.662975451962e-01       3.686354511298e-02 
       5.933463737275e-01       3.250196177659e-02 
       6.238638458458e-01       2.822079575121e-02 
       6.590669257916e-01       2.402777216774e-02 
       7.009246080454e-01       1.985909308656e-02 
       7.528593308799e-01       1.567840597283e-02 
       8.213469537518e-01       1.143209285004e-02 
       9.196980813302e-01       7.134696729571e-03 
       1.075112183810e+00       3.120784937390e-03 
       1.322697471132e+00       5.154436388558e-04 
       1.662328205042e+00       2.765677942770e-05 
       2.092692408506e+00       4.134985859500e-04 
       2.634543445090e+00       3.849625883281e-04 
       3.316693691389e+00       5.141507337890e-05 
       4.175469971226e+00       1.896025760488e-05 
       5.256605252960e+00       1.790690869081e-05 
       6.617673932723e+00       1.445267704179e-06 
       8.331157880872e+00       3.318993046376e-07 
       1.048830636590e+01       1.655179893902e-07 
       1.320399541071e+01       1.976137800426e-08 
       1.662284535976e+01       8.096273907641e-10 
       2.092692243973e+01       4.421837329475e-12 
       2.634543445002e+01       6.232217464300e-13 
       3.316693691389e+01       1.827083276146e-14 
       4.175469971226e+01       1.008108158256e-15 
       5.256605252960e+01       2.802132599288e-17 
       6.617673932723e+01       2.257672636737e-18 
