# Matter power spectrum P(k) at redshift z=99
# for k=1.04775e-05 to 66.1767 h/Mpc,
# number of wavenumbers equal to 130
#    1:k (h/Mpc)              2:P (Mpc/h)^3        
       1.047750691046e-05       7.261927682104e-03 
       1.319039970183e-05       9.069258203405e-03 
       1.660572937635e-05       1.132639106919e-02 
       2.090537469327e-05       1.414527123641e-02 
       2.631830744443e-05       1.766569584365e-02 
       3.313278603720e-05       2.206225516318e-02 
       4.171170630578e-05       2.755297766746e-02 
       5.251192703764e-05       3.441013523537e-02 
       6.610859936996e-05       4.297372173512e-02 
       8.322579568497e-05       5.366826853860e-02 
       1.047750691046e-04       6.702379873919e-02 
       1.319039970183e-04       8.370193442720e-02 
       1.660572937635e-04       1.045283355562e-01 
       2.090537469327e-04       1.305329134325e-01 
       2.631830744443e-04       1.629994506878e-01 
       3.313278603720e-04       2.035264004940e-01 
       4.171170630578e-04       2.541004744658e-01 
       5.251192703764e-04       3.171839529061e-01 
       6.610859936996e-04       3.958147257112e-01 
       8.322579568497e-04       4.937136006992e-01 
       1.047750691046e-03       6.153841636780e-01 
       1.319039970183e-03       7.661720593298e-01 
       1.660572937635e-03       9.522588016697e-01 
       2.090537469327e-03       1.180312991570e+00 
       2.631830744443e-03       1.456802684051e+00 
       3.313278603720e-03       1.786503851980e+00 
       4.171170630578e-03       2.169896202928e+00 
       5.251192703764e-03       2.599430613822e+00 
       6.610859936996e-03       3.055668657475e+00 
       8.322579568497e-03       3.505724968241e+00 
       1.047750691046e-02       3.905491217201e+00 
       1.319039970183e-02       4.200917316073e+00 
       1.660572937633e-02       4.325061310691e+00 
       2.090537453514e-02       4.210198241560e+00 
       2.631818545635e-02       3.825140919940e+00 
       3.311571692125e-02       3.229032801449e+00 
       4.113809243311e-02       2.627671380637e+00 
       4.792590854610e-02       2.280727123282e+00 
       5.284436902701e-02       2.110002836973e+00 
       5.689644391095e-02       2.003439388149e+00 
       6.051252627066e-02       1.922942478028e+00 
       6.388413457411e-02       1.852605980514e+00 
       6.711249296401e-02       1.784421205809e+00 
       7.025823437965e-02       1.714116615700e+00 
       7.336115587705e-02       1.639639611535e+00 
       7.644928796912e-02       1.560475213483e+00 
       7.954353299775e-02       1.477257508851e+00 
       8.266024078725e-02       1.391481742213e+00 
       8.581273398637e-02       1.305229420957e+00 
       8.901225918437e-02       1.220880441500e+00 
       9.226860540985e-02       1.140817231558e+00 
       9.559052048996e-02       1.067171199262e+00 
       9.898599946599e-02       1.001592416948e+00 
       1.024624891378e-01       9.450690866379e-01 
       1.060270359164e-01       8.978156025112e-01 
       1.096863943056e-01       8.592595105701e-01 
       1.134471073830e-01       8.280293555026e-01 
       1.173155669539e-01       8.020656860818e-01 
       1.212980586983e-01       7.788057661295e-01 
       1.254007961065e-01       7.554663975822e-01 
       1.296299459934e-01       7.295035180132e-01 
       1.339916477160e-01       6.990868511096e-01 
       1.384920277736e-01       6.635470279983e-01 
       1.431372111762e-01       6.235868099803e-01 
       1.479333307714e-01       5.811774426783e-01 
       1.528865355934e-01       5.390830786874e-01 
       1.580029992204e-01       5.001768959111e-01 
       1.632889290723e-01       4.667337520049e-01 
       1.687505775527e-01       4.398373388300e-01 
       1.743942559171e-01       4.191332782106e-01 
       1.802263517371e-01       4.028881654105e-01 
       1.862533508214e-01       3.885459210844e-01 
       1.924818644494e-01       3.732764075668e-01 
       1.989186627765e-01       3.549034049337e-01 
       2.055707152847e-01       3.330612478827e-01 
       2.124452391818e-01       3.092941479163e-01 
       2.195497567139e-01       2.861159122738e-01 
       2.268921624510e-01       2.657636558451e-01 
       2.344808017550e-01       2.493944083046e-01 
       2.423245618548e-01       2.366942854324e-01 
       2.504329772620e-01       2.259189650717e-01 
       2.588163516754e-01       2.148701669372e-01 
       2.674858990930e-01       2.022475368192e-01 
       2.764539076010e-01       1.882534253422e-01 
       2.857339303080e-01       1.743679443403e-01 
       2.953410092148e-01       1.622616169081e-01 
       3.052919395542e-01       1.524126805832e-01 
       3.156055844677e-01       1.439753472661e-01 
       3.263032530092e-01       1.356322749850e-01 
       3.374091587054e-01       1.266266837602e-01 
       3.489509817175e-01       1.174415311427e-01 
       3.609605657343e-01       1.090200171227e-01 
       3.734747921333e-01       1.017939191176e-01 
       3.865366902904e-01       9.522229856579e-02 
       4.001968667448e-01       8.862961755606e-02 
       4.145153713076e-01       8.198706090253e-02 
       4.295641718077e-01       7.577499826188e-02 
       4.454304922144e-01       7.015312215176e-02 
       4.622214006969e-01       6.483063207382e-02 
       4.800702491654e-01       5.955551946461e-02 
       4.991459272112e-01       5.451442614835e-02 
       5.196665217302e-01       4.982341920496e-02 
       5.419201087032e-01       4.525730667786e-02 
       5.662975451962e-01       4.082658304700e-02 
       5.933463737275e-01       3.657997474196e-02 
       6.238638458458e-01       3.240793997562e-02 
       6.590669257916e-01       2.831676340265e-02 
       7.009246080454e-01       2.423378402311e-02 
       7.528593308799e-01       2.010911299354e-02 
       8.213469537518e-01       1.585499540828e-02 
       9.196980813302e-01       1.140007893872e-02 
       1.075112183810e+00       6.856323942416e-03 
       1.322697471132e+00       3.005282311925e-03 
       1.662328205042e+00       8.198660716383e-04 
       2.092692408506e+00       5.887393890840e-05 
       2.634543445090e+00       4.059000429902e-05 
       3.316693691389e+00       1.410462594937e-04 
       4.175469971226e+00       8.277511340596e-05 
       5.256605252960e+00       4.595418996899e-06 
       6.617673932723e+00       5.574049820221e-06 
       8.331157880872e+00       2.198128815469e-06 
       1.048830636590e+01       2.714540404780e-07 
       1.320399541071e+01       2.756701040159e-08 
       1.662284535976e+01       1.370122607800e-08 
       2.092692243973e+01       1.297249670187e-09 
       2.634543445002e+01       5.918813887452e-11 
       3.316693691389e+01       1.381902988575e-12 
       4.175469971226e+01       1.453640228304e-13 
       5.256605252960e+01       2.448777834760e-14 
       6.617673932723e+01       9.471554078557e-15 
