# Matter power spectrum P(k) at redshift z=99
# for k=1.04775e-05 to 67.6233 h/Mpc,
# number of wavenumbers equal to 246
#    1:k (h/Mpc)              2:P (Mpc/h)^3        
       1.047750691046e-05       7.261927681643e-03 
       1.131335172503e-05       7.820331653273e-03 
       1.221587619537e-05       8.421675996361e-03 
       1.319039970183e-05       9.069258202825e-03 
       1.424266597921e-05       9.766638413184e-03 
       1.537887696968e-05       1.051764070914e-02 
       1.660572937635e-05       1.132639106847e-02 
       1.793045413292e-05       1.219733232846e-02 
       1.936085902198e-05       1.313524225920e-02 
       2.090537469327e-05       1.414527123551e-02 
       2.257310435294e-05       1.523296273987e-02 
       2.437387741694e-05       1.640429446465e-02 
       2.631830744443e-05       1.766569584248e-02 
       2.841785469300e-05       1.902408737210e-02 
       3.068489366414e-05       2.048692972993e-02 
       3.313278603720e-05       2.206225516180e-02 
       3.577595942169e-05       2.375870707694e-02 
       3.862999239199e-05       2.558560730478e-02 
       4.171170630578e-05       2.755297766573e-02 
       4.503926444729e-05       2.967161930794e-02 
       4.863227907969e-05       3.195316454577e-02 
       5.251192703764e-05       3.441013523317e-02 
       5.670107454120e-05       3.705601726869e-02 
       6.122441196689e-05       3.990533418226e-02 
       6.610859936996e-05       4.297372173239e-02 
       7.138242361596e-05       4.627802147112e-02 
       7.707696804727e-05       4.983636199999e-02 
       8.322579568497e-05       5.366826853520e-02 
       8.986514704559e-05       5.779476401340e-02 
       9.703415373875e-05       6.223848251177e-02 
       1.047750691046e-04       6.702379873492e-02 
       1.131335172503e-04       7.217695161836e-02 
       1.221587619537e-04       7.772619082679e-02 
       1.319039970183e-04       8.370193442180e-02 
       1.424266597921e-04       9.013692518106e-02 
       1.537887696968e-04       9.706641253937e-02 
       1.660572937635e-04       1.045283355495e-01 
       1.793045413292e-04       1.125635350386e-01 
       1.936085902198e-04       1.212159616387e-01 
       2.090537469327e-04       1.305329134242e-01 
       2.257310435294e-04       1.405652847859e-01 
       2.437387741694e-04       1.513678304310e-01 
       2.631830744443e-04       1.629994506776e-01 
       2.841785469300e-04       1.755234923275e-01 
       3.068489366414e-04       1.890080672620e-01 
       3.313278603720e-04       2.035264004810e-01 
       3.577595942169e-04       2.191571806237e-01 
       3.862999239199e-04       2.359849440344e-01 
       4.171170630578e-04       2.541004744496e-01 
       4.503926444729e-04       2.736012083458e-01 
       4.863227907969e-04       2.945916794385e-01 
       5.251192703764e-04       3.171839528859e-01 
       5.670107454121e-04       3.414980767953e-01 
       6.122441196689e-04       3.676625417345e-01 
       6.610859936996e-04       3.958147256861e-01 
       7.138242361596e-04       4.261013289714e-01 
       7.707696804727e-04       4.586787797723e-01 
       8.322579568497e-04       4.937136006670e-01 
       8.986514704559e-04       5.313826807427e-01 
       9.703415373875e-04       5.718734978606e-01 
       1.047750691046e-03       6.153841636396e-01 
       1.131335172503e-03       6.621233246825e-01 
       1.221587619537e-03       7.123098228280e-01 
       1.319039970183e-03       7.661720592513e-01 
       1.424266597921e-03       8.239546306571e-01 
       1.537887696968e-03       8.859011182799e-01 
       1.660572937635e-03       9.522588016230e-01 
       1.793045413292e-03       1.023280100844e+00 
       1.936085902198e-03       1.099216305643e+00 
       2.090537469327e-03       1.180312991549e+00 
       2.257310435294e-03       1.266804116962e+00 
       2.437387741694e-03       1.358904854527e+00 
       2.631830744443e-03       1.456802684260e+00 
       2.841785469300e-03       1.560646891582e+00 
       3.068489366414e-03       1.670536063480e+00 
       3.313278603720e-03       1.786503853037e+00 
       3.577595942169e-03       1.908502931455e+00 
       3.862999239199e-03       2.036387731108e+00 
       4.171170630578e-03       2.169896191997e+00 
       4.503926444729e-03       2.308631878532e+00 
       4.863227907969e-03       2.452047289845e+00 
       5.251192703764e-03       2.599430626116e+00 
       5.670107454120e-03       2.749896928721e+00 
       6.122441196689e-03       2.902386508866e+00 
       6.610859936996e-03       3.055668689379e+00 
       7.138242361596e-03       3.208356452852e+00 
       7.707696804727e-03       3.358923880870e+00 
       8.322579568496e-03       3.505725579777e+00 
       8.986514704559e-03       3.647009417586e+00 
       9.703415373875e-03       3.780923278312e+00 
       1.047750691046e-02       3.905490587259e+00 
       1.131335172503e-02       4.018587598717e+00 
       1.221587619537e-02       4.117901528085e+00 
       1.319039970183e-02       4.200915272106e+00 
       1.424266597920e-02       4.264942243967e+00 
       1.537887696964e-02       4.307219192064e+00 
       1.660572937560e-02       4.325064039645e+00 
       1.793045412207e-02       4.316056867424e+00 
       1.936085889642e-02       4.278230332977e+00 
       2.090537351881e-02       4.210201969284e+00 
       2.257309534705e-02       4.111418338674e+00 
       2.437382002240e-02       3.982419788797e+00 
       2.631799943729e-02       3.825167459164e+00 
       2.841644544598e-02       3.643278765327e+00 
       3.067933354524e-02       3.442192193019e+00 
       3.311368469821e-02       3.229234712486e+00 
       3.571840442514e-02       3.013524596772e+00 
       3.847720347390e-02       2.805279612849e+00 
       4.135335537314e-02       2.614406652659e+00 
       4.429361666563e-02       2.448135358160e+00 
       4.724366437916e-02       2.309234879877e+00 
       5.016480834039e-02       2.196111853273e+00 
       5.303989618930e-02       2.104362068888e+00 
       5.586870668205e-02       2.028454164683e+00 
       5.866042679206e-02       1.963148108494e+00 
       6.142798931504e-02       1.903775650203e+00 
       6.418496438662e-02       1.846474429874e+00 
       6.694418832236e-02       1.788188087062e+00 
       6.971731104453e-02       1.726708966557e+00 
       7.251476154108e-02       1.660646735991e+00 
       7.534587669814e-02       1.589463111839e+00 
       7.821907664495e-02       1.513425705893e+00 
       8.114203771084e-02       1.433557715858e+00 
       8.412184533139e-02       1.351481424672e+00 
       8.716512277352e-02       1.269265790887e+00 
       9.027813693913e-02       1.189184429507e+00 
       9.346688429613e-02       1.113487473447e+00 
       9.673716026122e-02       1.044158657275e+00 
       1.000946150608e-01       9.826910089495e-01 
       1.035447986307e-01       9.299237717973e-01 
       1.070931966524e-01       8.859407300747e-01 
       1.107452594180e-01       8.500526184042e-01 
       1.145064248899e-01       8.207827582554e-01 
       1.183821370656e-01       7.960040456197e-01 
       1.223778605591e-01       7.731239178686e-01 
       1.264990921707e-01       7.494273655477e-01 
       1.307513701078e-01       7.225329343945e-01 
       1.351402814485e-01       6.908808513099e-01 
       1.396714683894e-01       6.541513550367e-01 
       1.443506337875e-01       6.133965507035e-01 
       1.491835464900e-01       5.708357741459e-01 
       1.541760469368e-01       5.293292573147e-01 
       1.593340535209e-01       4.916748915201e-01 
       1.646635701934e-01       4.598817352165e-01 
       1.701706958081e-01       4.346881479753e-01 
       1.758616357070e-01       4.153651489717e-01 
       1.817427160581e-01       3.998912791502e-01 
       1.878204014651e-01       3.856349085148e-01 
       1.941013163855e-01       3.697583754513e-01 
       2.005922709060e-01       3.504920132517e-01 
       2.073002914514e-01       3.279880581217e-01 
       2.142326570343e-01       3.041547906280e-01 
       2.213969417044e-01       2.815482512840e-01 
       2.288010639201e-01       2.621916902977e-01 
       2.364533436625e-01       2.468924296539e-01 
       2.443625682390e-01       2.349402704964e-01 
       2.525380678946e-01       2.243415061329e-01 
       2.609898025770e-01       2.130135105178e-01 
       2.697284614969e-01       2.000177035886e-01 
       2.787655775073e-01       1.859315156427e-01 
       2.881136588192e-01       1.724246069299e-01 
       2.977863412019e-01       1.609690239869e-01 
       3.077985646248e-01       1.516598633755e-01 
       3.181667793367e-01       1.434531744992e-01 
       3.289091877084e-01       1.350696530916e-01 
       3.400460298905e-01       1.260476016759e-01 
       3.515999235695e-01       1.170799970164e-01 
       3.635962710278e-01       1.090494023880e-01 
       3.760637505499e-01       1.021761362139e-01 
       3.890349143014e-01       9.579769808850e-02 
       4.025469215929e-01       8.936135653479e-02 
       4.166424455447e-01       8.295919667475e-02 
       4.313708034899e-01       7.705612119959e-02 
       4.467893781976e-01       7.173409753511e-02 
       4.629654198623e-01       6.669485224867e-02 
       4.799783500912e-01       6.173561544801e-02 
       4.979227318246e-01       5.703208138609e-02 
       5.169121269689e-01       5.270388822158e-02 
       5.370841403262e-01       4.856170748560e-02 
       5.586070463286e-01       4.457323626784e-02 
       5.816885093582e-01       4.082381544176e-02 
       6.065870143577e-01       3.725073428704e-02 
       6.336266466978e-01       3.382552060114e-02 
       6.632156057925e-01       3.057101426397e-02 
       6.958678637575e-01       2.745084670579e-02 
       7.322247983784e-01       2.447459009891e-02 
       7.730680193171e-01       2.163035814106e-02 
       8.193049551574e-01       1.892862599622e-02 
       8.718988013754e-01       1.638165336748e-02 
       9.317218028590e-01       1.401463982848e-02 
       9.993660906273e-01       1.185741243273e-02 
       1.075037109879e+00       9.934299817442e-03 
       1.158653485387e+00       8.255647747391e-03 
       1.250099156961e+00       6.814642874347e-03 
       1.349432400897e+00       5.590056389574e-03 
       1.456947456991e+00       4.555951335497e-03 
       1.573135110893e+00       3.685820174660e-03 
       1.698621895119e+00       2.955700539934e-03 
       1.834127512423e+00       2.344868672535e-03 
       1.980444933977e+00       1.835714318566e-03 
       2.138435191130e+00       1.413522751596e-03 
       2.309029198543e+00       1.065981541413e-03 
       2.493232376993e+00       7.828135302885e-04 
       2.692130394536e+00       5.554025485506e-04 
       2.906895533764e+00       3.764612072065e-04 
       3.138793596840e+00       2.396760433731e-04 
       3.389191365541e+00       1.394149232644e-04 
       3.659564656886e+00       7.043752354196e-05 
       3.951507021438e+00       2.764502166188e-05 
       4.266739135513e+00       5.910201324810e-06 
       4.607118942658e+00       2.821013072846e-09 
       4.974652604172e+00       4.648720265804e-06 
       5.371506323193e+00       1.473418606428e-05 
       5.800019112071e+00       2.565981163989e-05 
       6.262716578240e+00       3.378355067273e-05 
       6.762325809881e+00       3.685956472425e-05 
       7.301791449077e+00       3.432017265884e-05 
       7.884293047211e+00       2.725150985843e-05 
       8.513263804891e+00       1.795684932688e-05 
       9.192410806865e+00       9.146961182204e-06 
       9.925736871166e+00       2.966680713542e-06 
       1.071756414128e+01       2.373374463745e-07 
       1.157255956041e+01       2.829019904189e-07 
       1.249576237789e+01       1.480799205708e-06 
       1.349261385000e+01       2.269464271045e-06 
       1.456898931011e+01       1.999543121225e-06 
       1.573123279727e+01       1.062322969708e-06 
       1.698619444729e+01       2.569888078725e-07 
       1.834127086665e+01       1.804045952456e-10 
       1.980444872733e+01       9.668658529217e-08 
       2.138435183937e+01       1.638481451799e-07 
       2.309029197863e+01       9.148547875438e-08 
       2.493232376942e+01       1.227802289350e-08 
       2.692130394533e+01       2.442538268107e-09 
       2.906895533764e+01       1.155516982518e-08 
       3.138793596840e+01       5.263437678609e-09 
       3.389191365541e+01       7.179321559121e-11 
       3.659564656886e+01       6.620558449637e-10 
       3.951507021438e+01       3.673638351806e-10 
       4.266739135513e+01       2.336019221356e-14 
       4.607118942658e+01       3.800148625161e-11 
       4.974652604172e+01       2.150894942545e-12 
       5.371506323193e+01       2.215482279562e-12 
       5.800019112071e+01       9.680527901429e-14 
       6.262716578240e+01       9.413500818616e-14 
       6.762325809881e+01       1.699372987345e-14 
