# Matter power spectrum P(k) at redshift z=99
# for k=1.04775e-05 to 66.1767 h/Mpc,
# number of wavenumbers equal to 130
#    1:k (h/Mpc)              2:P (Mpc/h)^3        
       1.047750691046e-05       7.261927680862e-03 
       1.319039970183e-05       9.069258201849e-03 
       1.660572937635e-05       1.132639106725e-02 
       2.090537469327e-05       1.414527123399e-02 
       2.631830744443e-05       1.766569584058e-02 
       3.313278603720e-05       2.206225515942e-02 
       4.171170630578e-05       2.755297766277e-02 
       5.251192703764e-05       3.441013522947e-02 
       6.610859936996e-05       4.297372172778e-02 
       8.322579568497e-05       5.366826852944e-02 
       1.047750691046e-04       6.702379872774e-02 
       1.319039970183e-04       8.370193441286e-02 
       1.660572937635e-04       1.045283355384e-01 
       2.090537469327e-04       1.305329134104e-01 
       2.631830744443e-04       1.629994506605e-01 
       3.313278603720e-04       2.035264004601e-01 
       4.171170630578e-04       2.541004744243e-01 
       5.251192703764e-04       3.171839528557e-01 
       6.610859936996e-04       3.958147256513e-01 
       8.322579568497e-04       4.937136006276e-01 
       1.047750691046e-03       6.153841636042e-01 
       1.319039970183e-03       7.661720592283e-01 
       1.660572937635e-03       9.522588016471e-01 
       2.090537469327e-03       1.180312991700e+00 
       2.631830744443e-03       1.456802684686e+00 
       3.313278603720e-03       1.786503854046e+00 
       4.171170630578e-03       2.169896191524e+00 
       5.251192703764e-03       2.599430630718e+00 
       6.610859936996e-03       3.055668701139e+00 
       8.322579568497e-03       3.505725598421e+00 
       1.047750691046e-02       3.905491828930e+00 
       1.319039970183e-02       4.200915324532e+00 
       1.660572937633e-02       4.325061085437e+00 
       2.090537453514e-02       4.210200017815e+00 
       2.631818545635e-02       3.825147045668e+00 
       3.311571692125e-02       3.229070105951e+00 
       4.113809243311e-02       2.627729549223e+00 
       4.792590854610e-02       2.280790183171e+00 
       5.284436902701e-02       2.110084457917e+00 
       5.689644391095e-02       2.003538558511e+00 
       6.051252627066e-02       1.923057029972e+00 
       6.388413457411e-02       1.852734320792e+00 
       6.711249296401e-02       1.784564572375e+00 
       7.025823437965e-02       1.714275677107e+00 
       7.336115587705e-02       1.639816339488e+00 
       7.644928796912e-02       1.560661207214e+00 
       7.954353299775e-02       1.477455680766e+00 
       8.266024078725e-02       1.391699133659e+00 
       8.581273398637e-02       1.305464344880e+00 
       8.901225918437e-02       1.221130768810e+00 
       9.226860540985e-02       1.141082119009e+00 
       9.559052048996e-02       1.067455060090e+00 
       9.898599946599e-02       1.001889870165e+00 
       1.024624891378e-01       9.453832715055e-01 
       1.060270359164e-01       8.981495525621e-01 
       1.096863943056e-01       8.596159188550e-01 
       1.134471073830e-01       8.284039252765e-01 
       1.173155669539e-01       8.024681267033e-01 
       1.212980586983e-01       7.792296594151e-01 
       1.254007961065e-01       7.559171755360e-01 
       1.296299459934e-01       7.299811069334e-01 
       1.339916477160e-01       6.995927068508e-01 
       1.384920277736e-01       6.640782976704e-01 
       1.431372111762e-01       6.241467770657e-01 
       1.479333307714e-01       5.817631278145e-01 
       1.528865355934e-01       5.396950461790e-01 
       1.580029992204e-01       5.008150516396e-01 
       1.632889290723e-01       4.673984564437e-01 
       1.687505775527e-01       4.405339637630e-01 
       1.743942559171e-01       4.198657262148e-01 
       1.802263517371e-01       4.036601199162e-01 
       1.862533508214e-01       3.893601776034e-01 
       1.924818644494e-01       3.741349069529e-01 
       1.989186627765e-01       3.558018203370e-01 
       2.055707152847e-01       3.339984360233e-01 
       2.124452391818e-01       3.102651546541e-01 
       2.195497567139e-01       2.871225809343e-01 
       2.268921624510e-01       2.668078875088e-01 
       2.344808017550e-01       2.504832673905e-01 
       2.423245618548e-01       2.378329805869e-01 
       2.504329772620e-01       2.271117484817e-01 
       2.588163516754e-01       2.161173145397e-01 
       2.674858990930e-01       2.035457146279e-01 
       2.764539076010e-01       1.895972750355e-01 
       2.857339303080e-01       1.757573539395e-01 
       2.953410092148e-01       1.636997016102e-01 
       3.052919395542e-01       1.539065789841e-01 
       3.156055844677e-01       1.455308484622e-01 
       3.263032530092e-01       1.372497561524e-01 
       3.374091587054e-01       1.283017854256e-01 
       3.489509817175e-01       1.191713341558e-01 
       3.609605657343e-01       1.108071854589e-01 
       3.734747921333e-01       1.036450251596e-01 
       3.865366902904e-01       9.714141067833e-02 
       4.001968667448e-01       9.061565837302e-02 
       4.145153713076e-01       8.403687541826e-02 
       4.295641718077e-01       7.789120028728e-02 
       4.454304922144e-01       7.234178420238e-02 
       4.622214006969e-01       6.709355099636e-02 
       4.800702491654e-01       6.189180523321e-02 
       4.991459272112e-01       5.692637168948e-02 
       5.196665217302e-01       5.231596093257e-02 
       5.419201087032e-01       4.783271508394e-02 
       5.662975451962e-01       4.348674159535e-02 
       5.933463737275e-01       3.933095479702e-02 
       6.238638458458e-01       3.525335280955e-02 
       6.590669257916e-01       3.126279752427e-02 
       7.009246080454e-01       2.728715096761e-02 
       7.528593308799e-01       2.327827153361e-02 
       8.213469537518e-01       1.914809123749e-02 
       9.196980813302e-01       1.481687927372e-02 
       1.075112183810e+00       1.035070741916e-02 
       1.322697471132e+00       6.379247982482e-03 
       1.662328205042e+00       3.705444612637e-03 
       2.092692408506e+00       2.124300334231e-03 
       2.634543445090e+00       1.207724295724e-03 
       3.316693691389e+00       6.814593773378e-04 
       4.175469971226e+00       3.818699016378e-04 
       5.256605252960e+00       2.126216411375e-04 
       6.617673932723e+00       1.176708392003e-04 
       8.331157880872e+00       6.473976948696e-05 
       1.048830636590e+01       3.540340437274e-05 
       1.320399541071e+01       1.923213250556e-05 
       1.662284535976e+01       1.036335542698e-05 
       2.092692243973e+01       5.524277106556e-06 
       2.634543445002e+01       2.898726056955e-06 
       3.316693691389e+01       1.484335471852e-06 
       4.175469971226e+01       7.306893610321e-07 
       5.256605252960e+01       3.368548158839e-07 
       6.617673932723e+01       1.387341381942e-07 
