# Matter power spectrum P(k) at redshift z=0
# for k=1.04775e-05 to 67.6233 h/Mpc,
# number of wavenumbers equal to 246
#    1:k (h/Mpc)              2:P (Mpc/h)^3        
       1.047750691046e-05       5.020964811308e+01 
       1.131335172503e-05       5.407050701928e+01 
       1.221587619537e-05       5.822819068581e+01 
       1.319039970183e-05       6.270562594781e+01 
       1.424266597921e-05       6.752732240880e+01 
       1.537887696968e-05       7.271977206173e+01 
       1.660572937635e-05       7.831147247912e+01 
       1.793045413292e-05       8.433311821988e+01 
       1.936085902198e-05       9.081778249833e+01 
       2.090537469327e-05       9.780108069296e+01 
       2.257310435294e-05       1.053213197893e+02 
       2.437387741694e-05       1.134197377890e+02 
       2.631830744443e-05       1.221408203809e+02 
       2.841785469300e-05       1.315324642468e+02 
       3.068489366414e-05       1.416462094882e+02 
       3.313278603720e-05       1.525374501932e+02 
       3.577595942169e-05       1.642660688414e+02 
       3.862999239199e-05       1.768963506307e+02 
       4.171170630578e-05       1.904975994010e+02 
       4.503926444729e-05       2.051444491974e+02 
       4.863227907969e-05       2.209171465549e+02 
       5.251192703764e-05       2.379022224249e+02 
       5.670107454120e-05       2.561927927558e+02 
       6.122441196689e-05       2.758890444040e+02 
       6.610859936996e-05       2.970989227882e+02 
       7.138242361596e-05       3.199385560802e+02 
       7.707696804727e-05       3.445329783680e+02 
       8.322579568497e-05       3.710167318945e+02 
       8.986514704559e-05       3.995346444203e+02 
       9.703415373875e-05       4.302425407383e+02 
       1.047750691046e-04       4.633080766741e+02 
       1.131335172503e-04       4.989116271564e+02 
       1.221587619537e-04       5.372471950929e+02 
       1.319039970183e-04       5.785234129332e+02 
       1.424266597921e-04       6.229645936045e+02 
       1.537887696968e-04       6.708118490404e+02 
       1.660572937635e-04       7.223242666091e+02 
       1.793045413292e-04       7.777801560046e+02 
       1.936085902198e-04       8.374783614138e+02 
       2.090537469327e-04       9.017396271821e+02 
       2.257310435294e-04       9.709080268038e+02 
       2.437387741694e-04       1.045352449493e+03 
       2.631830744443e-04       1.125468123749e+03 
       2.841785469300e-04       1.211678180494e+03 
       3.068489366414e-04       1.304435250149e+03 
       3.313278603720e-04       1.404223053680e+03 
       3.577595942169e-04       1.511558014615e+03 
       3.862999239199e-04       1.626990837806e+03 
       4.171170630578e-04       1.751108028788e+03 
       4.503926444729e-04       1.884533382869e+03 
       4.863227907969e-04       2.027929378109e+03 
       5.251192703764e-04       2.181998448128e+03 
       5.670107454121e-04       2.347484102749e+03 
       6.122441196689e-04       2.525171871359e+03 
       6.610859936996e-04       2.715889983583e+03 
       7.138242361596e-04       2.920509688372e+03 
       7.707696804727e-04       3.139945100265e+03 
       8.322579568497e-04       3.375152337560e+03 
       8.986514704559e-04       3.627127831119e+03 
       9.703415373875e-04       3.896905453108e+03 
       1.047750691046e-03       4.185552174287e+03 
       1.131335172503e-03       4.494162430329e+03 
       1.221587619537e-03       4.823850706435e+03 
       1.319039970183e-03       5.175742738441e+03 
       1.424266597921e-03       5.551019596846e+03 
       1.537887696968e-03       5.950788340445e+03 
       1.660572937635e-03       6.376123051564e+03 
       1.793045413292e-03       6.828073901273e+03 
       1.936085902198e-03       7.307625380821e+03 
       2.090537469327e-03       7.815671868112e+03 
       2.257310435294e-03       8.352990375421e+03 
       2.437387741694e-03       8.920211063846e+03 
       2.631830744443e-03       9.517783068460e+03 
       2.841785469300e-03       1.014593704353e+04 
       3.068489366414e-03       1.080464502677e+04 
       3.313278603720e-03       1.149357460213e+04 
       3.577595942169e-03       1.221203621554e+04 
       3.862999239199e-03       1.295892539234e+04 
       4.171170630578e-03       1.373266008224e+04 
       4.503926444729e-03       1.453111835289e+04 
       4.863227907969e-03       1.535154973392e+04 
       5.251192703764e-03       1.619063543654e+04 
       5.670107454120e-03       1.704431253393e+04 
       6.122441196689e-03       1.790755979813e+04 
       6.610859936996e-03       1.877460436204e+04 
       7.138242361596e-03       1.963872551605e+04 
       7.707696804727e-03       2.049215699227e+04 
       8.322579568496e-03       2.132611344102e+04 
       8.986514704559e-03       2.213055702959e+04 
       9.703415373875e-03       2.289445719599e+04 
       1.047750691046e-02       2.360548285486e+04 
       1.131335172503e-02       2.425021620090e+04 
       1.221587619537e-02       2.481423422746e+04 
       1.319039970183e-02       2.528219654084e+04 
       1.424266597920e-02       2.563813820724e+04 
       1.537887696964e-02       2.586609647209e+04 
       1.660572937560e-02       2.595037667512e+04 
       1.793045412207e-02       2.587643661403e+04 
       1.936085889642e-02       2.563218710856e+04 
       2.090537351881e-02       2.520933429703e+04 
       2.257309534705e-02       2.460444955247e+04 
       2.437382002240e-02       2.382084950270e+04 
       2.631799943729e-02       2.287034146946e+04 
       2.841644544598e-02       2.177440593519e+04 
       3.067933354524e-02       2.056545127265e+04 
       3.311368469821e-02       1.928724065522e+04 
       3.571840442514e-02       1.799392943643e+04 
       3.847720347390e-02       1.674675905353e+04 
       4.135335537314e-02       1.560464061324e+04 
       4.429361666563e-02       1.461029989917e+04 
       4.724366437916e-02       1.378044475474e+04 
       5.016480834039e-02       1.310498711246e+04 
       5.303989618930e-02       1.255713835531e+04 
       5.586870668205e-02       1.210421942355e+04 
       5.866042679206e-02       1.171466405214e+04 
       6.142798931504e-02       1.136015963567e+04 
       6.418496438662e-02       1.101860719024e+04 
       6.694418832236e-02       1.067066980020e+04 
       6.971731104453e-02       1.030342790572e+04 
       7.251476154108e-02       9.909056891651e+03 
       7.534587669814e-02       9.483651993317e+03 
       7.821907664495e-02       9.029315855482e+03 
       8.114203771084e-02       8.552132614142e+03 
       8.412184533139e-02       8.061961317951e+03 
       8.716512277352e-02       7.570772569243e+03 
       9.027813693913e-02       7.092481422980e+03 
       9.346688429613e-02       6.640499535476e+03 
       9.673716026122e-02       6.226702952431e+03 
       1.000946150608e-01       5.859925913499e+03 
       1.035447986307e-01       5.545233236696e+03 
       1.070931966524e-01       5.283138712950e+03 
       1.107452594180e-01       5.069425991702e+03 
       1.145064248899e-01       4.895239548083e+03 
       1.183821370656e-01       4.747843693602e+03 
       1.223778605591e-01       4.611702862233e+03 
       1.264990921707e-01       4.470601664529e+03 
       1.307513701078e-01       4.310223918088e+03 
       1.351402814485e-01       4.121381175492e+03 
       1.396714683894e-01       3.902049914863e+03 
       1.443506337875e-01       3.658639391339e+03 
       1.491835464900e-01       3.404453635959e+03 
       1.541760469368e-01       3.156635351868e+03 
       1.593340535209e-01       2.931909623460e+03 
       1.646635701934e-01       2.742336368614e+03 
       1.701706958081e-01       2.592208139246e+03 
       1.758616357070e-01       2.477188686557e+03 
       1.817427160581e-01       2.385127086555e+03 
       1.878204014651e-01       2.300311887843e+03 
       1.941013163855e-01       2.205705176346e+03 
       2.005922709060e-01       2.090773232730e+03 
       2.073002914514e-01       1.956434142991e+03 
       2.142326570343e-01       1.814124914375e+03 
       2.213969417044e-01       1.679230333152e+03 
       2.288010639201e-01       1.563784626486e+03 
       2.364533436625e-01       1.472624789516e+03 
       2.443625682390e-01       1.401455535839e+03 
       2.525380678946e-01       1.338350784001e+03 
       2.609898025770e-01       1.270843216683e+03 
       2.697284614969e-01       1.193307397287e+03 
       2.787655775073e-01       1.109261029299e+03 
       2.881136588192e-01       1.028692750427e+03 
       2.977863412019e-01       9.604003708148e+02 
       3.077985646248e-01       9.049378116958e+02 
       3.181667793367e-01       8.560584728297e+02 
       3.289091877084e-01       8.060941645393e+02 
       3.400460298905e-01       7.522959840067e+02 
       3.515999235695e-01       6.988220351144e+02 
       3.635962710278e-01       6.509562856170e+02 
       3.760637505499e-01       6.100126428316e+02 
       3.890349143014e-01       5.720207210862e+02 
       4.025469215929e-01       5.336617028687e+02 
       4.166424455447e-01       4.955062316815e+02 
       4.313708034899e-01       4.603384654923e+02 
       4.467893781976e-01       4.286394543644e+02 
       4.629654198623e-01       3.986293246915e+02 
       4.799783500912e-01       3.690920619847e+02 
       4.979227318246e-01       3.410840526529e+02 
       5.169121269689e-01       3.153199477758e+02 
       5.370841403262e-01       2.906637936184e+02 
       5.586070463286e-01       2.669259205579e+02 
       5.816885093582e-01       2.446204302540e+02 
       6.065870143577e-01       2.233692376086e+02 
       6.336266466978e-01       2.030010015707e+02 
       6.632156057925e-01       1.836577352250e+02 
       6.958678637575e-01       1.651214051323e+02 
       7.322247983784e-01       1.474476687504e+02 
       7.730680193171e-01       1.305703173025e+02 
       8.193049551574e-01       1.145505621775e+02 
       8.718988013754e-01       9.946203967787e+01 
       9.317218028590e-01       8.545573917091e+01 
       9.993660906273e-01       7.270839969207e+01 
       1.075037109879e+00       6.136291352531e+01 
       1.158653485387e+00       5.147744718398e+01 
       1.250099156961e+00       4.300857599101e+01 
       1.349432400897e+00       3.582587625512e+01 
       1.456947456991e+00       2.977165108469e+01 
       1.573135110893e+00       2.468440038652e+01 
       1.698621895119e+00       2.041731886963e+01 
       1.834127512423e+00       1.684286091948e+01 
       1.980444933977e+00       1.385119052681e+01 
       2.138435191130e+00       1.135001382398e+01 
       2.309029198543e+00       9.260625897836e+00 
       2.493232376993e+00       7.517161261563e+00 
       2.692130394536e+00       6.063994058955e+00 
       2.906895533764e+00       4.854778307943e+00 
       3.138793596840e+00       3.850518367902e+00 
       3.389191365541e+00       3.018850040712e+00 
       3.659564656886e+00       2.332923962823e+00 
       3.951507021438e+00       1.770426707985e+00 
       4.266739135513e+00       1.312950028704e+00 
       4.607118942658e+00       9.451838825122e-01 
       4.974652604172e+00       6.544103034965e-01 
       5.371506323193e+00       4.298758450247e-01 
       5.800019112071e+00       2.622845058474e-01 
       6.262716578240e+00       1.433161018717e-01 
       6.762325809881e+00       6.524857859763e-02 
       7.301791449077e+00       2.059737049961e-02 
       7.884293047211e+00       1.924804422501e-03 
       8.513263804891e+00       1.784267105713e-03 
       9.192410806865e+00       1.287202266488e-02 
       9.925736871166e+00       2.836973923676e-02 
       1.071756414128e+01       4.247206967949e-02 
       1.157255956041e+01       5.097816439840e-02 
       1.249576237789e+01       5.180349913558e-02 
       1.349261385000e+01       4.519553038525e-02 
       1.456898931011e+01       3.347240116541e-02 
       1.573123279727e+01       2.020514856872e-02 
       1.698619444729e+01       8.982350085843e-03 
       1.834127086665e+01       2.144017557891e-03 
       1.980444872733e+01       6.031888230986e-06 
       2.138435183937e+01       9.973554912328e-04 
       2.309029197863e+01       2.714246081818e-03 
       2.493232376942e+01       3.332103215813e-03 
       2.692130394533e+01       2.493074182841e-03 
       2.906895533764e+01       1.083522906597e-03 
       3.138793596840e+01       1.610875975553e-04 
       3.389191365541e+01       2.067022968352e-05 
       3.659564656886e+01       2.051377762260e-04 
       3.951507021438e+01       2.358515113877e-04 
       4.266739135513e+01       9.712870900477e-05 
       4.607118942658e+01       5.054728054200e-06 
       4.974652604172e+01       9.919999419848e-06 
       5.371506323193e+01       1.889489330538e-05 
       5.800019112071e+01       5.523729591357e-06 
       6.262716578240e+01       3.065675591929e-08 
       6.762325809881e+01       1.451596274891e-06 
