# Matter power spectrum P(k) at redshift z=0
# for k=1.04775e-05 to 66.1767 h/Mpc,
# number of wavenumbers equal to 130
#    1:k (h/Mpc)              2:P (Mpc/h)^3        
       1.047750691046e-05       5.020964811308e+01 
       1.319039970183e-05       6.270562594773e+01 
       1.660572937635e-05       7.831147247912e+01 
       2.090537469327e-05       9.780108069295e+01 
       2.631830744443e-05       1.221408203810e+02 
       3.313278603720e-05       1.525374501932e+02 
       4.171170630578e-05       1.904975994010e+02 
       5.251192703764e-05       2.379022224249e+02 
       6.610859936996e-05       2.970989227881e+02 
       8.322579568497e-05       3.710167318946e+02 
       1.047750691046e-04       4.633080766742e+02 
       1.319039970183e-04       5.785234129337e+02 
       1.660572937635e-04       7.223242666092e+02 
       2.090537469327e-04       9.017396271824e+02 
       2.631830744443e-04       1.125468123750e+03 
       3.313278603720e-04       1.404223053681e+03 
       4.171170630578e-04       1.751108028790e+03 
       5.251192703764e-04       2.181998448133e+03 
       6.610859936996e-04       2.715889983592e+03 
       8.322579568497e-04       3.375152337133e+03 
       1.047750691046e-03       4.185552174306e+03 
       1.319039970183e-03       5.175742738749e+03 
       1.660572937635e-03       6.376123051780e+03 
       2.090537469327e-03       7.815671905126e+03 
       2.631830744443e-03       9.517783069107e+03 
       3.313278603720e-03       1.149357460344e+04 
       4.171170630578e-03       1.373266013203e+04 
       5.251192703764e-03       1.619063614260e+04 
       6.610859936996e-03       1.877460414934e+04 
       8.322579568497e-03       2.132607234195e+04 
       1.047750691046e-02       2.360548327683e+04 
       1.319039970183e-02       2.528218516511e+04 
       1.660572937633e-02       2.595026340952e+04 
       2.090537453514e-02       2.520934769622e+04 
       2.631818545635e-02       2.287036887503e+04 
       3.311571692125e-02       1.928624354533e+04 
       4.113809243311e-02       1.568427396498e+04 
       4.792590854610e-02       1.361063595217e+04 
       5.284436902701e-02       1.259128548314e+04 
       5.689644391095e-02       1.195557703358e+04 
       6.051252627066e-02       1.147547762010e+04 
       6.388413457411e-02       1.105591625840e+04 
       6.711249296401e-02       1.064900821902e+04 
       7.025823437965e-02       1.022925476324e+04 
       7.336115587705e-02       9.784514258365e+03 
       7.644928796912e-02       9.311633188707e+03 
       7.954353299775e-02       8.814534879303e+03 
       8.266024078725e-02       8.302176731174e+03 
       8.581273398637e-02       7.787007950909e+03 
       8.901225918437e-02       7.283216313618e+03 
       9.226860540985e-02       6.805223010204e+03 
       9.559052048996e-02       6.365653406719e+03 
       9.898599946599e-02       5.974404651094e+03 
       1.024624891378e-01       5.637357788582e+03 
       1.060270359164e-01       5.355808056794e+03 
       1.096863943056e-01       5.126248770353e+03 
       1.134471073830e-01       4.940505235475e+03 
       1.173155669539e-01       4.786169186966e+03 
       1.212980586983e-01       4.647944849237e+03 
       1.254007961065e-01       4.509135312780e+03 
       1.296299459934e-01       4.354552003721e+03 
       1.339916477160e-01       4.173230010762e+03 
       1.384920277736e-01       3.961168176644e+03 
       1.431372111762e-01       3.722681372350e+03 
       1.479333307714e-01       3.469540989690e+03 
       1.528865355934e-01       3.218334409514e+03 
       1.580029992204e-01       2.986273958195e+03 
       1.632889290723e-01       2.786964101860e+03 
       1.687505775527e-01       2.626819586088e+03 
       1.743942559171e-01       2.503766096401e+03 
       1.802263517371e-01       2.407327459140e+03 
       1.862533508214e-01       2.322244705601e+03 
       1.924818644494e-01       2.231550770568e+03 
       1.989186627765e-01       2.122181774776e+03 
       2.055707152847e-01       1.992024761386e+03 
       2.124452391818e-01       1.850317601427e+03 
       2.195497567139e-01       1.712167946088e+03 
       2.268921624510e-01       1.590987067972e+03 
       2.344808017550e-01       1.493664587604e+03 
       2.423245618548e-01       1.418304774349e+03 
       2.504329772620e-01       1.354461521002e+03 
       2.588163516754e-01       1.288928569762e+03 
       2.674858990930e-01       1.213935975727e+03 
       2.764539076010e-01       1.130690111792e+03 
       2.857339303080e-01       1.048096652817e+03 
       2.953410092148e-01       9.761785936334e+02 
       3.052919395542e-01       9.178079335278e+02 
       3.156055844677e-01       8.678944447953e+02 
       3.263032530092e-01       8.185225694004e+02 
       3.374091587054e-01       7.651415060616e+02 
       3.489509817175e-01       7.106690874296e+02 
       3.609605657343e-01       6.607832835619e+02 
       3.734747921333e-01       6.180816733163e+02 
       3.865366902904e-01       5.793062211637e+02 
       4.001968667448e-01       5.403883023914e+02 
       4.145153713076e-01       5.011488489824e+02 
       4.295641718077e-01       4.644963671247e+02 
       4.454304922144e-01       4.314039918569e+02 
       4.622214006969e-01       4.001102861377e+02 
       4.800702491654e-01       3.690862641775e+02 
       4.991459272112e-01       3.394724617578e+02 
       5.196665217302e-01       3.119808958775e+02 
       5.419201087032e-01       2.852428049407e+02 
       5.662975451962e-01       2.593274955500e+02 
       5.933463737275e-01       2.345436570899e+02 
       6.238638458458e-01       2.102260964071e+02 
       6.590669257916e-01       1.864293036415e+02 
       7.009246080454e-01       1.627213268184e+02 
       7.528593308799e-01       1.388135707497e+02 
       8.213469537518e-01       1.141826397064e+02 
       9.196980813302e-01       8.835346609894e+01 
       1.075112183810e+00       6.171990987925e+01 
       1.322697471132e+00       3.803589566875e+01 
       1.662328205042e+00       2.208981660305e+01 
       2.092692408506e+00       1.265988656292e+01 
       2.634543445090e+00       7.192714892014e+00 
       3.316693691389e+00       4.053012980315e+00 
       4.175469971226e+00       2.264900146170e+00 
       5.256605252960e+00       1.253968369400e+00 
       6.617673932723e+00       6.860657983260e-01 
       8.331157880872e+00       3.688478920343e-01 
       1.048830636590e+01       1.926487519189e-01 
       1.320399541071e+01       9.558444711339e-02 
       1.662284535976e+01       4.310375931671e-02 
       2.092692243973e+01       1.610581190863e-02 
       2.634543445002e+01       3.945467573052e-03 
       3.316693691389e+01       2.045123241138e-04 
       4.175469971226e+01       2.866780710141e-04 
       5.256605252960e+01       8.145419535460e-04 
       6.617673932723e+01       4.748124743516e-04 
