# Matter power spectrum P(k) at redshift z=99
# for k=1.04775e-05 to 66.1767 h/Mpc,
# number of wavenumbers equal to 130
#    1:k (h/Mpc)              2:P (Mpc/h)^3        
       1.047750691046e-05       7.261927680867e-03 
       1.319039970183e-05       9.069258201855e-03 
       1.660572937635e-05       1.132639106726e-02 
       2.090537469327e-05       1.414527123400e-02 
       2.631830744443e-05       1.766569584059e-02 
       3.313278603720e-05       2.206225515944e-02 
       4.171170630578e-05       2.755297766279e-02 
       5.251192703764e-05       3.441013522950e-02 
       6.610859936996e-05       4.297372172781e-02 
       8.322579568497e-05       5.366826852948e-02 
       1.047750691046e-04       6.702379872779e-02 
       1.319039970183e-04       8.370193441292e-02 
       1.660572937635e-04       1.045283355385e-01 
       2.090537469327e-04       1.305329134105e-01 
       2.631830744443e-04       1.629994506607e-01 
       3.313278603720e-04       2.035264004603e-01 
       4.171170630578e-04       2.541004744245e-01 
       5.251192703764e-04       3.171839528559e-01 
       6.610859936996e-04       3.958147256516e-01 
       8.322579568497e-04       4.937136006277e-01 
       1.047750691046e-03       6.153841636044e-01 
       1.319039970183e-03       7.661720592557e-01 
       1.660572937635e-03       9.522588016468e-01 
       2.090537469327e-03       1.180312991699e+00 
       2.631830744443e-03       1.456802684683e+00 
       3.313278603720e-03       1.786503854035e+00 
       4.171170630578e-03       2.169896197851e+00 
       5.251192703764e-03       2.599430630690e+00 
       6.610859936996e-03       3.055668710691e+00 
       8.322579568497e-03       3.505725136504e+00 
       1.047750691046e-02       3.905490893065e+00 
       1.319039970183e-02       4.200915277483e+00 
       1.660572937633e-02       4.325061892753e+00 
       2.090537453514e-02       4.210206756286e+00 
       2.631818545635e-02       3.825151262196e+00 
       3.311571692125e-02       3.229066002028e+00 
       4.113809243311e-02       2.627730225330e+00 
       4.792590854610e-02       2.280791791948e+00 
       5.284436902701e-02       2.110088316716e+00 
       5.689644391095e-02       2.003539120353e+00 
       6.051252627066e-02       1.923055289309e+00 
       6.388413457411e-02       1.852733679091e+00 
       6.711249296401e-02       1.784562774984e+00 
       7.025823437965e-02       1.714278945962e+00 
       7.336115587705e-02       1.639816322820e+00 
       7.644928796912e-02       1.560663089358e+00 
       7.954353299775e-02       1.477459230002e+00 
       8.266024078725e-02       1.391695741569e+00 
       8.581273398637e-02       1.305462444493e+00 
       8.901225918437e-02       1.221125777643e+00 
       9.226860540985e-02       1.141078313017e+00 
       9.559052048996e-02       1.067456236618e+00 
       9.898599946599e-02       1.001890171858e+00 
       1.024624891378e-01       9.453823709210e-01 
       1.060270359164e-01       8.981485854523e-01 
       1.096863943056e-01       8.596107454487e-01 
       1.134471073830e-01       8.284060604782e-01 
       1.173155669539e-01       8.024664357010e-01 
       1.212980586983e-01       7.792286071458e-01 
       1.254007961065e-01       7.559165083054e-01 
       1.296299459934e-01       7.299830311050e-01 
       1.339916477160e-01       6.995926515306e-01 
       1.384920277736e-01       6.640786087811e-01 
       1.431372111762e-01       6.241471359940e-01 
       1.479333307714e-01       5.817650937922e-01 
       1.528865355934e-01       5.396899647352e-01 
       1.580029992204e-01       5.008131484246e-01 
       1.632889290723e-01       4.673981310315e-01 
       1.687505775527e-01       4.405331349193e-01 
       1.743942559171e-01       4.198665196894e-01 
       1.802263517371e-01       4.036587395594e-01 
       1.862533508214e-01       3.893624925631e-01 
       1.924818644494e-01       3.741387270548e-01 
       1.989186627765e-01       3.558059036801e-01 
       2.055707152847e-01       3.340032194938e-01 
       2.124452391818e-01       3.102658540680e-01 
       2.195497567139e-01       2.871221322236e-01 
       2.268921624510e-01       2.668077780529e-01 
       2.344808017550e-01       2.504829726067e-01 
       2.423245618548e-01       2.378337154476e-01 
       2.504329772620e-01       2.271114660083e-01 
       2.588163516754e-01       2.161195418296e-01 
       2.674858990930e-01       2.035480896380e-01 
       2.764539076010e-01       1.895972480337e-01 
       2.857339303080e-01       1.757563887541e-01 
       2.953410092148e-01       1.636989890126e-01 
       3.052919395542e-01       1.539063722022e-01 
       3.156055844677e-01       1.455310995372e-01 
       3.263032530092e-01       1.372504645399e-01 
       3.374091587054e-01       1.283015191779e-01 
       3.489509817175e-01       1.191715129958e-01 
       3.609605657343e-01       1.108073628691e-01 
       3.734747921333e-01       1.036447194877e-01 
       3.865366902904e-01       9.714129529228e-02 
       4.001968667448e-01       9.061554690351e-02 
       4.145153713076e-01       8.403668224283e-02 
       4.295641718077e-01       7.789110217232e-02 
       4.454304922144e-01       7.234176012693e-02 
       4.622214006969e-01       6.709376321518e-02 
       4.800702491654e-01       6.189167899735e-02 
       4.991459272112e-01       5.692630967511e-02 
       5.196665217302e-01       5.231621687116e-02 
       5.419201087032e-01       4.783249911912e-02 
       5.662975451962e-01       4.348688110788e-02 
       5.933463737275e-01       3.933098978345e-02 
       6.238638458458e-01       3.525341149932e-02 
       6.590669257916e-01       3.126286707452e-02 
       7.009246080454e-01       2.728727046938e-02 
       7.528593308799e-01       2.327832737173e-02 
       8.213469537518e-01       1.914817561411e-02 
       9.196980813302e-01       1.481701803593e-02 
       1.075112183810e+00       1.035087761059e-02 
       1.322697471132e+00       6.379396963815e-03 
       1.662328205042e+00       3.705604424614e-03 
       2.092692408506e+00       2.124475306360e-03 
       2.634543445090e+00       1.207903419527e-03 
       3.316693691389e+00       6.816522901033e-04 
       4.175469971226e+00       3.820638998379e-04 
       5.256605252960e+00       2.128192899165e-04 
       6.617673932723e+00       1.178700775752e-04 
       8.331157880872e+00       6.493733865290e-05 
       1.048830636590e+01       3.559857817870e-05 
       1.320399541071e+01       1.942270380880e-05 
       1.662284535976e+01       1.054768792209e-05 
       2.092692243973e+01       5.700487905199e-06 
       2.634543445002e+01       3.064437278035e-06 
       3.316693691389e+01       1.636901011562e-06 
       4.175469971226e+01       8.670996283335e-07 
       5.256605252960e+01       4.538785359204e-07 
       6.617673932723e+01       2.333050371814e-07 
