# Matter power spectrum P(k) at redshift z=0
# for k=1.04775e-05 to 66.1767 h/Mpc,
# number of wavenumbers equal to 130
#    1:k (h/Mpc)              2:P (Mpc/h)^3        
       1.047750691046e-05       5.020964811306e+01 
       1.319039970183e-05       6.270562594779e+01 
       1.660572937635e-05       7.831147247912e+01 
       2.090537469327e-05       9.780108069294e+01 
       2.631830744443e-05       1.221408203809e+02 
       3.313278603720e-05       1.525374501932e+02 
       4.171170630578e-05       1.904975994010e+02 
       5.251192703764e-05       2.379022224249e+02 
       6.610859936996e-05       2.970989227882e+02 
       8.322579568497e-05       3.710167318946e+02 
       1.047750691046e-04       4.633080766742e+02 
       1.319039970183e-04       5.785234129337e+02 
       1.660572937635e-04       7.223242666092e+02 
       2.090537469327e-04       9.017396271824e+02 
       2.631830744443e-04       1.125468123750e+03 
       3.313278603720e-04       1.404223053681e+03 
       4.171170630578e-04       1.751108028790e+03 
       5.251192703764e-04       2.181998448133e+03 
       6.610859936996e-04       2.715889983592e+03 
       8.322579568497e-04       3.375152337134e+03 
       1.047750691046e-03       4.185552174306e+03 
       1.319039970183e-03       5.175742740951e+03 
       1.660572937635e-03       6.376123051775e+03 
       2.090537469327e-03       7.815671866231e+03 
       2.631830744443e-03       9.517783069112e+03 
       3.313278603720e-03       1.149357460346e+04 
       4.171170630578e-03       1.373266009658e+04 
       5.251192703764e-03       1.619063614557e+04 
       6.610859936996e-03       1.877460423439e+04 
       8.322579568497e-03       2.132607231912e+04 
       1.047750691046e-02       2.360548752057e+04 
       1.319039970183e-02       2.528218612540e+04 
       1.660572937633e-02       2.595025617295e+04 
       2.090537453514e-02       2.520936821572e+04 
       2.631818545635e-02       2.287035036974e+04 
       3.311571692125e-02       1.928632998449e+04 
       4.113809243311e-02       1.568424788728e+04 
       4.792590854610e-02       1.361064169211e+04 
       5.284436902701e-02       1.259130177137e+04 
       5.689644391095e-02       1.195557679426e+04 
       6.051252627066e-02       1.147546705149e+04 
       6.388413457411e-02       1.105590015154e+04 
       6.711249296401e-02       1.064900181910e+04 
       7.025823437965e-02       1.022930179124e+04 
       7.336115587705e-02       9.784524309620e+03 
       7.644928796912e-02       9.311655766837e+03 
       7.954353299775e-02       8.814525100623e+03 
       8.266024078725e-02       8.302127144145e+03 
       8.581273398637e-02       7.786945031946e+03 
       8.901225918437e-02       7.283164196114e+03 
       9.226860540985e-02       6.805165415977e+03 
       9.559052048996e-02       6.365637593730e+03 
       9.898599946599e-02       5.974393576648e+03 
       1.024624891378e-01       5.637328591782e+03 
       1.060270359164e-01       5.355772215470e+03 
       1.096863943056e-01       5.126235904182e+03 
       1.134471073830e-01       4.940487575615e+03 
       1.173155669539e-01       4.786170118642e+03 
       1.212980586983e-01       4.647942081929e+03 
       1.254007961065e-01       4.509144067976e+03 
       1.296299459934e-01       4.354546941490e+03 
       1.339916477160e-01       4.173213643977e+03 
       1.384920277736e-01       3.961166530383e+03 
       1.431372111762e-01       3.722678912812e+03 
       1.479333307714e-01       3.469532122573e+03 
       1.528865355934e-01       3.218336392497e+03 
       1.580029992204e-01       2.986293708400e+03 
       1.632889290723e-01       2.786969913958e+03 
       1.687505775527e-01       2.626828317062e+03 
       1.743942559171e-01       2.503758386564e+03 
       1.802263517371e-01       2.407341571103e+03 
       1.862533508214e-01       2.322248810132e+03 
       1.924818644494e-01       2.231552853702e+03 
       1.989186627765e-01       2.122185289529e+03 
       2.055707152847e-01       1.992027914102e+03 
       2.124452391818e-01       1.850332921849e+03 
       2.195497567139e-01       1.712186866438e+03 
       2.268921624510e-01       1.590989276326e+03 
       2.344808017550e-01       1.493666222564e+03 
       2.423245618548e-01       1.418309853559e+03 
       2.504329772620e-01       1.354468106283e+03 
       2.588163516754e-01       1.288938620236e+03 
       2.674858990930e-01       1.213935163593e+03 
       2.764539076010e-01       1.130691000002e+03 
       2.857339303080e-01       1.048100623047e+03 
       2.953410092148e-01       9.761821683373e+02 
       3.052919395542e-01       9.178097052758e+02 
       3.156055844677e-01       8.678973110465e+02 
       3.263032530092e-01       8.185262004149e+02 
       3.374091587054e-01       7.651455199886e+02 
       3.489509817175e-01       7.106725051796e+02 
       3.609605657343e-01       6.607866549400e+02 
       3.734747921333e-01       6.180860680276e+02 
       3.865366902904e-01       5.793097882000e+02 
       4.001968667448e-01       5.403898964021e+02 
       4.145153713076e-01       5.011515963169e+02 
       4.295641718077e-01       4.644988788347e+02 
       4.454304922144e-01       4.314086273991e+02 
       4.622214006969e-01       4.001135548365e+02 
       4.800702491654e-01       3.690889630130e+02 
       4.991459272112e-01       3.394758625045e+02 
       5.196665217302e-01       3.119853273935e+02 
       5.419201087032e-01       2.852476192865e+02 
       5.662975451962e-01       2.593304656315e+02 
       5.933463737275e-01       2.345481401844e+02 
       6.238638458458e-01       2.102308606233e+02 
       6.590669257916e-01       1.864337155232e+02 
       7.009246080454e-01       1.627250558897e+02 
       7.528593308799e-01       1.388183417472e+02 
       8.213469537518e-01       1.141882401291e+02 
       9.196980813302e-01       8.835927019269e+01 
       1.075112183810e+00       6.172613656294e+01 
       1.322697471132e+00       3.804282103705e+01 
       1.662328205042e+00       2.209788566746e+01 
       2.092692408506e+00       1.266909517463e+01 
       2.634543445090e+00       7.203287401566e+00 
       3.316693691389e+00       4.065111941348e+00 
       4.175469971226e+00       2.278597549654e+00 
       5.256605252960e+00       1.269343092346e+00 
       6.617673932723e+00       7.031318029229e-01 
       8.331157880872e+00       3.874749418526e-01 
       1.048830636590e+01       2.125096088748e-01 
       1.320399541071e+01       1.160359933684e-01 
       1.662284535976e+01       6.309888258792e-02 
       2.092692243973e+01       3.417934755271e-02 
       2.634543445002e+01       1.844589242834e-02 
       3.316693691389e+01       9.918972184359e-03 
       4.175469971226e+01       5.314432777963e-03 
       5.256605252960e+01       2.836514486266e-03 
       6.617673932723e+01       1.507523784325e-03 
