# Matter power spectrum P(k) at redshift z=0
# for k=1.04775e-05 to 66.1767 h/Mpc,
# number of wavenumbers equal to 130
#    1:k (h/Mpc)              2:P (Mpc/h)^3        
       1.047750691046e-05       5.020964811307e+01 
       1.319039970183e-05       6.270562594779e+01 
       1.660572937635e-05       7.831147247912e+01 
       2.090537469327e-05       9.780108069296e+01 
       2.631830744443e-05       1.221408203809e+02 
       3.313278603720e-05       1.525374501932e+02 
       4.171170630578e-05       1.904975994010e+02 
       5.251192703764e-05       2.379022224249e+02 
       6.610859936996e-05       2.970989227882e+02 
       8.322579568497e-05       3.710167318945e+02 
       1.047750691046e-04       4.633080766742e+02 
       1.319039970183e-04       5.785234129343e+02 
       1.660572937635e-04       7.223242666092e+02 
       2.090537469327e-04       9.017396271824e+02 
       2.631830744443e-04       1.125468123750e+03 
       3.313278603720e-04       1.404223053681e+03 
       4.171170630578e-04       1.751108028790e+03 
       5.251192703764e-04       2.181998448133e+03 
       6.610859936996e-04       2.715889983592e+03 
       8.322579568497e-04       3.375152337134e+03 
       1.047750691046e-03       4.185552174306e+03 
       1.319039970183e-03       5.175742742041e+03 
       1.660572937635e-03       6.376123051775e+03 
       2.090537469327e-03       7.815671854480e+03 
       2.631830744443e-03       9.517783069112e+03 
       3.313278603720e-03       1.149357460346e+04 
       4.171170630578e-03       1.373266009888e+04 
       5.251192703764e-03       1.619063614560e+04 
       6.610859936996e-03       1.877460414403e+04 
       8.322579568497e-03       2.132607231810e+04 
       1.047750691046e-02       2.360547729437e+04 
       1.319039970183e-02       2.528218776066e+04 
       1.660572937633e-02       2.595025783276e+04 
       2.090537453514e-02       2.520934954617e+04 
       2.631818545635e-02       2.287032147568e+04 
       3.311571692125e-02       1.928620827136e+04 
       4.113809243311e-02       1.568427092353e+04 
       4.792590854610e-02       1.361065680250e+04 
       5.284436902701e-02       1.259128778974e+04 
       5.689644391095e-02       1.195555976504e+04 
       6.051252627066e-02       1.147546825673e+04 
       6.388413457411e-02       1.105589986497e+04 
       6.711249296401e-02       1.064900762739e+04 
       7.025823437965e-02       1.022929646053e+04 
       7.336115587705e-02       9.784497912734e+03 
       7.644928796912e-02       9.311654528176e+03 
       7.954353299775e-02       8.814540138361e+03 
       8.266024078725e-02       8.302119730175e+03 
       8.581273398637e-02       7.786953090465e+03 
       8.901225918437e-02       7.283194944755e+03 
       9.226860540985e-02       6.805154583517e+03 
       9.559052048996e-02       6.365634970046e+03 
       9.898599946599e-02       5.974391582680e+03 
       1.024624891378e-01       5.637319315156e+03 
       1.060270359164e-01       5.355769705019e+03 
       1.096863943056e-01       5.126265845240e+03 
       1.134471073830e-01       4.940475457571e+03 
       1.173155669539e-01       4.786166421444e+03 
       1.212980586983e-01       4.647937338937e+03 
       1.254007961065e-01       4.509141532351e+03 
       1.296299459934e-01       4.354551751265e+03 
       1.339916477160e-01       4.173214097899e+03 
       1.384920277736e-01       3.961166408308e+03 
       1.431372111762e-01       3.722687630565e+03 
       1.479333307714e-01       3.469548611600e+03 
       1.528865355934e-01       3.218335055957e+03 
       1.580029992204e-01       2.986297948846e+03 
       1.632889290723e-01       2.786968927020e+03 
       1.687505775527e-01       2.626827457464e+03 
       1.743942559171e-01       2.503757190113e+03 
       1.802263517371e-01       2.407341839099e+03 
       1.862533508214e-01       2.322250974026e+03 
       1.924818644494e-01       2.231550433112e+03 
       1.989186627765e-01       2.122189638567e+03 
       2.055707152847e-01       1.992020338173e+03 
       2.124452391818e-01       1.850329219061e+03 
       2.195497567139e-01       1.712181889977e+03 
       2.268921624510e-01       1.590989278072e+03 
       2.344808017550e-01       1.493672654070e+03 
       2.423245618548e-01       1.418308638609e+03 
       2.504329772620e-01       1.354465539178e+03 
       2.588163516754e-01       1.288935836003e+03 
       2.674858990930e-01       1.213936210522e+03 
       2.764539076010e-01       1.130691678757e+03 
       2.857339303080e-01       1.048105453476e+03 
       2.953410092148e-01       9.761817476183e+02 
       3.052919395542e-01       9.178110043718e+02 
       3.156055844677e-01       8.678990497021e+02 
       3.263032530092e-01       8.185257935567e+02 
       3.374091587054e-01       7.651466849008e+02 
       3.489509817175e-01       7.106704257563e+02 
       3.609605657343e-01       6.607852031583e+02 
       3.734747921333e-01       6.180868688901e+02 
       3.865366902904e-01       5.793122777462e+02 
       4.001968667448e-01       5.403935317833e+02 
       4.145153713076e-01       5.011512531004e+02 
       4.295641718077e-01       4.644980863049e+02 
       4.454304922144e-01       4.314073987721e+02 
       4.622214006969e-01       4.001138001008e+02 
       4.800702491654e-01       3.690893393963e+02 
       4.991459272112e-01       3.394758957546e+02 
       5.196665217302e-01       3.119858859008e+02 
       5.419201087032e-01       2.852470945737e+02 
       5.662975451962e-01       2.593304361842e+02 
       5.933463737275e-01       2.345482988508e+02 
       6.238638458458e-01       2.102305901026e+02 
       6.590669257916e-01       1.864332784978e+02 
       7.009246080454e-01       1.627258640329e+02 
       7.528593308799e-01       1.388188176184e+02 
       8.213469537518e-01       1.141883707425e+02 
       9.196980813302e-01       8.835926574670e+01 
       1.075112183810e+00       6.172620553809e+01 
       1.322697471132e+00       3.804290749885e+01 
       1.662328205042e+00       2.209793226520e+01 
       2.092692408506e+00       1.266921265907e+01 
       2.634543445090e+00       7.203353410046e+00 
       3.316693691389e+00       4.065135270281e+00 
       4.175469971226e+00       2.278625042198e+00 
       5.256605252960e+00       1.269348698542e+00 
       6.617673932723e+00       7.031254571029e-01 
       8.331157880872e+00       3.874695463955e-01 
       1.048830636590e+01       2.125004098809e-01 
       1.320399541071e+01       1.160265504769e-01 
       1.662284535976e+01       6.308863525023e-02 
       2.092692243973e+01       3.416962996112e-02 
       2.634543445002e+01       1.843610651300e-02 
       3.316693691389e+01       9.909516857474e-03 
       4.175469971226e+01       5.305510910170e-03 
       5.256605252960e+01       2.828003093380e-03 
       6.617673932723e+01       1.499412310809e-03 
