# Matter power spectrum P(k) at redshift z=99
# for k=1.04775e-05 to 67.6233 h/Mpc,
# number of wavenumbers equal to 246
#    1:k (h/Mpc)              2:P (Mpc/h)^3        
       1.047750691046e-05       7.262584310611e-03 
       1.131335172503e-05       7.821039672551e-03 
       1.221587619537e-05       8.422437158621e-03 
       1.319039970183e-05       9.070077893332e-03 
       1.424266597921e-05       9.767520260522e-03 
       1.537887696968e-05       1.051859037324e-02 
       1.660572937635e-05       1.132741477898e-02 
       1.793045413292e-05       1.219843294550e-02 
       1.936085902198e-05       1.313642679926e-02 
       2.090537469327e-05       1.414654794348e-02 
       2.257310435294e-05       1.523434068162e-02 
       2.437387741694e-05       1.640577776329e-02 
       2.631830744443e-05       1.766729066047e-02 
       2.841785469300e-05       1.902580493744e-02 
       3.068489366414e-05       2.048877976050e-02 
       3.313278603720e-05       2.206424688621e-02 
       3.577595942169e-05       2.376085456186e-02 
       3.862999239199e-05       2.558791829716e-02 
       4.171170630578e-05       2.755546605080e-02 
       4.503926444729e-05       2.967429955490e-02 
       4.863227907969e-05       3.195605066886e-02 
       5.251192703764e-05       3.441324313086e-02 
       5.670107454120e-05       3.705936413352e-02 
       6.122441196689e-05       3.990893766790e-02 
       6.610859936996e-05       4.297760194489e-02 
       7.138242361596e-05       4.628220032420e-02 
       7.707696804727e-05       4.984086086392e-02 
       8.322579568497e-05       5.367311289103e-02 
       8.986514704559e-05       5.779997746599e-02 
       9.703415373875e-05       6.224409759134e-02 
       1.047750691046e-04       6.702984108044e-02 
       1.131335172503e-04       7.218345517246e-02 
       1.221587619537e-04       7.773319143296e-02 
       1.319039970183e-04       8.370946938923e-02 
       1.424266597921e-04       9.014503406615e-02 
       1.537887696968e-04       9.707513578108e-02 
       1.660572937635e-04       1.045377202035e-01 
       1.793045413292e-04       1.125736284588e-01 
       1.936085902198e-04       1.212268161216e-01 
       2.090537469327e-04       1.305445838012e-01 
       2.257310435294e-04       1.405778285539e-01 
       2.437387741694e-04       1.513813093549e-01 
       2.631830744443e-04       1.630139286151e-01 
       2.841785469300e-04       1.755390353652e-01 
       3.068489366414e-04       1.890247476546e-01 
       3.313278603720e-04       2.035442883935e-01 
       3.577595942169e-04       2.191763506535e-01 
       3.862999239199e-04       2.360054713263e-01 
       4.171170630578e-04       2.541224302556e-01 
       4.503926444729e-04       2.736246666433e-01 
       4.863227907969e-04       2.946167074703e-01 
       5.251192703764e-04       3.172106100999e-01 
       5.670107454121e-04       3.415264131018e-01 
       6.122441196689e-04       3.676925894972e-01 
       6.610859936996e-04       3.958464946021e-01 
       7.138242361596e-04       4.261347983720e-01 
       7.707696804727e-04       4.587138878419e-01 
       8.322579568497e-04       4.937502225885e-01 
       8.986514704559e-04       5.314206250105e-01 
       9.703415373875e-04       5.719124694576e-01 
       1.047750691046e-03       6.154237389531e-01 
       1.131335172503e-03       6.621629090677e-01 
       1.221587619537e-03       7.123485966192e-01 
       1.319039970183e-03       7.662089175493e-01 
       1.424266597921e-03       8.239881472953e-01 
       1.537887696968e-03       8.859291753692e-01 
       1.660572937635e-03       9.522785556594e-01 
       1.793045413292e-03       1.023287822489e+00 
       1.936085902198e-03       1.099207085645e+00 
       2.090537469327e-03       1.180280357992e+00 
       2.257310435294e-03       1.266739510164e+00 
       2.437387741694e-03       1.358796950804e+00 
       2.631830744443e-03       1.456636492252e+00 
       2.841785469300e-03       1.560402414918e+00 
       3.068489366414e-03       1.670186692453e+00 
       3.313278603720e-03       1.786014050014e+00 
       3.577595942169e-03       1.907825226429e+00 
       3.862999239199e-03       2.035458464519e+00 
       4.171170630578e-03       2.168630094934e+00 
       4.503926444729e-03       2.306914376404e+00 
       4.863227907969e-03       2.449724855475e+00 
       5.251192703764e-03       2.596297610873e+00 
       5.670107454120e-03       2.745678225704e+00 
       6.122441196689e-03       2.896714666263e+00 
       6.610859936996e-03       3.048056191362e+00 
       7.138242361596e-03       3.198157768322e+00 
       7.707696804727e-03       3.345291052611e+00 
       8.322579568496e-03       3.487548178672e+00 
       8.986514704559e-03       3.622848175402e+00 
       9.703415373875e-03       3.748919033141e+00 
       1.047750691046e-02       3.863266936407e+00 
       1.131335172503e-02       3.963125077507e+00 
       1.221587619537e-02       4.045391596010e+00 
       1.319039970183e-02       4.106592852013e+00 
       1.424266597920e-02       4.142894811808e+00 
       1.537887696964e-02       4.150175447546e+00 
       1.660572937560e-02       4.124196913426e+00 
       1.793045412207e-02       4.060806194622e+00 
       1.936085889642e-02       3.956164221524e+00 
       2.090537351881e-02       3.807036747106e+00 
       2.257309534705e-02       3.611158610993e+00 
       2.437382002240e-02       3.367754312982e+00 
       2.631799943729e-02       3.078244230896e+00 
       2.841644544598e-02       2.746904364871e+00 
       3.067933354524e-02       2.381698125149e+00 
       3.311368469821e-02       1.994846141633e+00 
       3.571840442514e-02       1.603267418210e+00 
       3.847720347390e-02       1.227728666876e+00 
       4.135335537314e-02       8.897650497306e-01 
       4.429361666563e-02       6.063898622927e-01 
       4.724366437916e-02       3.854705431962e-01 
       5.016480834039e-02       2.251264150647e-01 
       5.303989618930e-02       1.170375478019e-01 
       5.586870668205e-02       5.047119718922e-02 
       5.866042679206e-02       1.490830618920e-02 
       6.142798931504e-02       1.153619463924e-03 
       6.418496438662e-02       1.630629313260e-03 
       6.694418832236e-02       1.032552173981e-02 
       6.971731104453e-02       2.263526229731e-02 
       7.251476154108e-02       3.519971587833e-02 
       7.534587669814e-02       4.574554801642e-02 
       7.821907664495e-02       5.292744096690e-02 
       8.114203771084e-02       5.618303227042e-02 
       8.412184533139e-02       5.557005878543e-02 
       8.716512277352e-02       5.160861029899e-02 
       9.027813693913e-02       4.511732462846e-02 
       9.346688429613e-02       3.706822710471e-02 
       9.673716026122e-02       2.844500553701e-02 
       1.000946150608e-01       2.013468126012e-02 
       1.035447986307e-01       1.284567359137e-02 
       1.070931966524e-01       7.060845910916e-03 
       1.107452594180e-01       3.019548249162e-03 
       1.145064248899e-01       7.297516909416e-04 
       1.183821370656e-01       1.089627803610e-06 
       1.223778605591e-01       4.939063916892e-04 
       1.264990921707e-01       1.776273390968e-03 
       1.307513701078e-01       3.384720718031e-03 
       1.351402814485e-01       4.882450987387e-03 
       1.396714683894e-01       5.915947994832e-03 
       1.443506337875e-01       6.262493054832e-03 
       1.491835464900e-01       5.863069333363e-03 
       1.541760469368e-01       4.829951606051e-03 
       1.593340535209e-01       3.419590766376e-03 
       1.646635701934e-01       1.968375255762e-03 
       1.701706958081e-01       8.017502069697e-04 
       1.758616357070e-01       1.368823175031e-04 
       1.817427160581e-01       1.596966004716e-05 
       1.878204014651e-01       3.020967724666e-04 
       1.941013163855e-01       7.388791459440e-04 
       2.005922709060e-01       1.068501695573e-03 
       2.073002914514e-01       1.136029316905e-03 
       2.142326570343e-01       9.334291852541e-04 
       2.213969417044e-01       5.830737883508e-04 
       2.288010639201e-01       2.507341689550e-04 
       2.364533436625e-01       4.883925907824e-05 
       2.443625682390e-01       1.305469779687e-06 
       2.525380678946e-01       5.605429482686e-05 
       2.609898025770e-01       1.309144320499e-04 
       2.697284614969e-01       1.668482174492e-04 
       2.787655775073e-01       1.457885906093e-04 
       2.881136588192e-01       8.810205503712e-05 
       2.977863412019e-01       3.112178580697e-05 
       3.077985646248e-01       1.932111499420e-06 
       3.181667793367e-01       5.363181501754e-06 
       3.289091877084e-01       2.315829099781e-05 
       3.400460298905e-01       3.253685349323e-05 
       3.515999235695e-01       2.448462361435e-05 
       3.635962710278e-01       9.292464322899e-06 
       3.760637505499e-01       5.157881799268e-07 
       3.890349143014e-01       1.489756412900e-06 
       4.025469215929e-01       5.164876921223e-06 
       4.166424455447e-01       5.124713793832e-06 
       4.313708034899e-01       2.126975016430e-06 
       4.467893781976e-01       9.488288522114e-08 
       4.629654198623e-01       4.208552311585e-07 
       4.799783500912e-01       1.098424995039e-06 
       4.979227318246e-01       6.967996149700e-07 
       5.169121269689e-01       6.370266935333e-08 
       5.370841403262e-01       7.697231717425e-08 
       5.586070463286e-01       1.938364827627e-07 
       5.816885093582e-01       5.417540170005e-08 
       6.065870143577e-01       5.960249306439e-09 
       6.336266466978e-01       3.875284208075e-08 
       6.632156057925e-01       5.985799612343e-09 
       6.958678637575e-01       3.823408573365e-09 
       7.322247983784e-01       1.873996863426e-09 
       7.730680193171e-01       1.268555699214e-09 
       8.193049551574e-01       1.907681826273e-10 
       8.718988013754e-01       2.212121661089e-10 
       9.317218028590e-01       7.825167674824e-11 
       9.993660906273e-01       1.144174211184e-11 
       1.075037109879e+00       2.525737024132e-15 
       1.158653485387e+00       1.315845976741e-13 
       1.250099156961e+00       5.785661541546e-12 
       1.349432400897e+00       3.542105151873e-13 
       1.456947456991e+00       3.711456399165e-13 
       1.573135110893e+00       6.411540074482e-13 
       1.698621895119e+00       3.946460481940e-15 
       1.834127512423e+00       2.458330742428e-13 
       1.980444933977e+00       4.550928491436e-14 
       2.138435191130e+00       5.497958633618e-16 
       2.309029198543e+00       2.329570192900e-13 
       2.493232376993e+00       5.219602504032e-16 
       2.692130394536e+00       1.239877509744e-15 
       2.906895533764e+00       1.048406182345e-14 
       3.138793596840e+00       9.225662758474e-15 
       3.389191365541e+00       9.519376762328e-15 
       3.659564656886e+00       3.396826306591e-15 
       3.951507021438e+00       2.812670409305e-15 
       4.266739135513e+00       2.878648247992e-16 
       4.607118942658e+00       4.958304519287e-16 
       4.974652604172e+00       6.520855938155e-16 
       5.371506323193e+00       1.134310548555e-16 
       5.800019112071e+00       8.151583976033e-17 
       6.262716578240e+00       3.696715910084e-17 
       6.762325809881e+00       1.399138732888e-16 
       7.301791449077e+00       9.044816941640e-17 
       7.884293047211e+00       4.030412843334e-17 
       8.513263804891e+00       6.677904280921e-18 
       9.192410806865e+00       2.244705341509e-17 
       9.925736871166e+00       2.323343931187e-18 
       1.071756414128e+01       1.011887533010e-18 
       1.157255956041e+01       5.525416614653e-18 
       1.249576237789e+01       3.429046381131e-18 
       1.349261385000e+01       2.091658777971e-18 
       1.456898931011e+01       1.152534198025e-18 
       1.573123279727e+01       3.166420047558e-20 
       1.698619444729e+01       7.952981260630e-21 
       1.834127086665e+01       1.118853617926e-21 
       1.980444872733e+01       3.553690670921e-21 
       2.138435183937e+01       5.200511159335e-21 
       2.309029197863e+01       3.189472862099e-20 
       2.493232376942e+01       1.532812433723e-20 
       2.692130394533e+01       1.366217576935e-21 
       2.906895533764e+01       8.263882608389e-22 
       3.138793596840e+01       4.334399987734e-23 
       3.389191365541e+01       2.831926497573e-22 
       3.659564656886e+01       3.703898701670e-23 
       3.951507021438e+01       7.777231148418e-23 
       4.266739135513e+01       3.916678225002e-23 
       4.607118942658e+01       3.180386571066e-23 
       4.974652604172e+01       2.180049575930e-23 
       5.371506323193e+01       4.829440584083e-24 
       5.800019112071e+01       2.280827213604e-24 
       6.262716578240e+01       5.905425217934e-24 
       6.762325809881e+01       3.298973498869e-24 
