# Matter power spectrum P(k) at redshift z=0
# for k=1.04775e-05 to 66.1767 h/Mpc,
# number of wavenumbers equal to 130
#    1:k (h/Mpc)              2:P (Mpc/h)^3        
       1.047750691046e-05       5.020964811306e+01 
       1.319039970183e-05       6.270562594779e+01 
       1.660572937635e-05       7.831147247912e+01 
       2.090537469327e-05       9.780108069295e+01 
       2.631830744443e-05       1.221408203809e+02 
       3.313278603720e-05       1.525374501932e+02 
       4.171170630578e-05       1.904975994010e+02 
       5.251192703764e-05       2.379022224249e+02 
       6.610859936996e-05       2.970989227881e+02 
       8.322579568497e-05       3.710167318946e+02 
       1.047750691046e-04       4.633080766742e+02 
       1.319039970183e-04       5.785234129337e+02 
       1.660572937635e-04       7.223242666092e+02 
       2.090537469327e-04       9.017396271824e+02 
       2.631830744443e-04       1.125468123750e+03 
       3.313278603720e-04       1.404223053681e+03 
       4.171170630578e-04       1.751108028790e+03 
       5.251192703764e-04       2.181998448133e+03 
       6.610859936996e-04       2.715889983592e+03 
       8.322579568497e-04       3.375152337134e+03 
       1.047750691046e-03       4.185552174309e+03 
       1.319039970183e-03       5.175742744061e+03 
       1.660572937635e-03       6.376123051780e+03 
       2.090537469327e-03       7.815671867404e+03 
       2.631830744443e-03       9.517783069112e+03 
       3.313278603720e-03       1.149357460344e+04 
       4.171170630578e-03       1.373266008397e+04 
       5.251192703764e-03       1.619063614559e+04 
       6.610859936996e-03       1.877460416262e+04 
       8.322579568497e-03       2.132607231867e+04 
       1.047750691046e-02       2.360548650226e+04 
       1.319039970183e-02       2.528218704271e+04 
       1.660572937633e-02       2.595024822635e+04 
       2.090537453514e-02       2.520934286957e+04 
       2.631818545635e-02       2.287034377017e+04 
       3.311571692125e-02       1.928627913428e+04 
       4.113809243311e-02       1.568421695890e+04 
       4.792590854610e-02       1.361062080521e+04 
       5.284436902701e-02       1.259127918706e+04 
       5.689644391095e-02       1.195556338664e+04 
       6.051252627066e-02       1.147547567018e+04 
       6.388413457411e-02       1.105590178169e+04 
       6.711249296401e-02       1.064900358190e+04 
       7.025823437965e-02       1.022932523132e+04 
       7.336115587705e-02       9.784532992820e+03 
       7.644928796912e-02       9.311660297677e+03 
       7.954353299775e-02       8.814531016865e+03 
       8.266024078725e-02       8.302109241218e+03 
       8.581273398637e-02       7.786952963195e+03 
       8.901225918437e-02       7.283181863280e+03 
       9.226860540985e-02       6.805161355746e+03 
       9.559052048996e-02       6.365613914199e+03 
       9.898599946599e-02       5.974409108418e+03 
       1.024624891378e-01       5.637331629818e+03 
       1.060270359164e-01       5.355773494916e+03 
       1.096863943056e-01       5.126255854885e+03 
       1.134471073830e-01       4.940473852905e+03 
       1.173155669539e-01       4.786170682440e+03 
       1.212980586983e-01       4.647934218935e+03 
       1.254007961065e-01       4.509150497930e+03 
       1.296299459934e-01       4.354544806858e+03 
       1.339916477160e-01       4.173216789197e+03 
       1.384920277736e-01       3.961161674659e+03 
       1.431372111762e-01       3.722691410355e+03 
       1.479333307714e-01       3.469551649765e+03 
       1.528865355934e-01       3.218338964396e+03 
       1.580029992204e-01       2.986293965862e+03 
       1.632889290723e-01       2.786964346786e+03 
       1.687505775527e-01       2.626830294199e+03 
       1.743942559171e-01       2.503755083976e+03 
       1.802263517371e-01       2.407341693361e+03 
       1.862533508214e-01       2.322249295416e+03 
       1.924818644494e-01       2.231557267098e+03 
       1.989186627765e-01       2.122189422256e+03 
       2.055707152847e-01       1.992028660048e+03 
       2.124452391818e-01       1.850317031753e+03 
       2.195497567139e-01       1.712183477436e+03 
       2.268921624510e-01       1.590988805634e+03 
       2.344808017550e-01       1.493669239979e+03 
       2.423245618548e-01       1.418309381232e+03 
       2.504329772620e-01       1.354462193080e+03 
       2.588163516754e-01       1.288935369891e+03 
       2.674858990930e-01       1.213938003260e+03 
       2.764539076010e-01       1.130691990842e+03 
       2.857339303080e-01       1.048100878534e+03 
       2.953410092148e-01       9.761818475176e+02 
       3.052919395542e-01       9.178088087332e+02 
       3.156055844677e-01       8.679002782166e+02 
       3.263032530092e-01       8.185291273499e+02 
       3.374091587054e-01       7.651455898989e+02 
       3.489509817175e-01       7.106701189329e+02 
       3.609605657343e-01       6.607859947314e+02 
       3.734747921333e-01       6.180842211218e+02 
       3.865366902904e-01       5.793098464306e+02 
       4.001968667448e-01       5.403897974457e+02 
       4.145153713076e-01       5.011527774875e+02 
       4.295641718077e-01       4.644989111323e+02 
       4.454304922144e-01       4.314076304200e+02 
       4.622214006969e-01       4.001132872405e+02 
       4.800702491654e-01       3.690888868297e+02 
       4.991459272112e-01       3.394760486160e+02 
       5.196665217302e-01       3.119859782796e+02 
       5.419201087032e-01       2.852470877504e+02 
       5.662975451962e-01       2.593315924492e+02 
       5.933463737275e-01       2.345476898787e+02 
       6.238638458458e-01       2.102308302119e+02 
       6.590669257916e-01       1.864337868508e+02 
       7.009246080454e-01       1.627257877938e+02 
       7.528593308799e-01       1.388185598301e+02 
       8.213469537518e-01       1.141881781884e+02 
       9.196980813302e-01       8.835944946890e+01 
       1.075112183810e+00       6.172620965925e+01 
       1.322697471132e+00       3.804273756996e+01 
       1.662328205042e+00       2.209800595333e+01 
       2.092692408506e+00       1.266913006257e+01 
       2.634543445090e+00       7.203331033650e+00 
       3.316693691389e+00       4.065122597598e+00 
       4.175469971226e+00       2.278601714503e+00 
       5.256605252960e+00       1.269344243153e+00 
       6.617673932723e+00       7.031336335029e-01 
       8.331157880872e+00       3.874800489975e-01 
       1.048830636590e+01       2.125099495986e-01 
       1.320399541071e+01       1.160365272179e-01 
       1.662284535976e+01       6.309841483881e-02 
       2.092692243973e+01       3.417890782820e-02 
       2.634543445002e+01       1.844568247103e-02 
       3.316693691389e+01       9.918725359471e-03 
       4.175469971226e+01       5.314192186757e-03 
       5.256605252960e+01       2.836307419951e-03 
       6.617673932723e+01       1.507356943700e-03 
