# Matter power spectrum P(k) at redshift z=0
# for k=1.04775e-05 to 66.1767 h/Mpc,
# number of wavenumbers equal to 130
#    1:k (h/Mpc)              2:P (Mpc/h)^3        
       1.047750691046e-05       5.020964811308e+01 
       1.319039970183e-05       6.270562594774e+01 
       1.660572937635e-05       7.831147247912e+01 
       2.090537469327e-05       9.780108069296e+01 
       2.631830744443e-05       1.221408203810e+02 
       3.313278603720e-05       1.525374501932e+02 
       4.171170630578e-05       1.904975994010e+02 
       5.251192703764e-05       2.379022224249e+02 
       6.610859936996e-05       2.970989227882e+02 
       8.322579568497e-05       3.710167318946e+02 
       1.047750691046e-04       4.633080766742e+02 
       1.319039970183e-04       5.785234129340e+02 
       1.660572937635e-04       7.223242666092e+02 
       2.090537469327e-04       9.017396271824e+02 
       2.631830744443e-04       1.125468123750e+03 
       3.313278603720e-04       1.404223053681e+03 
       4.171170630578e-04       1.751108028790e+03 
       5.251192703764e-04       2.181998448133e+03 
       6.610859936996e-04       2.715889983591e+03 
       8.322579568497e-04       3.375152337132e+03 
       1.047750691046e-03       4.185552174304e+03 
       1.319039970183e-03       5.175742739090e+03 
       1.660572937635e-03       6.376123051792e+03 
       2.090537469327e-03       7.815671904561e+03 
       2.631830744443e-03       9.517783069110e+03 
       3.313278603720e-03       1.149357460345e+04 
       4.171170630578e-03       1.373266009582e+04 
       5.251192703764e-03       1.619063614393e+04 
       6.610859936996e-03       1.877460412463e+04 
       8.322579568497e-03       2.132607233108e+04 
       1.047750691046e-02       2.360548974259e+04 
       1.319039970183e-02       2.528218665509e+04 
       1.660572937633e-02       2.595029834147e+04 
       2.090537453514e-02       2.520933058357e+04 
       2.631818545635e-02       2.287033407056e+04 
       3.311571692125e-02       1.928620529402e+04 
       4.113809243311e-02       1.568426448500e+04 
       4.792590854610e-02       1.361062959333e+04 
       5.284436902701e-02       1.259132471726e+04 
       5.689644391095e-02       1.195553710703e+04 
       6.051252627066e-02       1.147546470019e+04 
       6.388413457411e-02       1.105588850678e+04 
       6.711249296401e-02       1.064900986802e+04 
       7.025823437965e-02       1.022927049671e+04 
       7.336115587705e-02       9.784524818367e+03 
       7.644928796912e-02       9.311644149602e+03 
       7.954353299775e-02       8.814545919032e+03 
       8.266024078725e-02       8.302169904759e+03 
       8.581273398637e-02       7.786945096362e+03 
       8.901225918437e-02       7.283207305309e+03 
       9.226860540985e-02       6.805211014892e+03 
       9.559052048996e-02       6.365611409966e+03 
       9.898599946599e-02       5.974349014785e+03 
       1.024624891378e-01       5.637357814540e+03 
       1.060270359164e-01       5.355804286232e+03 
       1.096863943056e-01       5.126249696693e+03 
       1.134471073830e-01       4.940509369647e+03 
       1.173155669539e-01       4.786188742615e+03 
       1.212980586983e-01       4.647954371726e+03 
       1.254007961065e-01       4.509146613139e+03 
       1.296299459934e-01       4.354555680432e+03 
       1.339916477160e-01       4.173229044247e+03 
       1.384920277736e-01       3.961171444627e+03 
       1.431372111762e-01       3.722676316406e+03 
       1.479333307714e-01       3.469545143352e+03 
       1.528865355934e-01       3.218362207600e+03 
       1.580029992204e-01       2.986269006490e+03 
       1.632889290723e-01       2.786964727494e+03 
       1.687505775527e-01       2.626827647300e+03 
       1.743942559171e-01       2.503760211559e+03 
       1.802263517371e-01       2.407327975759e+03 
       1.862533508214e-01       2.322254644648e+03 
       1.924818644494e-01       2.231551916906e+03 
       1.989186627765e-01       2.122183957630e+03 
       2.055707152847e-01       1.992017962118e+03 
       2.124452391818e-01       1.850323001136e+03 
       2.195497567139e-01       1.712172392189e+03 
       2.268921624510e-01       1.590981596546e+03 
       2.344808017550e-01       1.493664373762e+03 
       2.423245618548e-01       1.418303589789e+03 
       2.504329772620e-01       1.354464273586e+03 
       2.588163516754e-01       1.288930463367e+03 
       2.674858990930e-01       1.213929937640e+03 
       2.764539076010e-01       1.130693537930e+03 
       2.857339303080e-01       1.048095560743e+03 
       2.953410092148e-01       9.761817909740e+02 
       3.052919395542e-01       9.178070079194e+02 
       3.156055844677e-01       8.678953019118e+02 
       3.263032530092e-01       8.185248492322e+02 
       3.374091587054e-01       7.651456604248e+02 
       3.489509817175e-01       7.106696171823e+02 
       3.609605657343e-01       6.607869097278e+02 
       3.734747921333e-01       6.180824014732e+02 
       3.865366902904e-01       5.793082270239e+02 
       4.001968667448e-01       5.403914139971e+02 
       4.145153713076e-01       5.011503381268e+02 
       4.295641718077e-01       4.644984890957e+02 
       4.454304922144e-01       4.314069539131e+02 
       4.622214006969e-01       4.001118215572e+02 
       4.800702491654e-01       3.690882687569e+02 
       4.991459272112e-01       3.394751872445e+02 
       5.196665217302e-01       3.119841982353e+02 
       5.419201087032e-01       2.852458912278e+02 
       5.662975451962e-01       2.593299407532e+02 
       5.933463737275e-01       2.345477638552e+02 
       6.238638458458e-01       2.102294091502e+02 
       6.590669257916e-01       1.864326651358e+02 
       7.009246080454e-01       1.627238395641e+02 
       7.528593308799e-01       1.388174405566e+02 
       8.213469537518e-01       1.141873296716e+02 
       9.196980813302e-01       8.835839085530e+01 
       1.075112183810e+00       6.172492161402e+01 
       1.322697471132e+00       3.804141575181e+01 
       1.662328205042e+00       2.209645608142e+01 
       2.092692408506e+00       1.266746250426e+01 
       2.634543445090e+00       7.201401712290e+00 
       3.316693691389e+00       4.062984769886e+00 
       4.175469971226e+00       2.276198348552e+00 
       5.256605252960e+00       1.266641795820e+00 
       6.617673932723e+00       7.001136234933e-01 
       8.331157880872e+00       3.841153933487e-01 
       1.048830636590e+01       2.088014093578e-01 
       1.320399541071e+01       1.120011912906e-01 
       1.662284535976e+01       5.878606957869e-02 
       2.092692243973e+01       2.969866476000e-02 
       2.634543445002e+01       1.398263593142e-02 
       3.316693691389e+01       5.748715294451e-03 
       4.175469971226e+01       1.781819694565e-03 
       5.256605252960e+01       2.598903514945e-04 
       6.617673932723e+01       5.194607259392e-06 
