# Matter power spectrum P(k) at redshift z=0
# for k=1.04775e-05 to 66.1767 h/Mpc,
# number of wavenumbers equal to 130
#    1:k (h/Mpc)              2:P (Mpc/h)^3        
       1.047750691046e-05       5.020964811308e+01 
       1.319039970183e-05       6.270562594777e+01 
       1.660572937635e-05       7.831147247912e+01 
       2.090537469327e-05       9.780108069294e+01 
       2.631830744443e-05       1.221408203809e+02 
       3.313278603720e-05       1.525374501932e+02 
       4.171170630578e-05       1.904975994009e+02 
       5.251192703764e-05       2.379022224249e+02 
       6.610859936996e-05       2.970989227882e+02 
       8.322579568497e-05       3.710167318946e+02 
       1.047750691046e-04       4.633080766742e+02 
       1.319039970183e-04       5.785234129344e+02 
       1.660572937635e-04       7.223242666092e+02 
       2.090537469327e-04       9.017396271824e+02 
       2.631830744443e-04       1.125468123750e+03 
       3.313278603720e-04       1.404223053681e+03 
       4.171170630578e-04       1.751108028790e+03 
       5.251192703764e-04       2.181998448133e+03 
       6.610859936996e-04       2.715889983592e+03 
       8.322579568497e-04       3.375152337134e+03 
       1.047750691046e-03       4.185552174307e+03 
       1.319039970183e-03       5.175742739459e+03 
       1.660572937635e-03       6.376123051776e+03 
       2.090537469327e-03       7.815671866162e+03 
       2.631830744443e-03       9.517783069112e+03 
       3.313278603720e-03       1.149357460344e+04 
       4.171170630578e-03       1.373266009076e+04 
       5.251192703764e-03       1.619063614558e+04 
       6.610859936996e-03       1.877460421847e+04 
       8.322579568497e-03       2.132606794677e+04 
       1.047750691046e-02       2.360548109089e+04 
       1.319039970183e-02       2.528218655145e+04 
       1.660572937633e-02       2.595027271405e+04 
       2.090537453514e-02       2.520936554125e+04 
       2.631818545635e-02       2.287036269366e+04 
       3.311571692125e-02       1.928627439696e+04 
       4.113809243311e-02       1.568431065352e+04 
       4.792590854610e-02       1.361064739630e+04 
       5.284436902701e-02       1.259128547881e+04 
       5.689644391095e-02       1.195553228250e+04 
       6.051252627066e-02       1.147547019766e+04 
       6.388413457411e-02       1.105588679325e+04 
       6.711249296401e-02       1.064900786704e+04 
       7.025823437965e-02       1.022927801165e+04 
       7.336115587705e-02       9.784517985325e+03 
       7.644928796912e-02       9.311657961665e+03 
       7.954353299775e-02       8.814538888181e+03 
       8.266024078725e-02       8.302107573466e+03 
       8.581273398637e-02       7.786955104501e+03 
       8.901225918437e-02       7.283177112738e+03 
       9.226860540985e-02       6.805161375287e+03 
       9.559052048996e-02       6.365627824979e+03 
       9.898599946599e-02       5.974395684673e+03 
       1.024624891378e-01       5.637322324921e+03 
       1.060270359164e-01       5.355783096172e+03 
       1.096863943056e-01       5.126250747853e+03 
       1.134471073830e-01       4.940477067999e+03 
       1.173155669539e-01       4.786170864399e+03 
       1.212980586983e-01       4.647945735944e+03 
       1.254007961065e-01       4.509156002722e+03 
       1.296299459934e-01       4.354545147319e+03 
       1.339916477160e-01       4.173208052235e+03 
       1.384920277736e-01       3.961160695736e+03 
       1.431372111762e-01       3.722684415439e+03 
       1.479333307714e-01       3.469549941988e+03 
       1.528865355934e-01       3.218347331332e+03 
       1.580029992204e-01       2.986294324757e+03 
       1.632889290723e-01       2.786963438788e+03 
       1.687505775527e-01       2.626832260843e+03 
       1.743942559171e-01       2.503756689557e+03 
       1.802263517371e-01       2.407337633562e+03 
       1.862533508214e-01       2.322257776171e+03 
       1.924818644494e-01       2.231555727773e+03 
       1.989186627765e-01       2.122190687147e+03 
       2.055707152847e-01       1.992024101423e+03 
       2.124452391818e-01       1.850319385578e+03 
       2.195497567139e-01       1.712183326886e+03 
       2.268921624510e-01       1.590992435315e+03 
       2.344808017550e-01       1.493666129219e+03 
       2.423245618548e-01       1.418307334043e+03 
       2.504329772620e-01       1.354466636077e+03 
       2.588163516754e-01       1.288939224256e+03 
       2.674858990930e-01       1.213937584846e+03 
       2.764539076010e-01       1.130693125600e+03 
       2.857339303080e-01       1.048101196674e+03 
       2.953410092148e-01       9.761844988028e+02 
       3.052919395542e-01       9.178096403152e+02 
       3.156055844677e-01       8.678958398530e+02 
       3.263032530092e-01       8.185274410285e+02 
       3.374091587054e-01       7.651454160254e+02 
       3.489509817175e-01       7.106720341526e+02 
       3.609605657343e-01       6.607833547484e+02 
       3.734747921333e-01       6.180849857504e+02 
       3.865366902904e-01       5.793100863362e+02 
       4.001968667448e-01       5.403906268471e+02 
       4.145153713076e-01       5.011506993361e+02 
       4.295641718077e-01       4.644992832862e+02 
       4.454304922144e-01       4.314068678433e+02 
       4.622214006969e-01       4.001127221193e+02 
       4.800702491654e-01       3.690888338709e+02 
       4.991459272112e-01       3.394761634561e+02 
       5.196665217302e-01       3.119854589218e+02 
       5.419201087032e-01       2.852462174827e+02 
       5.662975451962e-01       2.593318489618e+02 
       5.933463737275e-01       2.345480632977e+02 
       6.238638458458e-01       2.102305866177e+02 
       6.590669257916e-01       1.864334921149e+02 
       7.009246080454e-01       1.627255015026e+02 
       7.528593308799e-01       1.388182010450e+02 
       8.213469537518e-01       1.141882068523e+02 
       9.196980813302e-01       8.835925653575e+01 
       1.075112183810e+00       6.172616913129e+01 
       1.322697471132e+00       3.804247772178e+01 
       1.662328205042e+00       2.209805531007e+01 
       2.092692408506e+00       1.266921352299e+01 
       2.634543445090e+00       7.203343403033e+00 
       3.316693691389e+00       4.065135677273e+00 
       4.175469971226e+00       2.278609340101e+00 
       5.256605252960e+00       1.269342987131e+00 
       6.617673932723e+00       7.031341274170e-01 
       8.331157880872e+00       3.874717022545e-01 
       1.048830636590e+01       2.125059946430e-01 
       1.320399541071e+01       1.160307315197e-01 
       1.662284535976e+01       6.309260620547e-02 
       2.092692243973e+01       3.417326960960e-02 
       2.634543445002e+01       1.843997373637e-02 
       3.316693691389e+01       9.913174022268e-03 
       4.175469971226e+01       5.308640573614e-03 
       5.256605252960e+01       2.830912062812e-03 
       6.617673932723e+01       1.502118222829e-03 
