# Matter power spectrum P(k) at redshift z=99
# for k=1.04775e-05 to 67.6233 h/Mpc,
# number of wavenumbers equal to 246
#    1:k (h/Mpc)              2:P (Mpc/h)^3        
       1.047750691046e-05       7.261927680861e-03 
       1.131335172503e-05       7.820331652431e-03 
       1.221587619537e-05       8.421675995453e-03 
       1.319039970183e-05       9.069258201848e-03 
       1.424266597921e-05       9.766638412133e-03 
       1.537887696968e-05       1.051764070801e-02 
       1.660572937635e-05       1.132639106725e-02 
       1.793045413292e-05       1.219733232715e-02 
       1.936085902198e-05       1.313524225779e-02 
       2.090537469327e-05       1.414527123399e-02 
       2.257310435294e-05       1.523296273823e-02 
       2.437387741694e-05       1.640429446288e-02 
       2.631830744443e-05       1.766569584058e-02 
       2.841785469300e-05       1.902408737005e-02 
       3.068489366414e-05       2.048692972772e-02 
       3.313278603720e-05       2.206225515942e-02 
       3.577595942169e-05       2.375870707438e-02 
       3.862999239199e-05       2.558560730202e-02 
       4.171170630578e-05       2.755297766277e-02 
       4.503926444729e-05       2.967161930475e-02 
       4.863227907969e-05       3.195316454233e-02 
       5.251192703764e-05       3.441013522947e-02 
       5.670107454120e-05       3.705601726469e-02 
       6.122441196689e-05       3.990533417797e-02 
       6.610859936996e-05       4.297372172777e-02 
       7.138242361596e-05       4.627802146614e-02 
       7.707696804727e-05       4.983636199464e-02 
       8.322579568497e-05       5.366826852944e-02 
       8.986514704559e-05       5.779476400720e-02 
       9.703415373875e-05       6.223848250510e-02 
       1.047750691046e-04       6.702379872774e-02 
       1.131335172503e-04       7.217695161063e-02 
       1.221587619537e-04       7.772619081847e-02 
       1.319039970183e-04       8.370193441286e-02 
       1.424266597921e-04       9.013692517140e-02 
       1.537887696968e-04       9.706641252902e-02 
       1.660572937635e-04       1.045283355384e-01 
       1.793045413292e-04       1.125635350266e-01 
       1.936085902198e-04       1.212159616259e-01 
       2.090537469327e-04       1.305329134104e-01 
       2.257310435294e-04       1.405652847711e-01 
       2.437387741694e-04       1.513678304151e-01 
       2.631830744443e-04       1.629994506605e-01 
       2.841785469300e-04       1.755234923092e-01 
       3.068489366414e-04       1.890080672425e-01 
       3.313278603720e-04       2.035264004601e-01 
       3.577595942169e-04       2.191571806013e-01 
       3.862999239199e-04       2.359849440105e-01 
       4.171170630578e-04       2.541004744243e-01 
       4.503926444729e-04       2.736012083189e-01 
       4.863227907969e-04       2.945916794099e-01 
       5.251192703764e-04       3.171839528557e-01 
       5.670107454121e-04       3.414980767635e-01 
       6.122441196689e-04       3.676625417011e-01 
       6.610859936996e-04       3.958147256513e-01 
       7.138242361596e-04       4.261013289365e-01 
       7.707696804727e-04       4.586787797352e-01 
       8.322579568497e-04       4.937136006286e-01 
       8.986514704559e-04       5.313826807049e-01 
       9.703415373875e-04       5.718734978233e-01 
       1.047750691046e-03       6.153841636040e-01 
       1.131335172503e-03       6.621233246495e-01 
       1.221587619537e-03       7.123098227996e-01 
       1.319039970183e-03       7.661720592823e-01 
       1.424266597921e-03       8.239546306466e-01 
       1.537887696968e-03       8.859011182852e-01 
       1.660572937635e-03       9.522588016480e-01 
       1.793045413292e-03       1.023280100902e+00 
       1.936085902198e-03       1.099216305740e+00 
       2.090537469327e-03       1.180312991700e+00 
       2.257310435294e-03       1.266804117187e+00 
       2.437387741694e-03       1.358904854835e+00 
       2.631830744443e-03       1.456802684686e+00 
       2.841785469300e-03       1.560646892157e+00 
       3.068489366414e-03       1.670536064245e+00 
       3.313278603720e-03       1.786503854036e+00 
       3.577595942169e-03       1.908502932771e+00 
       3.862999239199e-03       2.036387732816e+00 
       4.171170630578e-03       2.169896197074e+00 
       4.503926444729e-03       2.308631881359e+00 
       4.863227907969e-03       2.452047293460e+00 
       5.251192703764e-03       2.599430630722e+00 
       5.670107454120e-03       2.749896934521e+00 
       6.122441196689e-03       2.902386516275e+00 
       6.610859936996e-03       3.055668709022e+00 
       7.138242361596e-03       3.208356464661e+00 
       7.707696804727e-03       3.358923896049e+00 
       8.322579568496e-03       3.505725598471e+00 
       8.986514704559e-03       3.647009256002e+00 
       9.703415373875e-03       3.780923307794e+00 
       1.047750691046e-02       3.905491345050e+00 
       1.131335172503e-02       4.018587651843e+00 
       1.221587619537e-02       4.117901589459e+00 
       1.319039970183e-02       4.200915398032e+00 
       1.424266597920e-02       4.264941730763e+00 
       1.537887696964e-02       4.307218536443e+00 
       1.660572937560e-02       4.325060886297e+00 
       1.793045412207e-02       4.316057313744e+00 
       1.936085889642e-02       4.278229254008e+00 
       2.090537351881e-02       4.210201568445e+00 
       2.257309534705e-02       4.111421679260e+00 
       2.437382002240e-02       3.982421140540e+00 
       2.631799943729e-02       3.825165125160e+00 
       2.841644544598e-02       3.643284256109e+00 
       3.067933354524e-02       3.442190609855e+00 
       3.311368469821e-02       3.229239421381e+00 
       3.571840442514e-02       3.013511950326e+00 
       3.847720347390e-02       2.805292567485e+00 
       4.135335537314e-02       2.614405623205e+00 
       4.429361666563e-02       2.448133443374e+00 
       4.724366437916e-02       2.309235733109e+00 
       5.016480834039e-02       2.196113097172e+00 
       5.303989618930e-02       2.104365046226e+00 
       5.586870668205e-02       2.028461450480e+00 
       5.866042679206e-02       1.963158499350e+00 
       6.142798931504e-02       1.903780189616e+00 
       6.418496438662e-02       1.846476744953e+00 
       6.694418832236e-02       1.788199117663e+00 
       6.971731104453e-02       1.726711868431e+00 
       7.251476154108e-02       1.660652149291e+00 
       7.534587669814e-02       1.589471418831e+00 
       7.821907664495e-02       1.513439558592e+00 
       8.114203771084e-02       1.433570130711e+00 
       8.412184533139e-02       1.351492883380e+00 
       8.716512277352e-02       1.269275008060e+00 
       9.027813693913e-02       1.189193636183e+00 
       9.346688429613e-02       1.113502421807e+00 
       9.673716026122e-02       1.044175743018e+00 
       1.000946150608e-01       9.827072679762e-01 
       1.035447986307e-01       9.299376985617e-01 
       1.070931966524e-01       8.859580351354e-01 
       1.107452594180e-01       8.500706270454e-01 
       1.145064248899e-01       8.208038603730e-01 
       1.183821370656e-01       7.960257138145e-01 
       1.223778605591e-01       7.731445762945e-01 
       1.264990921707e-01       7.494516388470e-01 
       1.307513701078e-01       7.225583778274e-01 
       1.351402814485e-01       6.909097445405e-01 
       1.396714683894e-01       6.541817941072e-01 
       1.443506337875e-01       6.134266537855e-01 
       1.491835464900e-01       5.708675466878e-01 
       1.541760469368e-01       5.293638315392e-01 
       1.593340535209e-01       4.917109989054e-01 
       1.646635701934e-01       4.599196051983e-01 
       1.701706958081e-01       4.347287173035e-01 
       1.758616357070e-01       4.154080673795e-01 
       1.817427160581e-01       3.999369666384e-01 
       1.878204014651e-01       3.856827617041e-01 
       1.941013163855e-01       3.698094939508e-01 
       2.005922709060e-01       3.505463918985e-01 
       2.073002914514e-01       3.280423202431e-01 
       2.142326570343e-01       3.042143093069e-01 
       2.213969417044e-01       2.816124231577e-01 
       2.288010639201e-01       2.622571965577e-01 
       2.364533436625e-01       2.469618639249e-01 
       2.443625682390e-01       2.350129791000e-01 
       2.525380678946e-01       2.244184196050e-01 
       2.609898025770e-01       2.130934470844e-01 
       2.697284614969e-01       2.001017726497e-01 
       2.787655775073e-01       1.860200874290e-01 
       2.881136588192e-01       1.725176354062e-01 
       2.977863412019e-01       1.610660726074e-01 
       3.077985646248e-01       1.517614450083e-01 
       3.181667793367e-01       1.435594843486e-01 
       3.289091877084e-01       1.351817398808e-01 
       3.400460298905e-01       1.261641299085e-01 
       3.515999235695e-01       1.172016168392e-01 
       3.635962710278e-01       1.091768280941e-01 
       3.760637505499e-01       1.023094281180e-01 
       3.890349143014e-01       9.593751440525e-02 
       4.025469215929e-01       8.950759181494e-02 
       4.166424455447e-01       8.311181722517e-02 
       4.313708034899e-01       7.721569671608e-02 
       4.467893781976e-01       7.190063871747e-02 
       4.629654198623e-01       6.686907669311e-02 
       4.799783500912e-01       6.191743441277e-02 
       4.979227318246e-01       5.722238387298e-02 
       5.169121269689e-01       5.290307132084e-02 
       5.370841403262e-01       4.876980703711e-02 
       5.586070463286e-01       4.479071983338e-02 
       5.816885093582e-01       4.105185861698e-02 
       6.065870143577e-01       3.748990304277e-02 
       6.336266466978e-01       3.407639344780e-02 
       6.632156057925e-01       3.083461892426e-02 
       6.958678637575e-01       2.772831125557e-02 
       7.322247983784e-01       2.476708964824e-02 
       7.730680193171e-01       2.193960349230e-02 
       8.193049551574e-01       1.925613216872e-02 
       8.718988013754e-01       1.672931814260e-02 
       9.317218028590e-01       1.438422155639e-02 
       9.993660906273e-01       1.225065842161e-02 
       1.075037109879e+00       1.035263331319e-02 
       1.158653485387e+00       8.699761149724e-03 
       1.250099156961e+00       7.284588979227e-03 
       1.349432400897e+00       6.085485670201e-03 
       1.456947456991e+00       5.075751519568e-03 
       1.573135110893e+00       4.228306175294e-03 
       1.698621895119e+00       3.518546599451e-03 
       1.834127512423e+00       2.924984821793e-03 
       1.980444933977e+00       2.429166475823e-03 
       2.138435191130e+00       2.015507238361e-03 
       2.309029198543e+00       1.670775180622e-03 
       2.493232376993e+00       1.383795319410e-03 
       2.692130394536e+00       1.145134672847e-03 
       2.906895533764e+00       9.468635453288e-04 
       3.138793596840e+00       7.822913778346e-04 
       3.389191365541e+00       6.458262824554e-04 
       3.659564656886e+00       5.327692101091e-04 
       3.951507021438e+00       4.391846700092e-04 
       4.266739135513e+00       3.617896915358e-04 
       4.607118942658e+00       2.978289664256e-04 
       4.974652604172e+00       2.450139700051e-04 
       5.371506323193e+00       2.014369791833e-04 
       5.800019112071e+00       1.655072171567e-04 
       6.262716578240e+00       1.359034802605e-04 
       6.762325809881e+00       1.115293778672e-04 
       7.301791449077e+00       9.147584393375e-05 
       7.884293047211e+00       7.498654982600e-05 
       8.513263804891e+00       6.143621690645e-05 
       9.192410806865e+00       5.030792552753e-05 
       9.925736871166e+00       4.117534088001e-05 
       1.071756414128e+01       3.368327262958e-05 
       1.157255956041e+01       2.754153114501e-05 
       1.249576237789e+01       2.250894563121e-05 
       1.349261385000e+01       1.838743602627e-05 
       1.456898931011e+01       1.501425706272e-05 
       1.573123279727e+01       1.225432645694e-05 
       1.698619444729e+01       9.997558093051e-06 
       1.834127086665e+01       8.153101738440e-06 
       1.980444872733e+01       6.646234191310e-06 
       2.138435183937e+01       5.415691346783e-06 
       2.309029197863e+01       4.411325622262e-06 
       2.493232376942e+01       3.591837417570e-06 
       2.692130394533e+01       2.923548163709e-06 
       2.906895533764e+01       2.378727794370e-06 
       3.138793596840e+01       1.934775882319e-06 
       3.389191365541e+01       1.573096185502e-06 
       3.659564656886e+01       1.278604884164e-06 
       3.951507021438e+01       1.038905728858e-06 
       4.266739135513e+01       8.438595489589e-07 
       4.607118942658e+01       6.852035672351e-07 
       4.974652604172e+01       5.561939037635e-07 
       5.371506323193e+01       4.513399426926e-07 
       5.800019112071e+01       3.661258548665e-07 
       6.262716578240e+01       2.969077328383e-07 
       6.762325809881e+01       2.407004168551e-07 
