# Matter power spectrum P(k) at redshift z=99
# for k=1.04775e-05 to 66.1767 h/Mpc,
# number of wavenumbers equal to 130
#    1:k (h/Mpc)              2:P (Mpc/h)^3        
       1.047750691046e-05       7.261927680862e-03 
       1.319039970183e-05       9.069258201849e-03 
       1.660572937635e-05       1.132639106725e-02 
       2.090537469327e-05       1.414527123399e-02 
       2.631830744443e-05       1.766569584058e-02 
       3.313278603720e-05       2.206225515942e-02 
       4.171170630578e-05       2.755297766277e-02 
       5.251192703764e-05       3.441013522947e-02 
       6.610859936996e-05       4.297372172778e-02 
       8.322579568497e-05       5.366826852944e-02 
       1.047750691046e-04       6.702379872774e-02 
       1.319039970183e-04       8.370193441286e-02 
       1.660572937635e-04       1.045283355384e-01 
       2.090537469327e-04       1.305329134104e-01 
       2.631830744443e-04       1.629994506606e-01 
       3.313278603720e-04       2.035264004601e-01 
       4.171170630578e-04       2.541004744243e-01 
       5.251192703764e-04       3.171839528557e-01 
       6.610859936996e-04       3.958147256513e-01 
       8.322579568497e-04       4.937136006273e-01 
       1.047750691046e-03       6.153841636042e-01 
       1.319039970183e-03       7.661720592240e-01 
       1.660572937635e-03       9.522588016470e-01 
       2.090537469327e-03       1.180312991699e+00 
       2.631830744443e-03       1.456802684686e+00 
       3.313278603720e-03       1.786503854037e+00 
       4.171170630578e-03       2.169896192374e+00 
       5.251192703764e-03       2.599430630720e+00 
       6.610859936996e-03       3.055668713549e+00 
       8.322579568497e-03       3.505725598496e+00 
       1.047750691046e-02       3.905491784003e+00 
       1.319039970183e-02       4.200915365064e+00 
       1.660572937633e-02       4.325062715026e+00 
       2.090537453514e-02       4.210198249377e+00 
       2.631818545635e-02       3.825149971942e+00 
       3.311571692125e-02       3.229060748954e+00 
       4.113809243311e-02       2.627734789097e+00 
       4.792590854610e-02       2.280793954082e+00 
       5.284436902701e-02       2.110090206659e+00 
       5.689644391095e-02       2.003539213550e+00 
       6.051252627066e-02       1.923059053697e+00 
       6.388413457411e-02       1.852737649601e+00 
       6.711249296401e-02       1.784565532329e+00 
       7.025823437965e-02       1.714277848299e+00 
       7.336115587705e-02       1.639814619956e+00 
       7.644928796912e-02       1.560661115930e+00 
       7.954353299775e-02       1.477456255527e+00 
       8.266024078725e-02       1.391700455725e+00 
       8.581273398637e-02       1.305461940618e+00 
       8.901225918437e-02       1.221126206286e+00 
       9.226860540985e-02       1.141078135057e+00 
       9.559052048996e-02       1.067453096988e+00 
       9.898599946599e-02       1.001889133376e+00 
       1.024624891378e-01       9.453786445819e-01 
       1.060270359164e-01       8.981510443336e-01 
       1.096863943056e-01       8.596128403763e-01 
       1.134471073830e-01       8.284045722243e-01 
       1.173155669539e-01       8.024671875832e-01 
       1.212980586983e-01       7.792296885744e-01 
       1.254007961065e-01       7.559193771426e-01 
       1.296299459934e-01       7.299831347971e-01 
       1.339916477160e-01       6.995930336641e-01 
       1.384920277736e-01       6.640775729725e-01 
       1.431372111762e-01       6.241466643282e-01 
       1.479333307714e-01       5.817634965123e-01 
       1.528865355934e-01       5.396934156801e-01 
       1.580029992204e-01       5.008144038372e-01 
       1.632889290723e-01       4.673981293756e-01 
       1.687505775527e-01       4.405336434406e-01 
       1.743942559171e-01       4.198657891812e-01 
       1.802263517371e-01       4.036602434134e-01 
       1.862533508214e-01       3.893603246214e-01 
       1.924818644494e-01       3.741350799772e-01 
       1.989186627765e-01       3.558021820212e-01 
       2.055707152847e-01       3.339985277260e-01 
       2.124452391818e-01       3.102662307809e-01 
       2.195497567139e-01       2.871234541523e-01 
       2.268921624510e-01       2.668084964694e-01 
       2.344808017550e-01       2.504826272527e-01 
       2.423245618548e-01       2.378336388508e-01 
       2.504329772620e-01       2.271112884265e-01 
       2.588163516754e-01       2.161173313697e-01 
       2.674858990930e-01       2.035453313605e-01 
       2.764539076010e-01       1.895973081411e-01 
       2.857339303080e-01       1.757577572300e-01 
       2.953410092148e-01       1.636994845620e-01 
       3.052919395542e-01       1.539060773978e-01 
       3.156055844677e-01       1.455309601491e-01 
       3.263032530092e-01       1.372499732987e-01 
       3.374091587054e-01       1.283020192924e-01 
       3.489509817175e-01       1.191713252911e-01 
       3.609605657343e-01       1.108075407595e-01 
       3.734747921333e-01       1.036453568907e-01 
       3.865366902904e-01       9.714151721374e-02 
       4.001968667448e-01       9.061533097067e-02 
       4.145153713076e-01       8.403705555357e-02 
       4.295641718077e-01       7.789135944816e-02 
       4.454304922144e-01       7.234192912777e-02 
       4.622214006969e-01       6.709354913484e-02 
       4.800702491654e-01       6.189173510416e-02 
       4.991459272112e-01       5.692643390281e-02 
       5.196665217302e-01       5.231609005015e-02 
       5.419201087032e-01       4.783257860901e-02 
       5.662975451962e-01       4.348685344886e-02 
       5.933463737275e-01       3.933107465840e-02 
       6.238638458458e-01       3.525332103714e-02 
       6.590669257916e-01       3.126288037534e-02 
       7.009246080454e-01       2.728726017750e-02 
       7.528593308799e-01       2.327838620176e-02 
       8.213469537518e-01       1.914812271985e-02 
       9.196980813302e-01       1.481694405354e-02 
       1.075112183810e+00       1.035076322699e-02 
       1.322697471132e+00       6.379321562740e-03 
       1.662328205042e+00       3.705486836460e-03 
       2.092692408506e+00       2.124359396001e-03 
       2.634543445090e+00       1.207771566727e-03 
       3.316693691389e+00       6.815094172668e-04 
       4.175469971226e+00       3.819172875311e-04 
       5.256605252960e+00       2.126635200004e-04 
       6.617673932723e+00       1.177098045903e-04 
       8.331157880872e+00       6.477230901941e-05 
       1.048830636590e+01       3.542963635714e-05 
       1.320399541071e+01       1.925035078485e-05 
       1.662284535976e+01       1.037363357033e-05 
       2.092692243973e+01       5.526654709618e-06 
       2.634543445002e+01       2.893493928352e-06 
       3.316693691389e+01       1.472538848840e-06 
       4.175469971226e+01       7.141428654588e-07 
       5.256605252960e+01       3.183105921787e-07 
       6.617673932723e+01       1.215893012921e-07 
