# Matter power spectrum P(k) at redshift z=0
# for k=1.04775e-05 to 66.1767 h/Mpc,
# number of wavenumbers equal to 130
#    1:k (h/Mpc)              2:P (Mpc/h)^3        
       1.047750691046e-05       5.020964811314e+01 
       1.319039970183e-05       6.270562594776e+01 
       1.660572937635e-05       7.831147247912e+01 
       2.090537469327e-05       9.780108069296e+01 
       2.631830744443e-05       1.221408203809e+02 
       3.313278603720e-05       1.525374501932e+02 
       4.171170630578e-05       1.904975994010e+02 
       5.251192703764e-05       2.379022224249e+02 
       6.610859936996e-05       2.970989227881e+02 
       8.322579568497e-05       3.710167318946e+02 
       1.047750691046e-04       4.633080766742e+02 
       1.319039970183e-04       5.785234129336e+02 
       1.660572937635e-04       7.223242666091e+02 
       2.090537469327e-04       9.017396271823e+02 
       2.631830744443e-04       1.125468123750e+03 
       3.313278603720e-04       1.404223053681e+03 
       4.171170630578e-04       1.751108028789e+03 
       5.251192703764e-04       2.181998448131e+03 
       6.610859936996e-04       2.715889983589e+03 
       8.322579568497e-04       3.375152337128e+03 
       1.047750691046e-03       4.185552174256e+03 
       1.319039970183e-03       5.175742738792e+03 
       1.660572937635e-03       6.376123051784e+03 
       2.090537469327e-03       7.815671868332e+03 
       2.631830744443e-03       9.517783068884e+03 
       3.313278603720e-03       1.149357460300e+04 
       4.171170630578e-03       1.373266010984e+04 
       5.251192703764e-03       1.619063589776e+04 
       6.610859936996e-03       1.877460425063e+04 
       8.322579568497e-03       2.132611383803e+04 
       1.047750691046e-02       2.360549008385e+04 
       1.319039970183e-02       2.528219564913e+04 
       1.660572937633e-02       2.595028833831e+04 
       2.090537453514e-02       2.520935558041e+04 
       2.631818545635e-02       2.287031499825e+04 
       3.311571692125e-02       1.928616335434e+04 
       4.113809243311e-02       1.568424806502e+04 
       4.792590854610e-02       1.361062407822e+04 
       5.284436902701e-02       1.259128857816e+04 
       5.689644391095e-02       1.195549397633e+04 
       6.051252627066e-02       1.147548950406e+04 
       6.388413457411e-02       1.105569501719e+04 
       6.711249296401e-02       1.064887900157e+04 
       7.025823437965e-02       1.022927596732e+04 
       7.336115587705e-02       9.784550844234e+03 
       7.644928796912e-02       9.311720449670e+03 
       7.954353299775e-02       8.814531540922e+03 
       8.266024078725e-02       8.302172531916e+03 
       8.581273398637e-02       7.786952398703e+03 
       8.901225918437e-02       7.283199442407e+03 
       9.226860540985e-02       6.805242921859e+03 
       9.559052048996e-02       6.365636698080e+03 
       9.898599946599e-02       5.974369538167e+03 
       1.024624891378e-01       5.637349351669e+03 
       1.060270359164e-01       5.355792768791e+03 
       1.096863943056e-01       5.126254956479e+03 
       1.134471073830e-01       4.940475337049e+03 
       1.173155669539e-01       4.786135999703e+03 
       1.212980586983e-01       4.647925974157e+03 
       1.254007961065e-01       4.509048104812e+03 
       1.296299459934e-01       4.354547057520e+03 
       1.339916477160e-01       4.173143971656e+03 
       1.384920277736e-01       3.961171526878e+03 
       1.431372111762e-01       3.722589726817e+03 
       1.479333307714e-01       3.469552769293e+03 
       1.528865355934e-01       3.218319895475e+03 
       1.580029992204e-01       2.986237842553e+03 
       1.632889290723e-01       2.786947677937e+03 
       1.687505775527e-01       2.626814089557e+03 
       1.743942559171e-01       2.503753194684e+03 
       1.802263517371e-01       2.407303410383e+03 
       1.862533508214e-01       2.322252588699e+03 
       1.924818644494e-01       2.231566684567e+03 
       1.989186627765e-01       2.122202660268e+03 
       2.055707152847e-01       1.992042777024e+03 
       2.124452391818e-01       1.850300227355e+03 
       2.195497567139e-01       1.712156080048e+03 
       2.268921624510e-01       1.590967015886e+03 
       2.344808017550e-01       1.493655943893e+03 
       2.423245618548e-01       1.418301425033e+03 
       2.504329772620e-01       1.354443743321e+03 
       2.588163516754e-01       1.288932524917e+03 
       2.674858990930e-01       1.213902125004e+03 
       2.764539076010e-01       1.130681622818e+03 
       2.857339303080e-01       1.048081447496e+03 
       2.953410092148e-01       9.761711923729e+02 
       3.052919395542e-01       9.178010835584e+02 
       3.156055844677e-01       8.678841996690e+02 
       3.263032530092e-01       8.185191259591e+02 
       3.374091587054e-01       7.651453999379e+02 
       3.489509817175e-01       7.106576871622e+02 
       3.609605657343e-01       6.607739426825e+02 
       3.734747921333e-01       6.180776576213e+02 
       3.865366902904e-01       5.792992960563e+02 
       4.001968667448e-01       5.403797296837e+02 
       4.145153713076e-01       5.011406937725e+02 
       4.295641718077e-01       4.644931497356e+02 
       4.454304922144e-01       4.313983398342e+02 
       4.622214006969e-01       4.001045219885e+02 
       4.800702491654e-01       3.690809948164e+02 
       4.991459272112e-01       3.394669355567e+02 
       5.196665217302e-01       3.119776922972e+02 
       5.419201087032e-01       2.852391447032e+02 
       5.662975451962e-01       2.593238411106e+02 
       5.933463737275e-01       2.345411931216e+02 
       6.238638458458e-01       2.102261521174e+02 
       6.590669257916e-01       1.864286204949e+02 
       7.009246080454e-01       1.627214603578e+02 
       7.528593308799e-01       1.388145688474e+02 
       8.213469537518e-01       1.141847746605e+02 
       9.196980813302e-01       8.835549299336e+01 
       1.075112183810e+00       6.172249143043e+01 
       1.322697471132e+00       3.803923897287e+01 
       1.662328205042e+00       2.209446729804e+01 
       2.092692408506e+00       1.266569922971e+01 
       2.634543445090e+00       7.199822936928e+00 
       3.316693691389e+00       4.061641201929e+00 
       4.175469971226e+00       2.275147463676e+00 
       5.256605252960e+00       1.265866606646e+00 
       6.617673932723e+00       6.996179527878e-01 
       8.331157880872e+00       3.839184015086e-01 
       1.048830636590e+01       2.088915353617e-01 
       1.320399541071e+01       1.123509597967e-01 
       1.662284535976e+01       5.935419109910e-02 
       2.092692243973e+01       3.041388854676e-02 
       2.634543445002e+01       1.474794973348e-02 
       3.316693691389e+01       6.446426148189e-03 
       4.175469971226e+01       2.295669070128e-03 
       5.256605252960e+01       5.188520290751e-04 
       6.617673932723e+01       2.392909789328e-05 
