# Matter power spectrum P(k) at redshift z=99
# for k=1.04775e-05 to 66.1767 h/Mpc,
# number of wavenumbers equal to 130
#    1:k (h/Mpc)              2:P (Mpc/h)^3        
       1.047750691046e-05       7.261927680869e-03 
       1.319039970183e-05       9.069258201857e-03 
       1.660572937635e-05       1.132639106726e-02 
       2.090537469327e-05       1.414527123400e-02 
       2.631830744443e-05       1.766569584060e-02 
       3.313278603720e-05       2.206225515944e-02 
       4.171170630578e-05       2.755297766279e-02 
       5.251192703764e-05       3.441013522950e-02 
       6.610859936996e-05       4.297372172782e-02 
       8.322579568497e-05       5.366826852949e-02 
       1.047750691046e-04       6.702379872781e-02 
       1.319039970183e-04       8.370193441294e-02 
       1.660572937635e-04       1.045283355385e-01 
       2.090537469327e-04       1.305329134105e-01 
       2.631830744443e-04       1.629994506607e-01 
       3.313278603720e-04       2.035264004603e-01 
       4.171170630578e-04       2.541004744245e-01 
       5.251192703764e-04       3.171839528559e-01 
       6.610859936996e-04       3.958147256517e-01 
       8.322579568497e-04       4.937136006301e-01 
       1.047750691046e-03       6.153841636046e-01 
       1.319039970183e-03       7.661720592354e-01 
       1.660572937635e-03       9.522588016472e-01 
       2.090537469327e-03       1.180312991698e+00 
       2.631830744443e-03       1.456802684683e+00 
       3.313278603720e-03       1.786503854032e+00 
       4.171170630578e-03       2.169896192082e+00 
       5.251192703764e-03       2.599430630643e+00 
       6.610859936996e-03       3.055668701771e+00 
       8.322579568497e-03       3.505725598160e+00 
       1.047750691046e-02       3.905490188500e+00 
       1.319039970183e-02       4.200915282213e+00 
       1.660572937633e-02       4.325059897067e+00 
       2.090537453514e-02       4.210204266518e+00 
       2.631818545635e-02       3.825151167832e+00 
       3.311571692125e-02       3.229059882026e+00 
       4.113809243311e-02       2.627720853609e+00 
       4.792590854610e-02       2.280791897890e+00 
       5.284436902701e-02       2.110087834422e+00 
       5.689644391095e-02       2.003539779173e+00 
       6.051252627066e-02       1.923053003337e+00 
       6.388413457411e-02       1.852729810238e+00 
       6.711249296401e-02       1.784567518904e+00 
       7.025823437965e-02       1.714276546828e+00 
       7.336115587705e-02       1.639814975689e+00 
       7.644928796912e-02       1.560658952534e+00 
       7.954353299775e-02       1.477456232502e+00 
       8.266024078725e-02       1.391699558298e+00 
       8.581273398637e-02       1.305461521652e+00 
       8.901225918437e-02       1.221124551380e+00 
       9.226860540985e-02       1.141081696947e+00 
       9.559052048996e-02       1.067450370258e+00 
       9.898599946599e-02       1.001888364554e+00 
       1.024624891378e-01       9.453792883467e-01 
       1.060270359164e-01       8.981459889242e-01 
       1.096863943056e-01       8.596105724598e-01 
       1.134471073830e-01       8.284056188478e-01 
       1.173155669539e-01       8.024659899539e-01 
       1.212980586983e-01       7.792294511713e-01 
       1.254007961065e-01       7.559182501603e-01 
       1.296299459934e-01       7.299818861434e-01 
       1.339916477160e-01       6.995921264448e-01 
       1.384920277736e-01       6.640778444787e-01 
       1.431372111762e-01       6.241457351107e-01 
       1.479333307714e-01       5.817619271609e-01 
       1.528865355934e-01       5.396920831059e-01 
       1.580029992204e-01       5.008128817655e-01 
       1.632889290723e-01       4.673967145188e-01 
       1.687505775527e-01       4.405322058224e-01 
       1.743942559171e-01       4.198640590535e-01 
       1.802263517371e-01       4.036586116537e-01 
       1.862533508214e-01       3.893588474739e-01 
       1.924818644494e-01       3.741334370402e-01 
       1.989186627765e-01       3.558014200310e-01 
       2.055707152847e-01       3.339966430182e-01 
       2.124452391818e-01       3.102650589833e-01 
       2.195497567139e-01       2.871216376178e-01 
       2.268921624510e-01       2.668064199076e-01 
       2.344808017550e-01       2.504813087863e-01 
       2.423245618548e-01       2.378319530149e-01 
       2.504329772620e-01       2.271095840089e-01 
       2.588163516754e-01       2.161156085836e-01 
       2.674858990930e-01       2.035437568469e-01 
       2.764539076010e-01       1.895954703767e-01 
       2.857339303080e-01       1.757555099194e-01 
       2.953410092148e-01       1.636974338058e-01 
       3.052919395542e-01       1.539044792737e-01 
       3.156055844677e-01       1.455284883253e-01 
       3.263032530092e-01       1.372475553084e-01 
       3.374091587054e-01       1.282993968647e-01 
       3.489509817175e-01       1.191687098829e-01 
       3.609605657343e-01       1.108049592126e-01 
       3.734747921333e-01       1.036425011104e-01 
       3.865366902904e-01       9.713871088220e-02 
       4.001968667448e-01       9.061282123891e-02 
       4.145153713076e-01       8.403427068594e-02 
       4.295641718077e-01       7.788821309786e-02 
       4.454304922144e-01       7.233872301949e-02 
       4.622214006969e-01       6.709046580722e-02 
       4.800702491654e-01       6.188869515640e-02 
       4.991459272112e-01       5.692312230428e-02 
       5.196665217302e-01       5.231289350747e-02 
       5.419201087032e-01       4.782938429245e-02 
       5.662975451962e-01       4.348348673600e-02 
       5.933463737275e-01       3.932750780012e-02 
       6.238638458458e-01       3.524974592742e-02 
       6.590669257916e-01       3.125924641150e-02 
       7.009246080454e-01       2.728363300136e-02 
       7.528593308799e-01       2.327462245186e-02 
       8.213469537518e-01       1.914414577628e-02 
       9.196980813302e-01       1.481273137624e-02 
       1.075112183810e+00       1.034638699401e-02 
       1.322697471132e+00       6.374589894353e-03 
       1.662328205042e+00       3.700505413151e-03 
       2.092692408506e+00       2.119101561060e-03 
       2.634543445090e+00       1.202261801076e-03 
       3.316693691389e+00       6.758042362402e-04 
       4.175469971226e+00       3.760524493859e-04 
       5.256605252960e+00       2.067107020024e-04 
       6.617673932723e+00       1.117471905798e-04 
       8.331157880872e+00       5.891686426466e-05 
       1.048830636590e+01       2.983309427997e-05 
       1.320399541071e+01       1.410773726337e-05 
       1.662284535976e+01       5.911874821828e-06 
       2.092692243973e+01       1.970627398802e-06 
       2.634543445002e+01       3.924427457559e-07 
       3.316693691389e+01       7.100073481893e-09 
       4.175469971226e+01       4.905533099940e-08 
       5.256605252960e+01       9.030609839079e-08 
       6.617673932723e+01       4.298790794175e-08 
