# Matter power spectrum P(k) at redshift z=99
# for k=1.04775e-05 to 67.6233 h/Mpc,
# number of wavenumbers equal to 246
#    1:k (h/Mpc)              2:P (Mpc/h)^3        
       1.047750691046e-05       7.261927685305e-03 
       1.131335172503e-05       7.820331657217e-03 
       1.221587619537e-05       8.421676000610e-03 
       1.319039970183e-05       9.069258207398e-03 
       1.424266597921e-05       9.766638418108e-03 
       1.537887696968e-05       1.051764071445e-02 
       1.660572937635e-05       1.132639107418e-02 
       1.793045413292e-05       1.219733233461e-02 
       1.936085902198e-05       1.313524226582e-02 
       2.090537469327e-05       1.414527124264e-02 
       2.257310435294e-05       1.523296274755e-02 
       2.437387741694e-05       1.640429447292e-02 
       2.631830744443e-05       1.766569585139e-02 
       2.841785469300e-05       1.902408738169e-02 
       3.068489366414e-05       2.048692974025e-02 
       3.313278603720e-05       2.206225517292e-02 
       3.577595942169e-05       2.375870708891e-02 
       3.862999239199e-05       2.558560731767e-02 
       4.171170630578e-05       2.755297767962e-02 
       4.503926444729e-05       2.967161932289e-02 
       4.863227907969e-05       3.195316456186e-02 
       5.251192703764e-05       3.441013525052e-02 
       5.670107454120e-05       3.705601728736e-02 
       6.122441196689e-05       3.990533420238e-02 
       6.610859936996e-05       4.297372175402e-02 
       7.138242361596e-05       4.627802149442e-02 
       7.707696804727e-05       4.983636202506e-02 
       8.322579568497e-05       5.366826856217e-02 
       8.986514704559e-05       5.779476404244e-02 
       9.703415373875e-05       6.223848254303e-02 
       1.047750691046e-04       6.702379876856e-02 
       1.131335172503e-04       7.217695165456e-02 
       1.221587619537e-04       7.772619086571e-02 
       1.319039970183e-04       8.370193446370e-02 
       1.424266597921e-04       9.013692522611e-02 
       1.537887696968e-04       9.706641258783e-02 
       1.660572937635e-04       1.045283356016e-01 
       1.793045413292e-04       1.125635350946e-01 
       1.936085902198e-04       1.212159616989e-01 
       2.090537469327e-04       1.305329134888e-01 
       2.257310435294e-04       1.405652848553e-01 
       2.437387741694e-04       1.513678305054e-01 
       2.631830744443e-04       1.629994507574e-01 
       2.841785469300e-04       1.755234924130e-01 
       3.068489366414e-04       1.890080673536e-01 
       3.313278603720e-04       2.035264005789e-01 
       3.577595942169e-04       2.191571807282e-01 
       3.862999239199e-04       2.359849441460e-01 
       4.171170630578e-04       2.541004745684e-01 
       4.503926444729e-04       2.736012084720e-01 
       4.863227907969e-04       2.945916795723e-01 
       5.251192703764e-04       3.171839530272e-01 
       5.670107454121e-04       3.414980769443e-01 
       6.122441196689e-04       3.676625418908e-01 
       6.610859936996e-04       3.958147258491e-01 
       7.138242361596e-04       4.261013291408e-01 
       7.707696804727e-04       4.586787799460e-01 
       8.322579568497e-04       4.937136008434e-01 
       8.986514704559e-04       5.313826809198e-01 
       9.703415373875e-04       5.718734980349e-01 
       1.047750691046e-03       6.153841638070e-01 
       1.131335172503e-03       6.621233248368e-01 
       1.221587619537e-03       7.123098229612e-01 
       1.319039970183e-03       7.661720593733e-01 
       1.424266597921e-03       8.239546307090e-01 
       1.537887696968e-03       8.859011182553e-01 
       1.660572937635e-03       9.522588014888e-01 
       1.793045413292e-03       1.023280100573e+00 
       1.936085902198e-03       1.099216305183e+00 
       2.090537469327e-03       1.180312990841e+00 
       2.257310435294e-03       1.266804115932e+00 
       2.437387741694e-03       1.358904853077e+00 
       2.631830744443e-03       1.456802682273e+00 
       2.841785469300e-03       1.560646888903e+00 
       3.068489366414e-03       1.670536059915e+00 
       3.313278603720e-03       1.786503848344e+00 
       3.577595942169e-03       1.908502925341e+00 
       3.862999239199e-03       2.036387723191e+00 
       4.171170630578e-03       2.169896183737e+00 
       4.503926444729e-03       2.308631865486e+00 
       4.863227907969e-03       2.452047273218e+00 
       5.251192703764e-03       2.599430605013e+00 
       5.670107454120e-03       2.749896901997e+00 
       6.122441196689e-03       2.902386475238e+00 
       6.610859936996e-03       3.055668662692e+00 
       7.138242361596e-03       3.208356399983e+00 
       7.707696804727e-03       3.358923817707e+00 
       8.322579568496e-03       3.505724836966e+00 
       8.986514704559e-03       3.647009627848e+00 
       9.703415373875e-03       3.780923152261e+00 
       1.047750691046e-02       3.905490793640e+00 
       1.131335172503e-02       4.018587805833e+00 
       1.221587619537e-02       4.117901299023e+00 
       1.319039970183e-02       4.200914872902e+00 
       1.424266597920e-02       4.264942006243e+00 
       1.537887696964e-02       4.307218477228e+00 
       1.660572937560e-02       4.325058108007e+00 
       1.793045412207e-02       4.316057848858e+00 
       1.936085889642e-02       4.278226781537e+00 
       2.090537351881e-02       4.210200188596e+00 
       2.257309534705e-02       4.111414754630e+00 
       2.437382002240e-02       3.982418135622e+00 
       2.631799943729e-02       3.825167642785e+00 
       2.841644544598e-02       3.643278303195e+00 
       3.067933354524e-02       3.442198046979e+00 
       3.311368469821e-02       3.229245509385e+00 
       3.571840442514e-02       3.013505459220e+00 
       3.847720347390e-02       2.805274304096e+00 
       4.135335537314e-02       2.614407593039e+00 
       4.429361666563e-02       2.448134820137e+00 
       4.724366437916e-02       2.309231547414e+00 
       5.016480834039e-02       2.196106528636e+00 
       5.303989618930e-02       2.104357918380e+00 
       5.586870668205e-02       2.028452289211e+00 
       5.866042679206e-02       1.963138642649e+00 
       6.142798931504e-02       1.903769490687e+00 
       6.418496438662e-02       1.846467166186e+00 
       6.694418832236e-02       1.788182801543e+00 
       6.971731104453e-02       1.726702732219e+00 
       7.251476154108e-02       1.660639484891e+00 
       7.534587669814e-02       1.589454007420e+00 
       7.821907664495e-02       1.513417014508e+00 
       8.114203771084e-02       1.433548950187e+00 
       8.412184533139e-02       1.351472433063e+00 
       8.716512277352e-02       1.269254398338e+00 
       9.027813693913e-02       1.189171097593e+00 
       9.346688429613e-02       1.113478016116e+00 
       9.673716026122e-02       1.044151825961e+00 
       1.000946150608e-01       9.826805965932e-01 
       1.035447986307e-01       9.299092138681e-01 
       1.070931966524e-01       8.859293326712e-01 
       1.107452594180e-01       8.500389883905e-01 
       1.145064248899e-01       8.207699782821e-01 
       1.183821370656e-01       7.959908658187e-01 
       1.223778605591e-01       7.731068207299e-01 
       1.264990921707e-01       7.494122495801e-01 
       1.307513701078e-01       7.225149110717e-01 
       1.351402814485e-01       6.908664995565e-01 
       1.396714683894e-01       6.541363799055e-01 
       1.443506337875e-01       6.133799287143e-01 
       1.491835464900e-01       5.708188171816e-01 
       1.541760469368e-01       5.293110553214e-01 
       1.593340535209e-01       4.916547117291e-01 
       1.646635701934e-01       4.598631586157e-01 
       1.701706958081e-01       4.346688096650e-01 
       1.758616357070e-01       4.153438165768e-01 
       1.817427160581e-01       3.998689620880e-01 
       1.878204014651e-01       3.856157054839e-01 
       1.941013163855e-01       3.697400335283e-01 
       2.005922709060e-01       3.504723402474e-01 
       2.073002914514e-01       3.279653347380e-01 
       2.142326570343e-01       3.041291153573e-01 
       2.213969417044e-01       2.815235356774e-01 
       2.288010639201e-01       2.621651007546e-01 
       2.364533436625e-01       2.468661593045e-01 
       2.443625682390e-01       2.349138100187e-01 
       2.525380678946e-01       2.243157593244e-01 
       2.609898025770e-01       2.129864335518e-01 
       2.697284614969e-01       1.999887863321e-01 
       2.787655775073e-01       1.859005289820e-01 
       2.881136588192e-01       1.723939466182e-01 
       2.977863412019e-01       1.609382126411e-01 
       3.077985646248e-01       1.516277470047e-01 
       3.181667793367e-01       1.434201678630e-01 
       3.289091877084e-01       1.350362761444e-01 
       3.400460298905e-01       1.260137846020e-01 
       3.515999235695e-01       1.170448034100e-01 
       3.635962710278e-01       1.090137510128e-01 
       3.760637505499e-01       1.021399031464e-01 
       3.890349143014e-01       9.576104527839e-02 
       4.025469215929e-01       8.932373956633e-02 
       4.166424455447e-01       8.292072823087e-02 
       4.313708034899e-01       7.701710129674e-02 
       4.467893781976e-01       7.169421414501e-02 
       4.629654198623e-01       6.665423403088e-02 
       4.799783500912e-01       6.169444500151e-02 
       4.979227318246e-01       5.698998591358e-02 
       5.169121269689e-01       5.266138038858e-02 
       5.370841403262e-01       4.851830971567e-02 
       5.586070463286e-01       4.452885772542e-02 
       5.816885093582e-01       4.077859893420e-02 
       6.065870143577e-01       3.720481629823e-02 
       6.336266466978e-01       3.377871896017e-02 
       6.632156057925e-01       3.052335223817e-02 
       6.958678637575e-01       2.740249166966e-02 
       7.322247983784e-01       2.442516369044e-02 
       7.730680193171e-01       2.158010427955e-02 
       8.193049551574e-01       1.887740070327e-02 
       8.718988013754e-01       1.632949746667e-02 
       9.317218028590e-01       1.396148472827e-02 
       9.993660906273e-01       1.180335745652e-02 
       1.075037109879e+00       9.879558704736e-03 
       1.158653485387e+00       8.200306099961e-03 
       1.250099156961e+00       6.758891017151e-03 
       1.349432400897e+00       5.534254865119e-03 
       1.456947456991e+00       4.500361560258e-03 
       1.573135110893e+00       3.630872316667e-03 
       1.698621895119e+00       2.901853990736e-03 
       1.834127512423e+00       2.292638021703e-03 
       1.980444933977e+00       1.785688323901e-03 
       2.138435191130e+00       1.366341323069e-03 
       2.309029198543e+00       1.022294571362e-03 
       2.493232376993e+00       7.433026114495e-04 
       2.692130394536e+00       5.207053619004e-04 
       2.906895533764e+00       3.471158830991e-04 
       3.138793596840e+00       2.160679652568e-04 
       3.389191365541e+00       1.216899465471e-04 
       3.659564656886e+00       5.842627516470e-05 
       3.951507021438e+00       2.080311392681e-05 
       4.266739135513e+00       3.295298503709e-06 
       4.607118942658e+00       3.093857472538e-07 
       4.974652604172e+00       6.320498360207e-06 
       5.371506323193e+00       1.617003825606e-05 
       5.800019112071e+00       2.548676951428e-05 
       6.262716578240e+00       3.115530019788e-05 
       6.762325809881e+00       3.168970290199e-05 
       7.301791449077e+00       2.734012605593e-05 
       7.884293047211e+00       1.981494746055e-05 
       8.513263804891e+00       1.158137505037e-05 
       9.192410806865e+00       4.926138693799e-06 
       9.925736871166e+00       1.107882896565e-06 
       1.071756414128e+01       2.606507184105e-09 
       1.157255956041e+01       4.425143046120e-07 
       1.249576237789e+01       1.062888699658e-06 
       1.349261385000e+01       1.109469849349e-06 
       1.456898931011e+01       6.619232205587e-07 
       1.573123279727e+01       1.994593415214e-07 
       1.698619444729e+01       9.863816140378e-09 
       1.834127086665e+01       1.421625302893e-08 
       1.980444872733e+01       3.072119424831e-08 
       2.138435183937e+01       1.299256654912e-08 
       2.309029197863e+01       5.093556102430e-10 
       2.493232376942e+01       7.701899159588e-10 
       2.692130394533e+01       4.985740396061e-10 
       2.906895533764e+01       1.841205112255e-11 
       3.138793596840e+01       2.058862106181e-10 
       3.389191365541e+01       1.649349047674e-11 
       3.659564656886e+01       2.889190078053e-11 
       3.951507021438e+01       9.691830621566e-12 
       4.266739135513e+01       1.944412856304e-12 
       4.607118942658e+01       4.529790188902e-13 
       4.974652604172e+01       4.332536844925e-13 
       5.371506323193e+01       5.080711373681e-15 
       5.800019112071e+01       2.723904172093e-14 
       6.262716578240e+01       1.227342466525e-14 
       6.762325809881e+01       1.753974455585e-15 
