# Matter power spectrum P(k) at redshift z=0
# for k=1.04775e-05 to 66.1767 h/Mpc,
# number of wavenumbers equal to 130
#    1:k (h/Mpc)              2:P (Mpc/h)^3        
       1.047750691046e-05       5.020964811312e+01 
       1.319039970183e-05       6.270562594775e+01 
       1.660572937635e-05       7.831147247912e+01 
       2.090537469327e-05       9.780108069295e+01 
       2.631830744443e-05       1.221408203809e+02 
       3.313278603720e-05       1.525374501932e+02 
       4.171170630578e-05       1.904975994010e+02 
       5.251192703764e-05       2.379022224249e+02 
       6.610859936996e-05       2.970989227882e+02 
       8.322579568497e-05       3.710167318946e+02 
       1.047750691046e-04       4.633080766742e+02 
       1.319039970183e-04       5.785234129339e+02 
       1.660572937635e-04       7.223242666092e+02 
       2.090537469327e-04       9.017396271824e+02 
       2.631830744443e-04       1.125468123750e+03 
       3.313278603720e-04       1.404223053681e+03 
       4.171170630578e-04       1.751108028790e+03 
       5.251192703764e-04       2.181998448133e+03 
       6.610859936996e-04       2.715889983592e+03 
       8.322579568497e-04       3.375152337132e+03 
       1.047750691046e-03       4.185552174313e+03 
       1.319039970183e-03       5.175742743768e+03 
       1.660572937635e-03       6.376123051724e+03 
       2.090537469327e-03       7.815671859555e+03 
       2.631830744443e-03       9.517783069065e+03 
       3.313278603720e-03       1.149357460336e+04 
       4.171170630578e-03       1.373266009386e+04 
       5.251192703764e-03       1.619063609848e+04 
       6.610859936996e-03       1.877460417943e+04 
       8.322579568497e-03       2.132607268922e+04 
       1.047750691046e-02       2.360548510348e+04 
       1.319039970183e-02       2.528218779834e+04 
       1.660572937633e-02       2.595026851832e+04 
       2.090537453514e-02       2.520933521078e+04 
       2.631818545635e-02       2.287028964745e+04 
       3.311571692125e-02       1.928622643876e+04 
       4.113809243311e-02       1.568421491268e+04 
       4.792590854610e-02       1.361058680422e+04 
       5.284436902701e-02       1.259134205658e+04 
       5.689644391095e-02       1.195561347980e+04 
       6.051252627066e-02       1.147553146850e+04 
       6.388413457411e-02       1.105594255915e+04 
       6.711249296401e-02       1.064905206685e+04 
       7.025823437965e-02       1.022936729613e+04 
       7.336115587705e-02       9.784525191335e+03 
       7.644928796912e-02       9.311697223114e+03 
       7.954353299775e-02       8.814551994580e+03 
       8.266024078725e-02       8.302165032025e+03 
       8.581273398637e-02       7.786990307298e+03 
       8.901225918437e-02       7.283253009167e+03 
       9.226860540985e-02       6.805210249956e+03 
       9.559052048996e-02       6.365645498780e+03 
       9.898599946599e-02       5.974421968153e+03 
       1.024624891378e-01       5.637362436405e+03 
       1.060270359164e-01       5.355818194053e+03 
       1.096863943056e-01       5.126252699169e+03 
       1.134471073830e-01       4.940517979556e+03 
       1.173155669539e-01       4.786179153425e+03 
       1.212980586983e-01       4.647924971671e+03 
       1.254007961065e-01       4.509155660556e+03 
       1.296299459934e-01       4.354543838524e+03 
       1.339916477160e-01       4.173208155339e+03 
       1.384920277736e-01       3.961158760635e+03 
       1.431372111762e-01       3.722678061603e+03 
       1.479333307714e-01       3.469540382448e+03 
       1.528865355934e-01       3.218319470596e+03 
       1.580029992204e-01       2.986256392771e+03 
       1.632889290723e-01       2.786959801136e+03 
       1.687505775527e-01       2.626807885931e+03 
       1.743942559171e-01       2.503763892683e+03 
       1.802263517371e-01       2.407315745196e+03 
       1.862533508214e-01       2.322220917950e+03 
       1.924818644494e-01       2.231538831806e+03 
       1.989186627765e-01       2.122166487612e+03 
       2.055707152847e-01       1.991998987313e+03 
       2.124452391818e-01       1.850309678537e+03 
       2.195497567139e-01       1.712155418724e+03 
       2.268921624510e-01       1.590972225596e+03 
       2.344808017550e-01       1.493652612242e+03 
       2.423245618548e-01       1.418301894295e+03 
       2.504329772620e-01       1.354448355390e+03 
       2.588163516754e-01       1.288920341643e+03 
       2.674858990930e-01       1.213919190232e+03 
       2.764539076010e-01       1.130676130693e+03 
       2.857339303080e-01       1.048079669177e+03 
       2.953410092148e-01       9.761614845571e+02 
       3.052919395542e-01       9.177888101660e+02 
       3.156055844677e-01       8.678761785406e+02 
       3.263032530092e-01       8.185028121859e+02 
       3.374091587054e-01       7.651191444787e+02 
       3.489509817175e-01       7.106473293074e+02 
       3.609605657343e-01       6.607584936476e+02 
       3.734747921333e-01       6.180573785614e+02 
       3.865366902904e-01       5.792828906615e+02 
       4.001968667448e-01       5.403635355590e+02 
       4.145153713076e-01       5.011218005473e+02 
       4.295641718077e-01       4.644664137887e+02 
       4.454304922144e-01       4.313736117072e+02 
       4.622214006969e-01       4.000789146200e+02 
       4.800702491654e-01       3.690534530715e+02 
       4.991459272112e-01       3.394384936949e+02 
       5.196665217302e-01       3.119447435019e+02 
       5.419201087032e-01       2.852044455218e+02 
       5.662975451962e-01       2.592863510145e+02 
       5.933463737275e-01       2.345012004220e+02 
       6.238638458458e-01       2.101812584395e+02 
       6.590669257916e-01       1.863813864231e+02 
       7.009246080454e-01       1.626690119144e+02 
       7.528593308799e-01       1.387570454268e+02 
       8.213469537518e-01       1.141211940716e+02 
       9.196980813302e-01       8.828394954881e+01 
       1.075112183810e+00       6.163721265218e+01 
       1.322697471132e+00       3.793351713730e+01 
       1.662328205042e+00       2.196290952294e+01 
       2.092692408506e+00       1.250493420509e+01 
       2.634543445090e+00       7.007820306209e+00 
       3.316693691389e+00       3.838220785665e+00 
       4.175469971226e+00       2.024024524896e+00 
       5.256605252960e+00       9.968077542923e-01 
       6.617673932723e+00       4.305451144874e-01 
       8.331157880872e+00       1.412602889350e-01 
       1.048830636590e+01       2.228022093587e-02 
       1.320399541071e+01       3.398126282637e-04 
       1.662284535976e+01       1.251108377252e-02 
       2.092692243973e+01       1.421283737723e-02 
       2.634543445002e+01       3.303276303526e-03 
       3.316693691389e+01       1.770689870425e-04 
       4.175469971226e+01       8.372635397670e-04 
       5.256605252960e+01       3.912410238239e-08 
       6.617673932723e+01       4.640746899235e-05 
