# Matter power spectrum P(k) at redshift z=99
# for k=1.04775e-05 to 66.1767 h/Mpc,
# number of wavenumbers equal to 130
#    1:k (h/Mpc)              2:P (Mpc/h)^3        
       1.047750691046e-05       7.261927680861e-03 
       1.319039970183e-05       9.069258201848e-03 
       1.660572937635e-05       1.132639106725e-02 
       2.090537469327e-05       1.414527123399e-02 
       2.631830744443e-05       1.766569584058e-02 
       3.313278603720e-05       2.206225515942e-02 
       4.171170630578e-05       2.755297766277e-02 
       5.251192703764e-05       3.441013522947e-02 
       6.610859936996e-05       4.297372172777e-02 
       8.322579568497e-05       5.366826852944e-02 
       1.047750691046e-04       6.702379872774e-02 
       1.319039970183e-04       8.370193441286e-02 
       1.660572937635e-04       1.045283355384e-01 
       2.090537469327e-04       1.305329134104e-01 
       2.631830744443e-04       1.629994506605e-01 
       3.313278603720e-04       2.035264004601e-01 
       4.171170630578e-04       2.541004744243e-01 
       5.251192703764e-04       3.171839528557e-01 
       6.610859936996e-04       3.958147256513e-01 
       8.322579568497e-04       4.937136006274e-01 
       1.047750691046e-03       6.153841636041e-01 
       1.319039970183e-03       7.661720592237e-01 
       1.660572937635e-03       9.522588016468e-01 
       2.090537469327e-03       1.180312991699e+00 
       2.631830744443e-03       1.456802684686e+00 
       3.313278603720e-03       1.786503854037e+00 
       4.171170630578e-03       2.169896193726e+00 
       5.251192703764e-03       2.599430630723e+00 
       6.610859936996e-03       3.055668710400e+00 
       8.322579568497e-03       3.505725598512e+00 
       1.047750691046e-02       3.905491044892e+00 
       1.319039970183e-02       4.200915388198e+00 
       1.660572937633e-02       4.325061856150e+00 
       2.090537453514e-02       4.210202329368e+00 
       2.631818545635e-02       3.825161003462e+00 
       3.311571692125e-02       3.229061528178e+00 
       4.113809243311e-02       2.627730573082e+00 
       4.792590854610e-02       2.280792600637e+00 
       5.284436902701e-02       2.110086119217e+00 
       5.689644391095e-02       2.003539940148e+00 
       6.051252627066e-02       1.923058731310e+00 
       6.388413457411e-02       1.852734121082e+00 
       6.711249296401e-02       1.784563808255e+00 
       7.025823437965e-02       1.714274204218e+00 
       7.336115587705e-02       1.639814411073e+00 
       7.644928796912e-02       1.560662795911e+00 
       7.954353299775e-02       1.477460577234e+00 
       8.266024078725e-02       1.391698061544e+00 
       8.581273398637e-02       1.305460872023e+00 
       8.901225918437e-02       1.221124547368e+00 
       9.226860540985e-02       1.141081266672e+00 
       9.559052048996e-02       1.067451903832e+00 
       9.898599946599e-02       1.001893278946e+00 
       1.024624891378e-01       9.453823084514e-01 
       1.060270359164e-01       8.981505213490e-01 
       1.096863943056e-01       8.596125512109e-01 
       1.134471073830e-01       8.284062903991e-01 
       1.173155669539e-01       8.024671290048e-01 
       1.212980586983e-01       7.792305215902e-01 
       1.254007961065e-01       7.559180667796e-01 
       1.296299459934e-01       7.299827632143e-01 
       1.339916477160e-01       6.995935412464e-01 
       1.384920277736e-01       6.640792545871e-01 
       1.431372111762e-01       6.241468075178e-01 
       1.479333307714e-01       5.817632036277e-01 
       1.528865355934e-01       5.396954286417e-01 
       1.580029992204e-01       5.008140036577e-01 
       1.632889290723e-01       4.673986987913e-01 
       1.687505775527e-01       4.405346141641e-01 
       1.743942559171e-01       4.198660911654e-01 
       1.802263517371e-01       4.036612880191e-01 
       1.862533508214e-01       3.893592125211e-01 
       1.924818644494e-01       3.741352270762e-01 
       1.989186627765e-01       3.558021439215e-01 
       2.055707152847e-01       3.339971613530e-01 
       2.124452391818e-01       3.102653984353e-01 
       2.195497567139e-01       2.871236571200e-01 
       2.268921624510e-01       2.668085210706e-01 
       2.344808017550e-01       2.504834891777e-01 
       2.423245618548e-01       2.378336287619e-01 
       2.504329772620e-01       2.271124817573e-01 
       2.588163516754e-01       2.161172516239e-01 
       2.674858990930e-01       2.035458664721e-01 
       2.764539076010e-01       1.895977702452e-01 
       2.857339303080e-01       1.757572804313e-01 
       2.953410092148e-01       1.636997931802e-01 
       3.052919395542e-01       1.539061359177e-01 
       3.156055844677e-01       1.455314889916e-01 
       3.263032530092e-01       1.372499072338e-01 
       3.374091587054e-01       1.283018551144e-01 
       3.489509817175e-01       1.191711259862e-01 
       3.609605657343e-01       1.108072978729e-01 
       3.734747921333e-01       1.036453568359e-01 
       3.865366902904e-01       9.714133967596e-02 
       4.001968667448e-01       9.061557455851e-02 
       4.145153713076e-01       8.403741146179e-02 
       4.295641718077e-01       7.789152029357e-02 
       4.454304922144e-01       7.234161176868e-02 
       4.622214006969e-01       6.709392924331e-02 
       4.800702491654e-01       6.189198727163e-02 
       4.991459272112e-01       5.692650533600e-02 
       5.196665217302e-01       5.231625685692e-02 
       5.419201087032e-01       4.783260698676e-02 
       5.662975451962e-01       4.348704104628e-02 
       5.933463737275e-01       3.933115426885e-02 
       6.238638458458e-01       3.525338802197e-02 
       6.590669257916e-01       3.126291310300e-02 
       7.009246080454e-01       2.728733277081e-02 
       7.528593308799e-01       2.327848811893e-02 
       8.213469537518e-01       1.914828630517e-02 
       9.196980813302e-01       1.481704773144e-02 
       1.075112183810e+00       1.035090849302e-02 
       1.322697471132e+00       6.379476969207e-03 
       1.662328205042e+00       3.705664584551e-03 
       2.092692408506e+00       2.124538562691e-03 
       2.634543445090e+00       1.207970042139e-03 
       3.316693691389e+00       6.817135970986e-04 
       4.175469971226e+00       3.821254982909e-04 
       5.256605252960e+00       2.128758933258e-04 
       6.617673932723e+00       1.179235622213e-04 
       8.331157880872e+00       6.498786405407e-05 
       1.048830636590e+01       3.564558309605e-05 
       1.320399541071e+01       1.946641324375e-05 
       1.662284535976e+01       1.058795570229e-05 
       2.092692243973e+01       5.737437623160e-06 
       2.634543445002e+01       3.098167858641e-06 
       3.316693691389e+01       1.667545055568e-06 
       4.175469971226e+01       8.947439033359e-07 
       5.256605252960e+01       4.786623382236e-07 
       6.617673932723e+01       2.553166677416e-07 
