# Matter power spectrum P(k) at redshift z=99
# for k=1.04775e-05 to 66.1767 h/Mpc,
# number of wavenumbers equal to 130
#    1:k (h/Mpc)              2:P (Mpc/h)^3        
       1.047750691046e-05       7.261927680862e-03 
       1.319039970183e-05       9.069258201849e-03 
       1.660572937635e-05       1.132639106725e-02 
       2.090537469327e-05       1.414527123399e-02 
       2.631830744443e-05       1.766569584058e-02 
       3.313278603720e-05       2.206225515942e-02 
       4.171170630578e-05       2.755297766277e-02 
       5.251192703764e-05       3.441013522947e-02 
       6.610859936996e-05       4.297372172778e-02 
       8.322579568497e-05       5.366826852944e-02 
       1.047750691046e-04       6.702379872775e-02 
       1.319039970183e-04       8.370193441286e-02 
       1.660572937635e-04       1.045283355384e-01 
       2.090537469327e-04       1.305329134104e-01 
       2.631830744443e-04       1.629994506605e-01 
       3.313278603720e-04       2.035264004601e-01 
       4.171170630578e-04       2.541004744243e-01 
       5.251192703764e-04       3.171839528557e-01 
       6.610859936996e-04       3.958147256514e-01 
       8.322579568497e-04       4.937136006280e-01 
       1.047750691046e-03       6.153841636042e-01 
       1.319039970183e-03       7.661720592252e-01 
       1.660572937635e-03       9.522588016470e-01 
       2.090537469327e-03       1.180312991699e+00 
       2.631830744443e-03       1.456802684686e+00 
       3.313278603720e-03       1.786503854041e+00 
       4.171170630578e-03       2.169896192333e+00 
       5.251192703764e-03       2.599430630716e+00 
       6.610859936996e-03       3.055668704465e+00 
       8.322579568497e-03       3.505725163535e+00 
       1.047750691046e-02       3.905490741825e+00 
       1.319039970183e-02       4.200915266101e+00 
       1.660572937633e-02       4.325061330167e+00 
       2.090537453514e-02       4.210200569991e+00 
       2.631818545635e-02       3.825152314142e+00 
       3.311571692125e-02       3.229073351555e+00 
       4.113809243311e-02       2.627728764037e+00 
       4.792590854610e-02       2.280797035574e+00 
       5.284436902701e-02       2.110086590924e+00 
       5.689644391095e-02       2.003538926432e+00 
       6.051252627066e-02       1.923059483857e+00 
       6.388413457411e-02       1.852737188164e+00 
       6.711249296401e-02       1.784566810586e+00 
       7.025823437965e-02       1.714279801901e+00 
       7.336115587705e-02       1.639813346597e+00 
       7.644928796912e-02       1.560660451076e+00 
       7.954353299775e-02       1.477457880427e+00 
       8.266024078725e-02       1.391695380900e+00 
       8.581273398637e-02       1.305462169953e+00 
       8.901225918437e-02       1.221125869587e+00 
       9.226860540985e-02       1.141080976299e+00 
       9.559052048996e-02       1.067454291796e+00 
       9.898599946599e-02       1.001890240930e+00 
       1.024624891378e-01       9.453818450622e-01 
       1.060270359164e-01       8.981492079611e-01 
       1.096863943056e-01       8.596141828664e-01 
       1.134471073830e-01       8.284066625884e-01 
       1.173155669539e-01       8.024670096984e-01 
       1.212980586983e-01       7.792304557306e-01 
       1.254007961065e-01       7.559177256026e-01 
       1.296299459934e-01       7.299820318393e-01 
       1.339916477160e-01       6.995936437889e-01 
       1.384920277736e-01       6.640779334411e-01 
       1.431372111762e-01       6.241464582706e-01 
       1.479333307714e-01       5.817640675653e-01 
       1.528865355934e-01       5.396939439942e-01 
       1.580029992204e-01       5.008135065145e-01 
       1.632889290723e-01       4.673979677965e-01 
       1.687505775527e-01       4.405333953001e-01 
       1.743942559171e-01       4.198659383881e-01 
       1.802263517371e-01       4.036611456449e-01 
       1.862533508214e-01       3.893593747878e-01 
       1.924818644494e-01       3.741348647590e-01 
       1.989186627765e-01       3.558009662775e-01 
       2.055707152847e-01       3.339987126240e-01 
       2.124452391818e-01       3.102653713305e-01 
       2.195497567139e-01       2.871233249952e-01 
       2.268921624510e-01       2.668085909713e-01 
       2.344808017550e-01       2.504838086002e-01 
       2.423245618548e-01       2.378328211470e-01 
       2.504329772620e-01       2.271116901982e-01 
       2.588163516754e-01       2.161173135483e-01 
       2.674858990930e-01       2.035452712336e-01 
       2.764539076010e-01       1.895975562640e-01 
       2.857339303080e-01       1.757571738768e-01 
       2.953410092148e-01       1.636996098816e-01 
       3.052919395542e-01       1.539066435478e-01 
       3.156055844677e-01       1.455310290989e-01 
       3.263032530092e-01       1.372498213469e-01 
       3.374091587054e-01       1.283017934709e-01 
       3.489509817175e-01       1.191714512423e-01 
       3.609605657343e-01       1.108069176267e-01 
       3.734747921333e-01       1.036451408721e-01 
       3.865366902904e-01       9.714125016819e-02 
       4.001968667448e-01       9.061529214715e-02 
       4.145153713076e-01       8.403722163985e-02 
       4.295641718077e-01       7.789118381447e-02 
       4.454304922144e-01       7.234163298494e-02 
       4.622214006969e-01       6.709338382644e-02 
       4.800702491654e-01       6.189180917214e-02 
       4.991459272112e-01       5.692613129524e-02 
       5.196665217302e-01       5.231580658050e-02 
       5.419201087032e-01       4.783226447436e-02 
       5.662975451962e-01       4.348672155295e-02 
       5.933463737275e-01       3.933088864854e-02 
       6.238638458458e-01       3.525316677478e-02 
       6.590669257916e-01       3.126263745725e-02 
       7.009246080454e-01       2.728702387182e-02 
       7.528593308799e-01       2.327816764949e-02 
       8.213469537518e-01       1.914798217913e-02 
       9.196980813302e-01       1.481670581546e-02 
       1.075112183810e+00       1.035063499556e-02 
       1.322697471132e+00       6.379092210788e-03 
       1.662328205042e+00       3.705273091085e-03 
       2.092692408506e+00       2.124131122026e-03 
       2.634543445090e+00       1.207542304510e-03 
       3.316693691389e+00       6.812671778123e-04 
       4.175469971226e+00       3.816650468493e-04 
       5.256605252960e+00       2.124086670123e-04 
       6.617673932723e+00       1.174492974664e-04 
       8.331157880872e+00       6.450929907487e-05 
       1.048830636590e+01       3.516583809770e-05 
       1.320399541071e+01       1.898843963057e-05 
       1.662284535976e+01       1.011727257345e-05 
       2.092692243973e+01       5.280685783807e-06 
       2.634543445002e+01       2.664637563150e-06 
       3.316693691389e+01       1.269157315037e-06 
       4.175469971226e+01       5.459048868094e-07 
       5.256605252960e+01       1.941577460453e-07 
       6.617673932723e+01       4.612163245826e-08 
