# Matter power spectrum P(k) at redshift z=0
# for k=1.04775e-05 to 66.1767 h/Mpc,
# number of wavenumbers equal to 130
#    1:k (h/Mpc)              2:P (Mpc/h)^3        
       1.047750691046e-05       5.020964811313e+01 
       1.319039970183e-05       6.270562594788e+01 
       1.660572937635e-05       7.831147247912e+01 
       2.090537469327e-05       9.780108069296e+01 
       2.631830744443e-05       1.221408203810e+02 
       3.313278603720e-05       1.525374501932e+02 
       4.171170630578e-05       1.904975994010e+02 
       5.251192703764e-05       2.379022224249e+02 
       6.610859936996e-05       2.970989227882e+02 
       8.322579568497e-05       3.710167318945e+02 
       1.047750691046e-04       4.633080766742e+02 
       1.319039970183e-04       5.785234129332e+02 
       1.660572937635e-04       7.223242666092e+02 
       2.090537469327e-04       9.017396271824e+02 
       2.631830744443e-04       1.125468123750e+03 
       3.313278603720e-04       1.404223053681e+03 
       4.171170630578e-04       1.751108028790e+03 
       5.251192703764e-04       2.181998448133e+03 
       6.610859936996e-04       2.715889983591e+03 
       8.322579568497e-04       3.375152337132e+03 
       1.047750691046e-03       4.185552174312e+03 
       1.319039970183e-03       5.175742740297e+03 
       1.660572937635e-03       6.376123051767e+03 
       2.090537469327e-03       7.815671865419e+03 
       2.631830744443e-03       9.517783069069e+03 
       3.313278603720e-03       1.149357460335e+04 
       4.171170630578e-03       1.373266009585e+04 
       5.251192703764e-03       1.619063610187e+04 
       6.610859936996e-03       1.877460420227e+04 
       8.322579568497e-03       2.132607266230e+04 
       1.047750691046e-02       2.360549411332e+04 
       1.319039970183e-02       2.528219014817e+04 
       1.660572937633e-02       2.595027559844e+04 
       2.090537453514e-02       2.520934279900e+04 
       2.631818545635e-02       2.287028060370e+04 
       3.311571692125e-02       1.928626441099e+04 
       4.113809243311e-02       1.568424469279e+04 
       4.792590854610e-02       1.361061460920e+04 
       5.284436902701e-02       1.259132191938e+04 
       5.689644391095e-02       1.195561460538e+04 
       6.051252627066e-02       1.147550824513e+04 
       6.388413457411e-02       1.105593306906e+04 
       6.711249296401e-02       1.064901355899e+04 
       7.025823437965e-02       1.022934856325e+04 
       7.336115587705e-02       9.784525915945e+03 
       7.644928796912e-02       9.311675789601e+03 
       7.954353299775e-02       8.814546300326e+03 
       8.266024078725e-02       8.302169979125e+03 
       8.581273398637e-02       7.786969054914e+03 
       8.901225918437e-02       7.283252572461e+03 
       9.226860540985e-02       6.805186178714e+03 
       9.559052048996e-02       6.365631260473e+03 
       9.898599946599e-02       5.974427750234e+03 
       1.024624891378e-01       5.637384960728e+03 
       1.060270359164e-01       5.355792077018e+03 
       1.096863943056e-01       5.126245746433e+03 
       1.134471073830e-01       4.940499937198e+03 
       1.173155669539e-01       4.786182006212e+03 
       1.212980586983e-01       4.647947662243e+03 
       1.254007961065e-01       4.509154970152e+03 
       1.296299459934e-01       4.354538137988e+03 
       1.339916477160e-01       4.173222203127e+03 
       1.384920277736e-01       3.961161155676e+03 
       1.431372111762e-01       3.722677913120e+03 
       1.479333307714e-01       3.469531764391e+03 
       1.528865355934e-01       3.218302946532e+03 
       1.580029992204e-01       2.986265026541e+03 
       1.632889290723e-01       2.786959881340e+03 
       1.687505775527e-01       2.626810381640e+03 
       1.743942559171e-01       2.503762691772e+03 
       1.802263517371e-01       2.407308583076e+03 
       1.862533508214e-01       2.322220630434e+03 
       1.924818644494e-01       2.231529462636e+03 
       1.989186627765e-01       2.122175241843e+03 
       2.055707152847e-01       1.992014410931e+03 
       2.124452391818e-01       1.850314493800e+03 
       2.195497567139e-01       1.712156804888e+03 
       2.268921624510e-01       1.590972320528e+03 
       2.344808017550e-01       1.493650738989e+03 
       2.423245618548e-01       1.418305738135e+03 
       2.504329772620e-01       1.354455894845e+03 
       2.588163516754e-01       1.288920748592e+03 
       2.674858990930e-01       1.213914877735e+03 
       2.764539076010e-01       1.130677198432e+03 
       2.857339303080e-01       1.048079336915e+03 
       2.953410092148e-01       9.761619859924e+02 
       3.052919395542e-01       9.177920637032e+02 
       3.156055844677e-01       8.678815133560e+02 
       3.263032530092e-01       8.185077473359e+02 
       3.374091587054e-01       7.651272005370e+02 
       3.489509817175e-01       7.106525167385e+02 
       3.609605657343e-01       6.607630788126e+02 
       3.734747921333e-01       6.180640817874e+02 
       3.865366902904e-01       5.792883730382e+02 
       4.001968667448e-01       5.403676718386e+02 
       4.145153713076e-01       5.011271310352e+02 
       4.295641718077e-01       4.644730953050e+02 
       4.454304922144e-01       4.313830344483e+02 
       4.622214006969e-01       4.000864740685e+02 
       4.800702491654e-01       3.690601877814e+02 
       4.991459272112e-01       3.394453237226e+02 
       5.196665217302e-01       3.119543877241e+02 
       5.419201087032e-01       2.852140055167e+02 
       5.662975451962e-01       2.592966264252e+02 
       5.933463737275e-01       2.345122860493e+02 
       6.238638458458e-01       2.101921457726e+02 
       6.590669257916e-01       1.863925088078e+02 
       7.009246080454e-01       1.626810511839e+02 
       7.528593308799e-01       1.387716611290e+02 
       8.213469537518e-01       1.141357729775e+02 
       9.196980813302e-01       8.830026986816e+01 
       1.075112183810e+00       6.165650801787e+01 
       1.322697471132e+00       3.795713309737e+01 
       1.662328205042e+00       2.199206071598e+01 
       2.092692408506e+00       1.254007190185e+01 
       2.634543445090e+00       7.048848198861e+00 
       3.316693691389e+00       3.884602461713e+00 
       4.175469971226e+00       2.073973609821e+00 
       5.256605252960e+00       1.046936293216e+00 
       6.617673932723e+00       4.754606589894e-01 
       8.331157880872e+00       1.743123620808e-01 
       1.048830636590e+01       3.833161751429e-02 
       1.320399541071e+01       6.266729164152e-04 
       1.662284535976e+01       6.896759245216e-03 
       2.092692243973e+01       1.314924026719e-02 
       2.634543445002e+01       5.532360139530e-03 
       3.316693691389e+01       2.577173326474e-05 
       4.175469971226e+01       8.120372056486e-04 
       5.256605252960e+01       7.970748730959e-05 
       6.617673932723e+01       6.215217517735e-05 
