# Matter power spectrum P(k) at redshift z=0
# for k=1.04775e-05 to 67.6233 h/Mpc,
# number of wavenumbers equal to 246
#    1:k (h/Mpc)              2:P (Mpc/h)^3        
       1.047750691046e-05       5.020964811306e+01 
       1.131335172503e-05       5.407050701929e+01 
       1.221587619537e-05       5.822819068759e+01 
       1.319039970183e-05       6.270562594785e+01 
       1.424266597921e-05       6.752732240880e+01 
       1.537887696968e-05       7.271977206173e+01 
       1.660572937635e-05       7.831147247912e+01 
       1.793045413292e-05       8.433311821988e+01 
       1.936085902198e-05       9.081778249833e+01 
       2.090537469327e-05       9.780108069296e+01 
       2.257310435294e-05       1.053213197893e+02 
       2.437387741694e-05       1.134197377890e+02 
       2.631830744443e-05       1.221408203809e+02 
       2.841785469300e-05       1.315324642469e+02 
       3.068489366414e-05       1.416462094881e+02 
       3.313278603720e-05       1.525374501932e+02 
       3.577595942169e-05       1.642660688414e+02 
       3.862999239199e-05       1.768963506307e+02 
       4.171170630578e-05       1.904975994010e+02 
       4.503926444729e-05       2.051444491973e+02 
       4.863227907969e-05       2.209171465549e+02 
       5.251192703764e-05       2.379022224249e+02 
       5.670107454120e-05       2.561927927609e+02 
       6.122441196689e-05       2.758890444040e+02 
       6.610859936996e-05       2.970989227882e+02 
       7.138242361596e-05       3.199385560802e+02 
       7.707696804727e-05       3.445329783680e+02 
       8.322579568497e-05       3.710167318946e+02 
       8.986514704559e-05       3.995346444203e+02 
       9.703415373875e-05       4.302425407383e+02 
       1.047750691046e-04       4.633080766742e+02 
       1.131335172503e-04       4.989116271564e+02 
       1.221587619537e-04       5.372471950929e+02 
       1.319039970183e-04       5.785234129338e+02 
       1.424266597921e-04       6.229645936045e+02 
       1.537887696968e-04       6.708118490405e+02 
       1.660572937635e-04       7.223242666092e+02 
       1.793045413292e-04       7.777801567915e+02 
       1.936085902198e-04       8.374783614141e+02 
       2.090537469327e-04       9.017396271824e+02 
       2.257310435294e-04       9.709080268041e+02 
       2.437387741694e-04       1.045352449493e+03 
       2.631830744443e-04       1.125468123750e+03 
       2.841785469300e-04       1.211678180495e+03 
       3.068489366414e-04       1.304435250150e+03 
       3.313278603720e-04       1.404223053681e+03 
       3.577595942169e-04       1.511558014616e+03 
       3.862999239199e-04       1.626990837807e+03 
       4.171170630578e-04       1.751108028790e+03 
       4.503926444729e-04       1.884533382872e+03 
       4.863227907969e-04       2.027929378112e+03 
       5.251192703764e-04       2.181998448133e+03 
       5.670107454121e-04       2.347484102755e+03 
       6.122441196689e-04       2.525171871365e+03 
       6.610859936996e-04       2.715889983592e+03 
       7.138242361596e-04       2.920509688382e+03 
       7.707696804727e-04       3.139945100279e+03 
       8.322579568497e-04       3.375152337578e+03 
       8.986514704559e-04       3.627127831141e+03 
       9.703415373875e-04       3.896905453136e+03 
       1.047750691046e-03       4.185552174300e+03 
       1.131335172503e-03       4.494162430373e+03 
       1.221587619537e-03       4.823850706491e+03 
       1.319039970183e-03       5.175742742783e+03 
       1.424266597921e-03       5.551019596910e+03 
       1.537887696968e-03       5.950788340560e+03 
       1.660572937635e-03       6.376123051788e+03 
       1.793045413292e-03       6.828073901447e+03 
       1.936085902198e-03       7.307625381067e+03 
       2.090537469327e-03       7.815671855724e+03 
       2.257310435294e-03       8.352990375822e+03 
       2.437387741694e-03       8.920211064340e+03 
       2.631830744443e-03       9.517783069112e+03 
       2.841785469300e-03       1.014593704435e+04 
       3.068489366414e-03       1.080464502786e+04 
       3.313278603720e-03       1.149357460340e+04 
       3.577595942169e-03       1.221203621722e+04 
       3.862999239199e-03       1.295892539446e+04 
       4.171170630578e-03       1.373266013410e+04 
       4.503926444729e-03       1.453111835625e+04 
       4.863227907969e-03       1.535154985300e+04 
       5.251192703764e-03       1.619063614559e+04 
       5.670107454120e-03       1.704431257748e+04 
       6.122441196689e-03       1.790755939649e+04 
       6.610859936996e-03       1.877460417799e+04 
       7.138242361596e-03       1.963872430354e+04 
       7.707696804727e-03       2.049215714573e+04 
       8.322579568496e-03       2.132607231827e+04 
       8.986514704559e-03       2.213055075046e+04 
       9.703415373875e-03       2.289445472099e+04 
       1.047750691046e-02       2.360548735607e+04 
       1.131335172503e-02       2.425023077794e+04 
       1.221587619537e-02       2.481423924010e+04 
       1.319039970183e-02       2.528218772029e+04 
       1.424266597920e-02       2.563814323155e+04 
       1.537887696964e-02       2.586605891138e+04 
       1.660572937560e-02       2.595025325416e+04 
       1.793045412207e-02       2.587633995120e+04 
       1.936085889642e-02       2.563220149846e+04 
       2.090537351881e-02       2.520935080210e+04 
       2.257309534705e-02       2.460446604350e+04 
       2.437382002240e-02       2.382084793341e+04 
       2.631799943729e-02       2.287050026992e+04 
       2.841644544598e-02       2.177450884800e+04 
       3.067933354524e-02       2.056554579093e+04 
       3.311368469821e-02       1.928727252978e+04 
       3.571840442514e-02       1.799399920963e+04 
       3.847720347390e-02       1.674680920150e+04 
       4.135335537314e-02       1.560462814212e+04 
       4.429361666563e-02       1.461026026128e+04 
       4.724366437916e-02       1.378055085951e+04 
       5.016480834039e-02       1.310508674027e+04 
       5.303989618930e-02       1.255715772765e+04 
       5.586870668205e-02       1.210426684611e+04 
       5.866042679206e-02       1.171464317901e+04 
       6.142798931504e-02       1.136047893328e+04 
       6.418496438662e-02       1.101855232179e+04 
       6.694418832236e-02       1.067068216196e+04 
       6.971731104453e-02       1.030359360647e+04 
       7.251476154108e-02       9.909038049202e+03 
       7.534587669814e-02       9.483772560837e+03 
       7.821907664495e-02       9.029490355643e+03 
       8.114203771084e-02       8.552338239906e+03 
       8.412184533139e-02       8.061962494477e+03 
       8.716512277352e-02       7.570776022477e+03 
       9.027813693913e-02       7.092510176275e+03 
       9.346688429613e-02       6.640500775127e+03 
       9.673716026122e-02       6.226712013256e+03 
       1.000946150608e-01       5.859934497928e+03 
       1.035447986307e-01       5.545237827500e+03 
       1.070931966524e-01       5.283137868051e+03 
       1.107452594180e-01       5.069425472564e+03 
       1.145064248899e-01       4.895227053382e+03 
       1.183821370656e-01       4.747847047484e+03 
       1.223778605591e-01       4.611736367535e+03 
       1.264990921707e-01       4.470627434531e+03 
       1.307513701078e-01       4.310279003002e+03 
       1.351402814485e-01       4.121391049624e+03 
       1.396714683894e-01       3.902067918862e+03 
       1.443506337875e-01       3.658636233966e+03 
       1.491835464900e-01       3.404486234392e+03 
       1.541760469368e-01       3.156673027807e+03 
       1.593340535209e-01       2.931975560088e+03 
       1.646635701934e-01       2.742373004032e+03 
       1.701706958081e-01       2.592259336371e+03 
       1.758616357070e-01       2.477240190144e+03 
       1.817427160581e-01       2.385186139108e+03 
       1.878204014651e-01       2.300361052934e+03 
       1.941013163855e-01       2.205765974104e+03 
       2.005922709060e-01       2.090820494801e+03 
       2.073002914514e-01       1.956470869578e+03 
       2.142326570343e-01       1.814190367870e+03 
       2.213969417044e-01       1.679299267035e+03 
       2.288010639201e-01       1.563848530449e+03 
       2.364533436625e-01       1.472685548428e+03 
       2.443625682390e-01       1.401515472879e+03 
       2.525380678946e-01       1.338411560926e+03 
       2.609898025770e-01       1.270902935864e+03 
       2.697284614969e-01       1.193382321684e+03 
       2.787655775073e-01       1.109336885509e+03 
       2.881136588192e-01       1.028772806724e+03 
       2.977863412019e-01       9.604801381803e+02 
       3.077985646248e-01       9.050234728683e+02 
       3.181667793367e-01       8.561472051131e+02 
       3.289091877084e-01       8.061902961925e+02 
       3.400460298905e-01       7.523910234539e+02 
       3.515999235695e-01       6.989226838610e+02 
       3.635962710278e-01       6.510659487872e+02 
       3.760637505499e-01       6.101224202943e+02 
       3.890349143014e-01       5.721339731510e+02 
       4.025469215929e-01       5.337820637383e+02 
       4.166424455447e-01       4.956320757429e+02 
       4.313708034899e-01       4.604707163268e+02 
       4.467893781976e-01       4.287799389641e+02 
       4.629654198623e-01       3.987741336055e+02 
       4.799783500912e-01       3.692417299281e+02 
       4.979227318246e-01       3.412410179027e+02 
       5.169121269689e-01       3.154852142115e+02 
       5.370841403262e-01       2.908351568176e+02 
       5.586070463286e-01       2.671071479418e+02 
       5.816885093582e-01       2.448098774740e+02 
       6.065870143577e-01       2.235681476359e+02 
       6.336266466978e-01       2.032109213475e+02 
       6.632156057925e-01       1.838790930533e+02 
       6.958678637575e-01       1.653550240607e+02 
       7.322247983784e-01       1.476961769792e+02 
       7.730680193171e-01       1.308337480203e+02 
       8.193049551574e-01       1.148313814842e+02 
       8.718988013754e-01       9.976286527513e+01 
       9.317218028590e-01       8.577789241594e+01 
       9.993660906273e-01       7.305484743262e+01 
       1.075037109879e+00       6.173613450896e+01 
       1.158653485387e+00       5.187935601227e+01 
       1.250099156961e+00       4.344044288882e+01 
       1.349432400897e+00       3.628958613065e+01 
       1.456947456991e+00       3.026813707874e+01 
       1.573135110893e+00       2.521467623163e+01 
       1.698621895119e+00       2.098211628940e+01 
       1.834127512423e+00       1.744256289585e+01 
       1.980444933977e+00       1.448575552994e+01 
       2.138435191130e+00       1.201899479483e+01 
       2.309029198543e+00       9.963200790481e+00 
       2.493232376993e+00       8.251868770782e+00 
       2.692130394536e+00       6.828687798646e+00 
       2.906895533764e+00       5.646283538462e+00 
       3.138793596840e+00       4.664915914891e+00 
       3.389191365541e+00       3.851144397965e+00 
       3.659564656886e+00       3.176971142196e+00 
       3.951507021438e+00       2.618903302740e+00 
       4.266739135513e+00       2.157360016102e+00 
       4.607118942658e+00       1.775948083886e+00 
       4.974652604172e+00       1.460995728831e+00 
       5.371506323193e+00       1.201142831659e+00 
       5.800019112071e+00       9.868893690469e-01 
       6.262716578240e+00       8.103580109710e-01 
       6.762325809881e+00       6.650107922208e-01 
       7.301791449077e+00       5.454299910533e-01 
       7.884293047211e+00       4.470983462501e-01 
       8.513263804891e+00       3.662977135361e-01 
       9.192410806865e+00       2.999436319916e-01 
       9.925736871166e+00       2.454832699813e-01 
       1.071756414128e+01       2.008081947295e-01 
       1.157255956041e+01       1.641859451876e-01 
       1.249576237789e+01       1.341784267875e-01 
       1.349261385000e+01       1.096027532924e-01 
       1.456898931011e+01       8.948927935771e-02 
       1.573123279727e+01       7.303440769600e-02 
       1.698619444729e+01       5.957797516274e-02 
       1.834127086665e+01       4.858101300365e-02 
       1.980444872733e+01       3.959713294243e-02 
       2.138435183937e+01       3.226124458158e-02 
       2.309029197863e+01       2.627354440459e-02 
       2.493232376942e+01       2.138858307383e-02 
       2.692130394533e+01       1.740493604302e-02 
       2.906895533764e+01       1.415735316218e-02 
       3.138793596840e+01       1.151130142053e-02 
       3.389191365541e+01       9.356096654028e-03 
       3.659564656886e+01       7.601232901877e-03 
       3.951507021438e+01       6.173175124369e-03 
       4.266739135513e+01       5.011136679874e-03 
       4.607118942658e+01       4.066209522642e-03 
       4.974652604172e+01       3.298024321176e-03 
       5.371506323193e+01       2.673745298860e-03 
       5.800019112071e+01       2.166577934655e-03 
       6.262716578240e+01       1.754775231054e-03 
       6.762325809881e+01       1.420483413766e-03 
