# Matter power spectrum P(k) at redshift z=99
# for k=1.04775e-05 to 67.6233 h/Mpc,
# number of wavenumbers equal to 246
#    1:k (h/Mpc)              2:P (Mpc/h)^3        
       1.047750691046e-05       7.261927680869e-03 
       1.131335172503e-05       7.820331652439e-03 
       1.221587619537e-05       8.421675995462e-03 
       1.319039970183e-05       9.069258201857e-03 
       1.424266597921e-05       9.766638412142e-03 
       1.537887696968e-05       1.051764070802e-02 
       1.660572937635e-05       1.132639106726e-02 
       1.793045413292e-05       1.219733232716e-02 
       1.936085902198e-05       1.313524225780e-02 
       2.090537469327e-05       1.414527123400e-02 
       2.257310435294e-05       1.523296273824e-02 
       2.437387741694e-05       1.640429446290e-02 
       2.631830744443e-05       1.766569584060e-02 
       2.841785469300e-05       1.902408737007e-02 
       3.068489366414e-05       2.048692972774e-02 
       3.313278603720e-05       2.206225515944e-02 
       3.577595942169e-05       2.375870707440e-02 
       3.862999239199e-05       2.558560730205e-02 
       4.171170630578e-05       2.755297766279e-02 
       4.503926444729e-05       2.967161930476e-02 
       4.863227907969e-05       3.195316454236e-02 
       5.251192703764e-05       3.441013522950e-02 
       5.670107454120e-05       3.705601726476e-02 
       6.122441196689e-05       3.990533417800e-02 
       6.610859936996e-05       4.297372172782e-02 
       7.138242361596e-05       4.627802146619e-02 
       7.707696804727e-05       4.983636199469e-02 
       8.322579568497e-05       5.366826852949e-02 
       8.986514704559e-05       5.779476400726e-02 
       9.703415373875e-05       6.223848250516e-02 
       1.047750691046e-04       6.702379872781e-02 
       1.131335172503e-04       7.217695161071e-02 
       1.221587619537e-04       7.772619081852e-02 
       1.319039970183e-04       8.370193441294e-02 
       1.424266597921e-04       9.013692517150e-02 
       1.537887696968e-04       9.706641252912e-02 
       1.660572937635e-04       1.045283355385e-01 
       1.793045413292e-04       1.125635350267e-01 
       1.936085902198e-04       1.212159616260e-01 
       2.090537469327e-04       1.305329134105e-01 
       2.257310435294e-04       1.405652847712e-01 
       2.437387741694e-04       1.513678304153e-01 
       2.631830744443e-04       1.629994506607e-01 
       2.841785469300e-04       1.755234923094e-01 
       3.068489366414e-04       1.890080672426e-01 
       3.313278603720e-04       2.035264004603e-01 
       3.577595942169e-04       2.191571806015e-01 
       3.862999239199e-04       2.359849440106e-01 
       4.171170630578e-04       2.541004744245e-01 
       4.503926444729e-04       2.736012083192e-01 
       4.863227907969e-04       2.945916794102e-01 
       5.251192703764e-04       3.171839528560e-01 
       5.670107454121e-04       3.414980767638e-01 
       6.122441196689e-04       3.676625417015e-01 
       6.610859936996e-04       3.958147256516e-01 
       7.138242361596e-04       4.261013289364e-01 
       7.707696804727e-04       4.586787797354e-01 
       8.322579568497e-04       4.937136006297e-01 
       8.986514704559e-04       5.313826807053e-01 
       9.703415373875e-04       5.718734978237e-01 
       1.047750691046e-03       6.153841636045e-01 
       1.131335172503e-03       6.621233246499e-01 
       1.221587619537e-03       7.123098228006e-01 
       1.319039970183e-03       7.661720592924e-01 
       1.424266597921e-03       8.239546306460e-01 
       1.537887696968e-03       8.859011182851e-01 
       1.660572937635e-03       9.522588016437e-01 
       1.793045413292e-03       1.023280100901e+00 
       1.936085902198e-03       1.099216305740e+00 
       2.090537469327e-03       1.180312991698e+00 
       2.257310435294e-03       1.266804117186e+00 
       2.437387741694e-03       1.358904854834e+00 
       2.631830744443e-03       1.456802684682e+00 
       2.841785469300e-03       1.560646892151e+00 
       3.068489366414e-03       1.670536064238e+00 
       3.313278603720e-03       1.786503854031e+00 
       3.577595942169e-03       1.908502932757e+00 
       3.862999239199e-03       2.036387732799e+00 
       4.171170630578e-03       2.169896192368e+00 
       4.503926444729e-03       2.308631881332e+00 
       4.863227907969e-03       2.452047293424e+00 
       5.251192703764e-03       2.599430630676e+00 
       5.670107454120e-03       2.749896934521e+00 
       6.122441196689e-03       2.902386516197e+00 
       6.610859936996e-03       3.055668702779e+00 
       7.138242361596e-03       3.208356464536e+00 
       7.707696804727e-03       3.358923896159e+00 
       8.322579568496e-03       3.505725598416e+00 
       8.986514704559e-03       3.647009252868e+00 
       9.703415373875e-03       3.780923307434e+00 
       1.047750691046e-02       3.905491041793e+00 
       1.131335172503e-02       4.018587960869e+00 
       1.221587619537e-02       4.117901585982e+00 
       1.319039970183e-02       4.200915415465e+00 
       1.424266597920e-02       4.264941004702e+00 
       1.537887696964e-02       4.307217620242e+00 
       1.660572937560e-02       4.325062772336e+00 
       1.793045412207e-02       4.316056656388e+00 
       1.936085889642e-02       4.278230093844e+00 
       2.090537351881e-02       4.210207538003e+00 
       2.257309534705e-02       4.111420332444e+00 
       2.437382002240e-02       3.982422159246e+00 
       2.631799943729e-02       3.825169820864e+00 
       2.841644544598e-02       3.643287259486e+00 
       3.067933354524e-02       3.442199376960e+00 
       3.311368469821e-02       3.229246059275e+00 
       3.571840442514e-02       3.013519191398e+00 
       3.847720347390e-02       2.805280675614e+00 
       4.135335537314e-02       2.614414847589e+00 
       4.429361666563e-02       2.448134430258e+00 
       4.724366437916e-02       2.309236754265e+00 
       5.016480834039e-02       2.196115688213e+00 
       5.303989618930e-02       2.104363147374e+00 
       5.586870668205e-02       2.028466244063e+00 
       5.866042679206e-02       1.963152368431e+00 
       6.142798931504e-02       1.903784129634e+00 
       6.418496438662e-02       1.846476431433e+00 
       6.694418832236e-02       1.788197515628e+00 
       6.971731104453e-02       1.726715963665e+00 
       7.251476154108e-02       1.660649836787e+00 
       7.534587669814e-02       1.589466357619e+00 
       7.821907664495e-02       1.513439184498e+00 
       8.114203771084e-02       1.433570145561e+00 
       8.412184533139e-02       1.351491839039e+00 
       8.716512277352e-02       1.269273882553e+00 
       9.027813693913e-02       1.189190778141e+00 
       9.346688429613e-02       1.113502344334e+00 
       9.673716026122e-02       1.044174227672e+00 
       1.000946150608e-01       9.827058889438e-01 
       1.035447986307e-01       9.299378737307e-01 
       1.070931966524e-01       8.859587250274e-01 
       1.107452594180e-01       8.500702085473e-01 
       1.145064248899e-01       8.208037867873e-01 
       1.183821370656e-01       7.960238519885e-01 
       1.223778605591e-01       7.731442511056e-01 
       1.264990921707e-01       7.494524770153e-01 
       1.307513701078e-01       7.225570090271e-01 
       1.351402814485e-01       6.909072492816e-01 
       1.396714683894e-01       6.541782782120e-01 
       1.443506337875e-01       6.134260908732e-01 
       1.491835464900e-01       5.708661654021e-01 
       1.541760469368e-01       5.293642853175e-01 
       1.593340535209e-01       4.917101684600e-01 
       1.646635701934e-01       4.599198378581e-01 
       1.701706958081e-01       4.347280283752e-01 
       1.758616357070e-01       4.154075441610e-01 
       1.817427160581e-01       3.999366833654e-01 
       1.878204014651e-01       3.856812057767e-01 
       1.941013163855e-01       3.698088035925e-01 
       2.005922709060e-01       3.505455935545e-01 
       2.073002914514e-01       3.280422943618e-01 
       2.142326570343e-01       3.042134372627e-01 
       2.213969417044e-01       2.816092187191e-01 
       2.288010639201e-01       2.622556832607e-01 
       2.364533436625e-01       2.469607218043e-01 
       2.443625682390e-01       2.350117840884e-01 
       2.525380678946e-01       2.244164550029e-01 
       2.609898025770e-01       2.130928630400e-01 
       2.697284614969e-01       2.001003948501e-01 
       2.787655775073e-01       1.860188660689e-01 
       2.881136588192e-01       1.725158606038e-01 
       2.977863412019e-01       1.610649400750e-01 
       3.077985646248e-01       1.517599438097e-01 
       3.181667793367e-01       1.435578705283e-01 
       3.289091877084e-01       1.351799647206e-01 
       3.400460298905e-01       1.261628396948e-01 
       3.515999235695e-01       1.172003718199e-01 
       3.635962710278e-01       1.091756631701e-01 
       3.760637505499e-01       1.023076596890e-01 
       3.890349143014e-01       9.593612580477e-02 
       4.025469215929e-01       8.950575975303e-02 
       4.166424455447e-01       8.310971440342e-02 
       4.313708034899e-01       7.721358014426e-02 
       4.467893781976e-01       7.189848086832e-02 
       4.629654198623e-01       6.686693774000e-02 
       4.799783500912e-01       6.191534398407e-02 
       4.979227318246e-01       5.721974795602e-02 
       5.169121269689e-01       5.290040541370e-02 
       5.370841403262e-01       4.876724680753e-02 
       5.586070463286e-01       4.478796939692e-02 
       5.816885093582e-01       4.104881536593e-02 
       6.065870143577e-01       3.748682313884e-02 
       6.336266466978e-01       3.407305763391e-02 
       6.632156057925e-01       3.083110119185e-02 
       6.958678637575e-01       2.772468463415e-02 
       7.322247983784e-01       2.476320417580e-02 
       7.730680193171e-01       2.193542694627e-02 
       8.193049551574e-01       1.925176627934e-02 
       8.718988013754e-01       1.672453642817e-02 
       9.317218028590e-01       1.437912356370e-02 
       9.993660906273e-01       1.224519950953e-02 
       1.075037109879e+00       1.034676967924e-02 
       1.158653485387e+00       8.693381986925e-03 
       1.250099156961e+00       7.277714980372e-03 
       1.349432400897e+00       6.078045799420e-03 
       1.456947456991e+00       5.067740090234e-03 
       1.573135110893e+00       4.219698685906e-03 
       1.698621895119e+00       3.509302965892e-03 
       1.834127512423e+00       2.915082783524e-03 
       1.980444933977e+00       2.418573130778e-03 
       2.138435191130e+00       2.004190114706e-03 
       2.309029198543e+00       1.658694155643e-03 
       2.493232376993e+00       1.370932504013e-03 
       2.692130394536e+00       1.131462401753e-03 
       2.906895533764e+00       9.323667161644e-04 
       3.138793596840e+00       7.669557806602e-04 
       3.389191365541e+00       6.296412117404e-04 
       3.659564656886e+00       5.157333175732e-04 
       3.951507021438e+00       4.213064181988e-04 
       4.266739135513e+00       3.430819868421e-04 
       4.607118942658e+00       2.783262013218e-04 
       4.974652604172e+00       2.247626778884e-04 
       5.371506323193e+00       1.804983227954e-04 
       5.800019112071e+00       1.439640497441e-04 
       6.262716578240e+00       1.138601686977e-04 
       6.762325809881e+00       8.911498014966e-05 
       7.301791449077e+00       6.884354454880e-05 
       7.884293047211e+00       5.232002737841e-05 
       8.513263804891e+00       3.894478798397e-05 
       9.192410806865e+00       2.822694822343e-05 
       9.925736871166e+00       1.976115010564e-05 
       1.071756414128e+01       1.320849542343e-05 
       1.157255956041e+01       8.282162862089e-06 
       1.249576237789e+01       4.732782671858e-06 
       1.349261385000e+01       2.335743835155e-06 
       1.456898931011e+01       8.818268934183e-07 
       1.573123279727e+01       1.695756443921e-07 
       1.698619444729e+01       2.327767626007e-09 
       1.834127086665e+01       1.893261020776e-07 
       1.980444872733e+01       5.517826092254e-07 
       2.138435183937e+01       9.332612053517e-07 
       2.309029197863e+01       1.212794896051e-06 
       2.493232376942e+01       1.317574345757e-06 
       2.692130394533e+01       1.230271243869e-06 
       2.906895533764e+01       9.875271795635e-07 
       3.138793596840e+01       6.654097314302e-07 
       3.389191365541e+01       3.539503679618e-07 
       3.659564656886e+01       1.266556207616e-07 
       3.951507021438e+01       1.578484071994e-08 
       4.266739135513e+01       4.820815032449e-09 
       4.607118942658e+01       4.312568581537e-08 
       4.974652604172e+01       7.638561408135e-08 
       5.371506323193e+01       7.564924072447e-08 
       5.800019112071e+01       4.685684566033e-08 
       6.262716578240e+01       1.552422006603e-08 
       6.762325809881e+01       8.391163023818e-10 
