# Matter power spectrum P(k) at redshift z=0
# for k=1.04775e-05 to 66.1767 h/Mpc,
# number of wavenumbers equal to 130
#    1:k (h/Mpc)              2:P (Mpc/h)^3        
       1.047750691046e-05       5.020964811308e+01 
       1.319039970183e-05       6.270562594780e+01 
       1.660572937635e-05       7.831147247912e+01 
       2.090537469327e-05       9.780108069296e+01 
       2.631830744443e-05       1.221408203809e+02 
       3.313278603720e-05       1.525374501932e+02 
       4.171170630578e-05       1.904975994010e+02 
       5.251192703764e-05       2.379022224249e+02 
       6.610859936996e-05       2.970989227883e+02 
       8.322579568497e-05       3.710167318945e+02 
       1.047750691046e-04       4.633080766742e+02 
       1.319039970183e-04       5.785234129337e+02 
       1.660572937635e-04       7.223242666091e+02 
       2.090537469327e-04       9.017396271822e+02 
       2.631830744443e-04       1.125468123750e+03 
       3.313278603720e-04       1.404223053680e+03 
       4.171170630578e-04       1.751108028788e+03 
       5.251192703764e-04       2.181998448130e+03 
       6.610859936996e-04       2.715889983586e+03 
       8.322579568497e-04       3.375152337122e+03 
       1.047750691046e-03       4.185552174273e+03 
       1.319039970183e-03       5.175742737188e+03 
       1.660572937635e-03       6.376123051694e+03 
       2.090537469327e-03       7.815671864594e+03 
       2.631830744443e-03       9.517783068681e+03 
       3.313278603720e-03       1.149357460258e+04 
       4.171170630578e-03       1.373266011186e+04 
       5.251192703764e-03       1.619063567708e+04 
       6.610859936996e-03       1.877460435871e+04 
       8.322579568497e-03       2.132611365866e+04 
       1.047750691046e-02       2.360548589724e+04 
       1.319039970183e-02       2.528220092584e+04 
       1.660572937633e-02       2.595036773937e+04 
       2.090537453514e-02       2.520929474830e+04 
       2.631818545635e-02       2.287029575900e+04 
       3.311571692125e-02       1.928620230285e+04 
       4.113809243311e-02       1.568428041705e+04 
       4.792590854610e-02       1.361053333604e+04 
       5.284436902701e-02       1.259123100457e+04 
       5.689644391095e-02       1.195552350482e+04 
       6.051252627066e-02       1.147546766393e+04 
       6.388413457411e-02       1.105566046437e+04 
       6.711249296401e-02       1.064888485542e+04 
       7.025823437965e-02       1.022930141354e+04 
       7.336115587705e-02       9.784560359554e+03 
       7.644928796912e-02       9.311714847751e+03 
       7.954353299775e-02       8.814550476209e+03 
       8.266024078725e-02       8.302169219330e+03 
       8.581273398637e-02       7.786944844305e+03 
       8.901225918437e-02       7.283198956486e+03 
       9.226860540985e-02       6.805216579301e+03 
       9.559052048996e-02       6.365614631070e+03 
       9.898599946599e-02       5.974394627237e+03 
       1.024624891378e-01       5.637340088053e+03 
       1.060270359164e-01       5.355791237359e+03 
       1.096863943056e-01       5.126228388819e+03 
       1.134471073830e-01       4.940476462929e+03 
       1.173155669539e-01       4.786148636914e+03 
       1.212980586983e-01       4.647920687658e+03 
       1.254007961065e-01       4.509053923093e+03 
       1.296299459934e-01       4.354543723320e+03 
       1.339916477160e-01       4.173137735855e+03 
       1.384920277736e-01       3.961168960409e+03 
       1.431372111762e-01       3.722585938279e+03 
       1.479333307714e-01       3.469549043166e+03 
       1.528865355934e-01       3.218320517978e+03 
       1.580029992204e-01       2.986242631759e+03 
       1.632889290723e-01       2.786943900453e+03 
       1.687505775527e-01       2.626813832844e+03 
       1.743942559171e-01       2.503751592056e+03 
       1.802263517371e-01       2.407302520340e+03 
       1.862533508214e-01       2.322247255610e+03 
       1.924818644494e-01       2.231564268158e+03 
       1.989186627765e-01       2.122203029981e+03 
       2.055707152847e-01       1.992039818510e+03 
       2.124452391818e-01       1.850303427470e+03 
       2.195497567139e-01       1.712153462675e+03 
       2.268921624510e-01       1.590963192102e+03 
       2.344808017550e-01       1.493657818700e+03 
       2.423245618548e-01       1.418300243668e+03 
       2.504329772620e-01       1.354438838336e+03 
       2.588163516754e-01       1.288931673138e+03 
       2.674858990930e-01       1.213901257055e+03 
       2.764539076010e-01       1.130675095960e+03 
       2.857339303080e-01       1.048080372769e+03 
       2.953410092148e-01       9.761686932003e+02 
       3.052919395542e-01       9.178003468010e+02 
       3.156055844677e-01       8.678837213804e+02 
       3.263032530092e-01       8.185170142220e+02 
       3.374091587054e-01       7.651384612448e+02 
       3.489509817175e-01       7.106568515926e+02 
       3.609605657343e-01       6.607730716914e+02 
       3.734747921333e-01       6.180759239453e+02 
       3.865366902904e-01       5.792979714749e+02 
       4.001968667448e-01       5.403767595703e+02 
       4.145153713076e-01       5.011401282425e+02 
       4.295641718077e-01       4.644903215911e+02 
       4.454304922144e-01       4.313959187242e+02 
       4.622214006969e-01       4.001047829411e+02 
       4.800702491654e-01       3.690791018217e+02 
       4.991459272112e-01       3.394671109461e+02 
       5.196665217302e-01       3.119753462143e+02 
       5.419201087032e-01       2.852373783151e+02 
       5.662975451962e-01       2.593210236298e+02 
       5.933463737275e-01       2.345393895960e+02 
       6.238638458458e-01       2.102241136641e+02 
       6.590669257916e-01       1.864264809205e+02 
       7.009246080454e-01       1.627188018187e+02 
       7.528593308799e-01       1.388119936725e+02 
       8.213469537518e-01       1.141823708936e+02 
       9.196980813302e-01       8.835283952488e+01 
       1.075112183810e+00       6.171972079671e+01 
       1.322697471132e+00       3.803650355122e+01 
       1.662328205042e+00       2.209198543708e+01 
       2.092692408506e+00       1.266316296740e+01 
       2.634543445090e+00       7.197430953660e+00 
       3.316693691389e+00       4.059498519525e+00 
       4.175469971226e+00       2.273200783174e+00 
       5.256605252960e+00       1.264186633087e+00 
       6.617673932723e+00       6.982498592954e-01 
       8.331157880872e+00       3.828923578826e-01 
       1.048830636590e+01       2.082387875173e-01 
       1.320399541071e+01       1.120895655861e-01 
       1.662284535976e+01       5.948654477708e-02 
       2.092692243973e+01       3.091366410939e-02 
       2.634543445002e+01       1.554095078468e-02 
       3.316693691389e+01       7.396745386302e-03 
       4.175469971226e+01       3.204606320951e-03 
       5.256605252960e+01       1.172054024865e-03 
       6.617673932723e+01       3.078144893545e-04 
