# Matter power spectrum P(k) at redshift z=99
# for k=1.04775e-05 to 67.6233 h/Mpc,
# number of wavenumbers equal to 246
#    1:k (h/Mpc)              2:P (Mpc/h)^3        
       1.047750691046e-05       7.261927680861e-03 
       1.131335172503e-05       7.820331652431e-03 
       1.221587619537e-05       8.421675995453e-03 
       1.319039970183e-05       9.069258201848e-03 
       1.424266597921e-05       9.766638412133e-03 
       1.537887696968e-05       1.051764070801e-02 
       1.660572937635e-05       1.132639106725e-02 
       1.793045413292e-05       1.219733232715e-02 
       1.936085902198e-05       1.313524225779e-02 
       2.090537469327e-05       1.414527123399e-02 
       2.257310435294e-05       1.523296273823e-02 
       2.437387741694e-05       1.640429446288e-02 
       2.631830744443e-05       1.766569584058e-02 
       2.841785469300e-05       1.902408737005e-02 
       3.068489366414e-05       2.048692972772e-02 
       3.313278603720e-05       2.206225515942e-02 
       3.577595942169e-05       2.375870707438e-02 
       3.862999239199e-05       2.558560730202e-02 
       4.171170630578e-05       2.755297766277e-02 
       4.503926444729e-05       2.967161930474e-02 
       4.863227907969e-05       3.195316454233e-02 
       5.251192703764e-05       3.441013522947e-02 
       5.670107454120e-05       3.705601726469e-02 
       6.122441196689e-05       3.990533417796e-02 
       6.610859936996e-05       4.297372172777e-02 
       7.138242361596e-05       4.627802146614e-02 
       7.707696804727e-05       4.983636199464e-02 
       8.322579568497e-05       5.366826852944e-02 
       8.986514704559e-05       5.779476400721e-02 
       9.703415373875e-05       6.223848250510e-02 
       1.047750691046e-04       6.702379872774e-02 
       1.131335172503e-04       7.217695161064e-02 
       1.221587619537e-04       7.772619081844e-02 
       1.319039970183e-04       8.370193441286e-02 
       1.424266597921e-04       9.013692517143e-02 
       1.537887696968e-04       9.706641252902e-02 
       1.660572937635e-04       1.045283355384e-01 
       1.793045413292e-04       1.125635350266e-01 
       1.936085902198e-04       1.212159616259e-01 
       2.090537469327e-04       1.305329134104e-01 
       2.257310435294e-04       1.405652847711e-01 
       2.437387741694e-04       1.513678304151e-01 
       2.631830744443e-04       1.629994506605e-01 
       2.841785469300e-04       1.755234923092e-01 
       3.068489366414e-04       1.890080672425e-01 
       3.313278603720e-04       2.035264004601e-01 
       3.577595942169e-04       2.191571806013e-01 
       3.862999239199e-04       2.359849440104e-01 
       4.171170630578e-04       2.541004744243e-01 
       4.503926444729e-04       2.736012083189e-01 
       4.863227907969e-04       2.945916794099e-01 
       5.251192703764e-04       3.171839528558e-01 
       5.670107454121e-04       3.414980767635e-01 
       6.122441196689e-04       3.676625417011e-01 
       6.610859936996e-04       3.958147256513e-01 
       7.138242361596e-04       4.261013289356e-01 
       7.707696804727e-04       4.586787797351e-01 
       8.322579568497e-04       4.937136006290e-01 
       8.986514704559e-04       5.313826807049e-01 
       9.703415373875e-04       5.718734978233e-01 
       1.047750691046e-03       6.153841636040e-01 
       1.131335172503e-03       6.621233246496e-01 
       1.221587619537e-03       7.123098227995e-01 
       1.319039970183e-03       7.661720592427e-01 
       1.424266597921e-03       8.239546306468e-01 
       1.537887696968e-03       8.859011182851e-01 
       1.660572937635e-03       9.522588016479e-01 
       1.793045413292e-03       1.023280100902e+00 
       1.936085902198e-03       1.099216305740e+00 
       2.090537469327e-03       1.180312991699e+00 
       2.257310435294e-03       1.266804117186e+00 
       2.437387741694e-03       1.358904854833e+00 
       2.631830744443e-03       1.456802684686e+00 
       2.841785469300e-03       1.560646892157e+00 
       3.068489366414e-03       1.670536064245e+00 
       3.313278603720e-03       1.786503854042e+00 
       3.577595942169e-03       1.908502932770e+00 
       3.862999239199e-03       2.036387732815e+00 
       4.171170630578e-03       2.169896192004e+00 
       4.503926444729e-03       2.308631881359e+00 
       4.863227907969e-03       2.452047293459e+00 
       5.251192703764e-03       2.599430630722e+00 
       5.670107454120e-03       2.749896934537e+00 
       6.122441196689e-03       2.902386516272e+00 
       6.610859936996e-03       3.055668704979e+00 
       7.138242361596e-03       3.208356464660e+00 
       7.707696804727e-03       3.358923896622e+00 
       8.322579568496e-03       3.505725598720e+00 
       8.986514704559e-03       3.647009713440e+00 
       9.703415373875e-03       3.780923307823e+00 
       1.047750691046e-02       3.905490873356e+00 
       1.131335172503e-02       4.018587666620e+00 
       1.221587619537e-02       4.117901589693e+00 
       1.319039970183e-02       4.200915452926e+00 
       1.424266597920e-02       4.264943718107e+00 
       1.537887696964e-02       4.307221465645e+00 
       1.660572937560e-02       4.325061773347e+00 
       1.793045412207e-02       4.316054081618e+00 
       1.936085889642e-02       4.278231353681e+00 
       2.090537351881e-02       4.210201800311e+00 
       2.257309534705e-02       4.111421887956e+00 
       2.437382002240e-02       3.982419199291e+00 
       2.631799943729e-02       3.825178410957e+00 
       2.841644544598e-02       3.643282072475e+00 
       3.067933354524e-02       3.442193571244e+00 
       3.311368469821e-02       3.229237746698e+00 
       3.571840442514e-02       3.013515916101e+00 
       3.847720347390e-02       2.805277620776e+00 
       4.135335537314e-02       2.614411590708e+00 
       4.429361666563e-02       2.448135550420e+00 
       4.724366437916e-02       2.309239211010e+00 
       5.016480834039e-02       2.196117508837e+00 
       5.303989618930e-02       2.104360721347e+00 
       5.586870668205e-02       2.028467954708e+00 
       5.866042679206e-02       1.963155669261e+00 
       6.142798931504e-02       1.903778418454e+00 
       6.418496438662e-02       1.846480889700e+00 
       6.694418832236e-02       1.788195399424e+00 
       6.971731104453e-02       1.726715394842e+00 
       7.251476154108e-02       1.660653452622e+00 
       7.534587669814e-02       1.589470869396e+00 
       7.821907664495e-02       1.513436900931e+00 
       8.114203771084e-02       1.433568240563e+00 
       8.412184533139e-02       1.351492538307e+00 
       8.716512277352e-02       1.269273439014e+00 
       9.027813693913e-02       1.189194195801e+00 
       9.346688429613e-02       1.113500121145e+00 
       9.673716026122e-02       1.044176743449e+00 
       1.000946150608e-01       9.827064566454e-01 
       1.035447986307e-01       9.299389232500e-01 
       1.070931966524e-01       8.859612435843e-01 
       1.107452594180e-01       8.500702936420e-01 
       1.145064248899e-01       8.208042016797e-01 
       1.183821370656e-01       7.960248306555e-01 
       1.223778605591e-01       7.731469257563e-01 
       1.264990921707e-01       7.494529378263e-01 
       1.307513701078e-01       7.225569912193e-01 
       1.351402814485e-01       6.909087224224e-01 
       1.396714683894e-01       6.541811620900e-01 
       1.443506337875e-01       6.134270603823e-01 
       1.491835464900e-01       5.708678832760e-01 
       1.541760469368e-01       5.293635010311e-01 
       1.593340535209e-01       4.917108686830e-01 
       1.646635701934e-01       4.599201033745e-01 
       1.701706958081e-01       4.347283410329e-01 
       1.758616357070e-01       4.154085882908e-01 
       1.817427160581e-01       3.999372286556e-01 
       1.878204014651e-01       3.856829962277e-01 
       1.941013163855e-01       3.698088701741e-01 
       2.005922709060e-01       3.505464211954e-01 
       2.073002914514e-01       3.280439845791e-01 
       2.142326570343e-01       3.042144686084e-01 
       2.213969417044e-01       2.816118748882e-01 
       2.288010639201e-01       2.622567780126e-01 
       2.364533436625e-01       2.469625027419e-01 
       2.443625682390e-01       2.350127483504e-01 
       2.525380678946e-01       2.244181280610e-01 
       2.609898025770e-01       2.130927820463e-01 
       2.697284614969e-01       2.001018772657e-01 
       2.787655775073e-01       1.860203851373e-01 
       2.881136588192e-01       1.725178417786e-01 
       2.977863412019e-01       1.610662768148e-01 
       3.077985646248e-01       1.517610814990e-01 
       3.181667793367e-01       1.435594124148e-01 
       3.289091877084e-01       1.351816332629e-01 
       3.400460298905e-01       1.261645304546e-01 
       3.515999235695e-01       1.172018436961e-01 
       3.635962710278e-01       1.091771098491e-01 
       3.760637505499e-01       1.023098461038e-01 
       3.890349143014e-01       9.593776827184e-02 
       4.025469215929e-01       8.950807174226e-02 
       4.166424455447e-01       8.311167646236e-02 
       4.313708034899e-01       7.721560999722e-02 
       4.467893781976e-01       7.190056736131e-02 
       4.629654198623e-01       6.686903635948e-02 
       4.799783500912e-01       6.191772915064e-02 
       4.979227318246e-01       5.722234945902e-02 
       5.169121269689e-01       5.290309009306e-02 
       5.370841403262e-01       4.876977617236e-02 
       5.586070463286e-01       4.479093592921e-02 
       5.816885093582e-01       4.105189467770e-02 
       6.065870143577e-01       3.748998545309e-02 
       6.336266466978e-01       3.407634692069e-02 
       6.632156057925e-01       3.083456412494e-02 
       6.958678637575e-01       2.772833522874e-02 
       7.322247983784e-01       2.476711083774e-02 
       7.730680193171e-01       2.193952912137e-02 
       8.193049551574e-01       1.925609967451e-02 
       8.718988013754e-01       1.672930220855e-02 
       9.317218028590e-01       1.438419401913e-02 
       9.993660906273e-01       1.225063145761e-02 
       1.075037109879e+00       1.035258288259e-02 
       1.158653485387e+00       8.699728926492e-03 
       1.250099156961e+00       7.284578696028e-03 
       1.349432400897e+00       6.085469427555e-03 
       1.456947456991e+00       5.075712576670e-03 
       1.573135110893e+00       4.228322820708e-03 
       1.698621895119e+00       3.518545583822e-03 
       1.834127512423e+00       2.924975341238e-03 
       1.980444933977e+00       2.429149925836e-03 
       2.138435191130e+00       2.015506988132e-03 
       2.309029198543e+00       1.670769997928e-03 
       2.493232376993e+00       1.383792582620e-03 
       2.692130394536e+00       1.145131000765e-03 
       2.906895533764e+00       9.468564548212e-04 
       3.138793596840e+00       7.822906044512e-04 
       3.389191365541e+00       6.458206979635e-04 
       3.659564656886e+00       5.327697021724e-04 
       3.951507021438e+00       4.391860270570e-04 
       4.266739135513e+00       3.617887018410e-04 
       4.607118942658e+00       2.978270050015e-04 
       4.974652604172e+00       2.450121515324e-04 
       5.371506323193e+00       2.014349814507e-04 
       5.800019112071e+00       1.655043770120e-04 
       6.262716578240e+00       1.359031846754e-04 
       6.762325809881e+00       1.115288592780e-04 
       7.301791449077e+00       9.147529568907e-05 
       7.884293047211e+00       7.498563104868e-05 
       8.513263804891e+00       6.143531792813e-05 
       9.192410806865e+00       5.030760567239e-05 
       9.925736871166e+00       4.117445117155e-05 
       1.071756414128e+01       3.368256675962e-05 
       1.157255956041e+01       2.754082421449e-05 
       1.249576237789e+01       2.250819984968e-05 
       1.349261385000e+01       1.838707057881e-05 
       1.456898931011e+01       1.501357679162e-05 
       1.573123279727e+01       1.225375662842e-05 
       1.698619444729e+01       9.997001017328e-06 
       1.834127086665e+01       8.152553888401e-06 
       1.980444872733e+01       6.645665353869e-06 
       2.138435183937e+01       5.415156975555e-06 
       2.309029197863e+01       4.410805387957e-06 
       2.493232376942e+01       3.591419426931e-06 
       2.692130394533e+01       2.923095044654e-06 
       2.906895533764e+01       2.378280560930e-06 
       3.138793596840e+01       1.934305022185e-06 
       3.389191365541e+01       1.572662927811e-06 
       3.659564656886e+01       1.278194333397e-06 
       3.951507021438e+01       1.038497023244e-06 
       4.266739135513e+01       8.434611263138e-07 
       4.607118942658e+01       6.848159197649e-07 
       4.974652604172e+01       5.558233942546e-07 
       5.371506323193e+01       4.509682508786e-07 
       5.800019112071e+01       3.657693750347e-07 
       6.262716578240e+01       2.965593204753e-07 
       6.762325809881e+01       2.403579755181e-07 
