# Matter power spectrum P(k) at redshift z=0
# for k=1.04775e-05 to 66.1767 h/Mpc,
# number of wavenumbers equal to 130
#    1:k (h/Mpc)              2:P (Mpc/h)^3        
       1.047750691046e-05       5.020964811307e+01 
       1.319039970183e-05       6.270562594782e+01 
       1.660572937635e-05       7.831147247912e+01 
       2.090537469327e-05       9.780108069297e+01 
       2.631830744443e-05       1.221408203809e+02 
       3.313278603720e-05       1.525374501932e+02 
       4.171170630578e-05       1.904975994010e+02 
       5.251192703764e-05       2.379022224249e+02 
       6.610859936996e-05       2.970989227881e+02 
       8.322579568497e-05       3.710167318946e+02 
       1.047750691046e-04       4.633080766742e+02 
       1.319039970183e-04       5.785234129334e+02 
       1.660572937635e-04       7.223242666092e+02 
       2.090537469327e-04       9.017396271824e+02 
       2.631830744443e-04       1.125468123750e+03 
       3.313278603720e-04       1.404223053681e+03 
       4.171170630578e-04       1.751108028790e+03 
       5.251192703764e-04       2.181998448133e+03 
       6.610859936996e-04       2.715889983593e+03 
       8.322579568497e-04       3.375152337135e+03 
       1.047750691046e-03       4.185552174306e+03 
       1.319039970183e-03       5.175742742943e+03 
       1.660572937635e-03       6.376123051778e+03 
       2.090537469327e-03       7.815671866287e+03 
       2.631830744443e-03       9.517783069109e+03 
       3.313278603720e-03       1.149357460345e+04 
       4.171170630578e-03       1.373266012878e+04 
       5.251192703764e-03       1.619063614522e+04 
       6.610859936996e-03       1.877460359983e+04 
       8.322579568497e-03       2.132607232002e+04 
       1.047750691046e-02       2.360548045412e+04 
       1.319039970183e-02       2.528218806547e+04 
       1.660572937633e-02       2.595025798509e+04 
       2.090537453514e-02       2.520936170841e+04 
       2.631818545635e-02       2.287029878923e+04 
       3.311571692125e-02       1.928627821992e+04 
       4.113809243311e-02       1.568430803702e+04 
       4.792590854610e-02       1.361063552904e+04 
       5.284436902701e-02       1.259129212033e+04 
       5.689644391095e-02       1.195558069491e+04 
       6.051252627066e-02       1.147545792153e+04 
       6.388413457411e-02       1.105590021557e+04 
       6.711249296401e-02       1.064899260417e+04 
       7.025823437965e-02       1.022926994902e+04 
       7.336115587705e-02       9.784505174787e+03 
       7.644928796912e-02       9.311662014020e+03 
       7.954353299775e-02       8.814523506121e+03 
       8.266024078725e-02       8.302124305188e+03 
       8.581273398637e-02       7.786945832506e+03 
       8.901225918437e-02       7.283216029923e+03 
       9.226860540985e-02       6.805144772658e+03 
       9.559052048996e-02       6.365616754740e+03 
       9.898599946599e-02       5.974360534240e+03 
       1.024624891378e-01       5.637347344514e+03 
       1.060270359164e-01       5.355810197791e+03 
       1.096863943056e-01       5.126224235654e+03 
       1.134471073830e-01       4.940468531327e+03 
       1.173155669539e-01       4.786156775739e+03 
       1.212980586983e-01       4.647938391070e+03 
       1.254007961065e-01       4.509147308812e+03 
       1.296299459934e-01       4.354548242598e+03 
       1.339916477160e-01       4.173224890468e+03 
       1.384920277736e-01       3.961174695499e+03 
       1.431372111762e-01       3.722684433972e+03 
       1.479333307714e-01       3.469545600835e+03 
       1.528865355934e-01       3.218339170279e+03 
       1.580029992204e-01       2.986292131697e+03 
       1.632889290723e-01       2.786968597568e+03 
       1.687505775527e-01       2.626828506223e+03 
       1.743942559171e-01       2.503751769666e+03 
       1.802263517371e-01       2.407343717392e+03 
       1.862533508214e-01       2.322244704922e+03 
       1.924818644494e-01       2.231548628986e+03 
       1.989186627765e-01       2.122185960703e+03 
       2.055707152847e-01       1.992027629504e+03 
       2.124452391818e-01       1.850320089584e+03 
       2.195497567139e-01       1.712180533759e+03 
       2.268921624510e-01       1.590988403709e+03 
       2.344808017550e-01       1.493663306039e+03 
       2.423245618548e-01       1.418305511232e+03 
       2.504329772620e-01       1.354461476316e+03 
       2.588163516754e-01       1.288929595970e+03 
       2.674858990930e-01       1.213933421253e+03 
       2.764539076010e-01       1.130689231010e+03 
       2.857339303080e-01       1.048096187297e+03 
       2.953410092148e-01       9.761814386958e+02 
       3.052919395542e-01       9.178067804456e+02 
       3.156055844677e-01       8.678948456807e+02 
       3.263032530092e-01       8.185237370643e+02 
       3.374091587054e-01       7.651413899677e+02 
       3.489509817175e-01       7.106684848276e+02 
       3.609605657343e-01       6.607847285921e+02 
       3.734747921333e-01       6.180832466373e+02 
       3.865366902904e-01       5.793081125214e+02 
       4.001968667448e-01       5.403876837336e+02 
       4.145153713076e-01       5.011484097123e+02 
       4.295641718077e-01       4.644956673264e+02 
       4.454304922144e-01       4.314035863520e+02 
       4.622214006969e-01       4.001096948154e+02 
       4.800702491654e-01       3.690869999191e+02 
       4.991459272112e-01       3.394718023796e+02 
       5.196665217302e-01       3.119813303126e+02 
       5.419201087032e-01       2.852428039140e+02 
       5.662975451962e-01       2.593273271589e+02 
       5.933463737275e-01       2.345434692108e+02 
       6.238638458458e-01       2.102263422265e+02 
       6.590669257916e-01       1.864290926784e+02 
       7.009246080454e-01       1.627208105180e+02 
       7.528593308799e-01       1.388140798673e+02 
       8.213469537518e-01       1.141837417808e+02 
       9.196980813302e-01       8.835440424404e+01 
       1.075112183810e+00       6.172098369391e+01 
       1.322697471132e+00       3.803739756402e+01 
       1.662328205042e+00       2.209218006015e+01 
       2.092692408506e+00       1.266322813273e+01 
       2.634543445090e+00       7.197089036501e+00 
       3.316693691389e+00       4.058667037905e+00 
       4.175469971226e+00       2.271946588310e+00 
       5.256605252960e+00       1.262541515934e+00 
       6.617673932723e+00       6.962256520764e-01 
       8.331157880872e+00       3.805110126939e-01 
       1.048830636590e+01       2.055623994233e-01 
       1.320399541071e+01       1.091948160428e-01 
       1.662284535976e+01       5.648799332711e-02 
       2.092692243973e+01       2.796320739721e-02 
       2.634543445002e+01       1.282947544489e-02 
       3.316693691389e+01       5.134241415906e-03 
       4.175469971226e+01       1.574504622644e-03 
       5.256605252960e+01       2.533636148055e-04 
       6.617673932723e+01       5.420615572909e-09 
