# Matter power spectrum P(k) at redshift z=0
# for k=1.04775e-05 to 67.6233 h/Mpc,
# number of wavenumbers equal to 246
#    1:k (h/Mpc)              2:P (Mpc/h)^3        
       1.047750691046e-05       5.020964811307e+01 
       1.131335172503e-05       5.407050701926e+01 
       1.221587619537e-05       5.822819068524e+01 
       1.319039970183e-05       6.270562594777e+01 
       1.424266597921e-05       6.752732240880e+01 
       1.537887696968e-05       7.271977206173e+01 
       1.660572937635e-05       7.831147247912e+01 
       1.793045413292e-05       8.433311821988e+01 
       1.936085902198e-05       9.081778249833e+01 
       2.090537469327e-05       9.780108069295e+01 
       2.257310435294e-05       1.053213197893e+02 
       2.437387741694e-05       1.134197377890e+02 
       2.631830744443e-05       1.221408203809e+02 
       2.841785469300e-05       1.315324642470e+02 
       3.068489366414e-05       1.416462094881e+02 
       3.313278603720e-05       1.525374501932e+02 
       3.577595942169e-05       1.642660688414e+02 
       3.862999239199e-05       1.768963506307e+02 
       4.171170630578e-05       1.904975994010e+02 
       4.503926444729e-05       2.051444491974e+02 
       4.863227907969e-05       2.209171465549e+02 
       5.251192703764e-05       2.379022224249e+02 
       5.670107454120e-05       2.561927927505e+02 
       6.122441196689e-05       2.758890444040e+02 
       6.610859936996e-05       2.970989227881e+02 
       7.138242361596e-05       3.199385560802e+02 
       7.707696804727e-05       3.445329783680e+02 
       8.322579568497e-05       3.710167318945e+02 
       8.986514704559e-05       3.995346444203e+02 
       9.703415373875e-05       4.302425407383e+02 
       1.047750691046e-04       4.633080766742e+02 
       1.131335172503e-04       4.989116271564e+02 
       1.221587619537e-04       5.372471950929e+02 
       1.319039970183e-04       5.785234129341e+02 
       1.424266597921e-04       6.229645936045e+02 
       1.537887696968e-04       6.708118490405e+02 
       1.660572937635e-04       7.223242666092e+02 
       1.793045413292e-04       7.777801558782e+02 
       1.936085902198e-04       8.374783614141e+02 
       2.090537469327e-04       9.017396271824e+02 
       2.257310435294e-04       9.709080268041e+02 
       2.437387741694e-04       1.045352449493e+03 
       2.631830744443e-04       1.125468123750e+03 
       2.841785469300e-04       1.211678180495e+03 
       3.068489366414e-04       1.304435250150e+03 
       3.313278603720e-04       1.404223053681e+03 
       3.577595942169e-04       1.511558014616e+03 
       3.862999239199e-04       1.626990837766e+03 
       4.171170630578e-04       1.751108028790e+03 
       4.503926444729e-04       1.884533382872e+03 
       4.863227907969e-04       2.027929378112e+03 
       5.251192703764e-04       2.181998448133e+03 
       5.670107454121e-04       2.347484102755e+03 
       6.122441196689e-04       2.525171871366e+03 
       6.610859936996e-04       2.715889983591e+03 
       7.138242361596e-04       2.920509688382e+03 
       7.707696804727e-04       3.139945100279e+03 
       8.322579568497e-04       3.375152337577e+03 
       8.986514704559e-04       3.627127831141e+03 
       9.703415373875e-04       3.896905453136e+03 
       1.047750691046e-03       4.185552174304e+03 
       1.131335172503e-03       4.494162430373e+03 
       1.221587619537e-03       4.823850706488e+03 
       1.319039970183e-03       5.175742746434e+03 
       1.424266597921e-03       5.551019596913e+03 
       1.537887696968e-03       5.950788340553e+03 
       1.660572937635e-03       6.376123051757e+03 
       1.793045413292e-03       6.828073901446e+03 
       1.936085902198e-03       7.307625381065e+03 
       2.090537469327e-03       7.815671882527e+03 
       2.257310435294e-03       8.352990375826e+03 
       2.437387741694e-03       8.920211064341e+03 
       2.631830744443e-03       9.517783069109e+03 
       2.841785469300e-03       1.014593704435e+04 
       3.068489366414e-03       1.080464502801e+04 
       3.313278603720e-03       1.149357460342e+04 
       3.577595942169e-03       1.221203621721e+04 
       3.862999239199e-03       1.295892539445e+04 
       4.171170630578e-03       1.373266007477e+04 
       4.503926444729e-03       1.453111835623e+04 
       4.863227907969e-03       1.535154985242e+04 
       5.251192703764e-03       1.619063614211e+04 
       5.670107454120e-03       1.704431257715e+04 
       6.122441196689e-03       1.790755939852e+04 
       6.610859936996e-03       1.877460421105e+04 
       7.138242361596e-03       1.963872431021e+04 
       7.707696804727e-03       2.049215713622e+04 
       8.322579568496e-03       2.132607055951e+04 
       8.986514704559e-03       2.213055153867e+04 
       9.703415373875e-03       2.289445474814e+04 
       1.047750691046e-02       2.360548317444e+04 
       1.131335172503e-02       2.425023089894e+04 
       1.221587619537e-02       2.481423925990e+04 
       1.319039970183e-02       2.528218728064e+04 
       1.424266597920e-02       2.563813653074e+04 
       1.537887696964e-02       2.586607612708e+04 
       1.660572937560e-02       2.595026548317e+04 
       1.793045412207e-02       2.587633893695e+04 
       1.936085889642e-02       2.563216610906e+04 
       2.090537351881e-02       2.520934975325e+04 
       2.257309534705e-02       2.460446130454e+04 
       2.437382002240e-02       2.382092504307e+04 
       2.631799943729e-02       2.287039350763e+04 
       2.841644544598e-02       2.177449363163e+04 
       3.067933354524e-02       2.056550055504e+04 
       3.311368469821e-02       1.928729573979e+04 
       3.571840442514e-02       1.799399516880e+04 
       3.847720347390e-02       1.674685078182e+04 
       4.135335537314e-02       1.560459745565e+04 
       4.429361666563e-02       1.461038974060e+04 
       4.724366437916e-02       1.378054028906e+04 
       5.016480834039e-02       1.310504132828e+04 
       5.303989618930e-02       1.255712248668e+04 
       5.586870668205e-02       1.210423138848e+04 
       5.866042679206e-02       1.171471931007e+04 
       6.142798931504e-02       1.136045052192e+04 
       6.418496438662e-02       1.101857163470e+04 
       6.694418832236e-02       1.067069757594e+04 
       6.971731104453e-02       1.030363372770e+04 
       7.251476154108e-02       9.909032320918e+03 
       7.534587669814e-02       9.483821651602e+03 
       7.821907664495e-02       9.029525058452e+03 
       8.114203771084e-02       8.552299839024e+03 
       8.412184533139e-02       8.061991401451e+03 
       8.716512277352e-02       7.570778496769e+03 
       9.027813693913e-02       7.092506881708e+03 
       9.346688429613e-02       6.640565688098e+03 
       9.673716026122e-02       6.226736693580e+03 
       1.000946150608e-01       5.859944156956e+03 
       1.035447986307e-01       5.545293811443e+03 
       1.070931966524e-01       5.283200122583e+03 
       1.107452594180e-01       5.069445212765e+03 
       1.145064248899e-01       4.895259502675e+03 
       1.183821370656e-01       4.747876404667e+03 
       1.223778605591e-01       4.611746972058e+03 
       1.264990921707e-01       4.470644643028e+03 
       1.307513701078e-01       4.310279206785e+03 
       1.351402814485e-01       4.121391706623e+03 
       1.396714683894e-01       3.902076172116e+03 
       1.443506337875e-01       3.658666165070e+03 
       1.491835464900e-01       3.404489445568e+03 
       1.541760469368e-01       3.156663642749e+03 
       1.593340535209e-01       2.931954354365e+03 
       1.646635701934e-01       2.742369251614e+03 
       1.701706958081e-01       2.592249123968e+03 
       1.758616357070e-01       2.477228258140e+03 
       1.817427160581e-01       2.385192620492e+03 
       1.878204014651e-01       2.300340480095e+03 
       1.941013163855e-01       2.205765655355e+03 
       2.005922709060e-01       2.090799546022e+03 
       2.073002914514e-01       1.956454164019e+03 
       2.142326570343e-01       1.814190114050e+03 
       2.213969417044e-01       1.679270017403e+03 
       2.288010639201e-01       1.563841192302e+03 
       2.364533436625e-01       1.472678535166e+03 
       2.443625682390e-01       1.401516231951e+03 
       2.525380678946e-01       1.338402312225e+03 
       2.609898025770e-01       1.270910852993e+03 
       2.697284614969e-01       1.193376827618e+03 
       2.787655775073e-01       1.109329488154e+03 
       2.881136588192e-01       1.028762196120e+03 
       2.977863412019e-01       9.604778480858e+02 
       3.077985646248e-01       9.050213480686e+02 
       3.181667793367e-01       8.561361211567e+02 
       3.289091877084e-01       8.061873804060e+02 
       3.400460298905e-01       7.523820686835e+02 
       3.515999235695e-01       6.989195776746e+02 
       3.635962710278e-01       6.510595690747e+02 
       3.760637505499e-01       6.101179785281e+02 
       3.890349143014e-01       5.721335290486e+02 
       4.025469215929e-01       5.337753261356e+02 
       4.166424455447e-01       4.956301379809e+02 
       4.313708034899e-01       4.604663722832e+02 
       4.467893781976e-01       4.287769395181e+02 
       4.629654198623e-01       3.987665595222e+02 
       4.799783500912e-01       3.692360103198e+02 
       4.979227318246e-01       3.412376745234e+02 
       5.169121269689e-01       3.154792918755e+02 
       5.370841403262e-01       2.908321404623e+02 
       5.586070463286e-01       2.671023082509e+02 
       5.816885093582e-01       2.448068054988e+02 
       6.065870143577e-01       2.235661241865e+02 
       6.336266466978e-01       2.032092096920e+02 
       6.632156057925e-01       1.838774613355e+02 
       6.958678637575e-01       1.653531970668e+02 
       7.322247983784e-01       1.476944784508e+02 
       7.730680193171e-01       1.308334019310e+02 
       8.193049551574e-01       1.148315773603e+02 
       8.718988013754e-01       9.976223156850e+01 
       9.317218028590e-01       8.577730994893e+01 
       9.993660906273e-01       7.305434039343e+01 
       1.075037109879e+00       6.173595781272e+01 
       1.158653485387e+00       5.187893232663e+01 
       1.250099156961e+00       4.343985541943e+01 
       1.349432400897e+00       3.628875420284e+01 
       1.456947456991e+00       3.026783995498e+01 
       1.573135110893e+00       2.521449473577e+01 
       1.698621895119e+00       2.098187776428e+01 
       1.834127512423e+00       1.744215057973e+01 
       1.980444933977e+00       1.448554915221e+01 
       2.138435191130e+00       1.201884683571e+01 
       2.309029198543e+00       9.963074457641e+00 
       2.493232376993e+00       8.251755546999e+00 
       2.692130394536e+00       6.828479060026e+00 
       2.906895533764e+00       5.646145846057e+00 
       3.138793596840e+00       4.664804305162e+00 
       3.389191365541e+00       3.851026315355e+00 
       3.659564656886e+00       3.176859871197e+00 
       3.951507021438e+00       2.618792009525e+00 
       4.266739135513e+00       2.157261844427e+00 
       4.607118942658e+00       1.775849075759e+00 
       4.974652604172e+00       1.460895731892e+00 
       5.371506323193e+00       1.201035801700e+00 
       5.800019112071e+00       9.867783989447e-01 
       6.262716578240e+00       8.102463041281e-01 
       6.762325809881e+00       6.649026341117e-01 
       7.301791449077e+00       5.453170414361e-01 
       7.884293047211e+00       4.469904505225e-01 
       8.513263804891e+00       3.661797976176e-01 
       9.192410806865e+00       2.998191497820e-01 
       9.925736871166e+00       2.453555752376e-01 
       1.071756414128e+01       2.006750832697e-01 
       1.157255956041e+01       1.640471830152e-01 
       1.249576237789e+01       1.340333832938e-01 
       1.349261385000e+01       1.094535284483e-01 
       1.456898931011e+01       8.933387071737e-02 
       1.573123279727e+01       7.287101579758e-02 
       1.698619444729e+01       5.940911632122e-02 
       1.834127086665e+01       4.840437111768e-02 
       1.980444872733e+01       3.941344967773e-02 
       2.138435183937e+01       3.206955940650e-02 
       2.309029197863e+01       2.607386985803e-02 
       2.493232376942e+01       2.118070979908e-02 
       2.692130394533e+01       1.718895334697e-02 
       2.906895533764e+01       1.393327117637e-02 
       3.138793596840e+01       1.127888509053e-02 
       3.389191365541e+01       9.115401299403e-03 
       3.659564656886e+01       7.352464514723e-03 
       3.951507021438e+01       5.916595853485e-03 
       4.266739135513e+01       4.747266425878e-03 
       4.607118942658e+01       3.795515624761e-03 
       4.974652604172e+01       3.021318964775e-03 
       5.371506323193e+01       2.391948717377e-03 
       5.800019112071e+01       1.880931866744e-03 
       6.262716578240e+01       1.466683900317e-03 
       6.762325809881e+01       1.131682096049e-03 
