# Matter power spectrum P(k) at redshift z=0
# for k=1.04775e-05 to 66.1767 h/Mpc,
# number of wavenumbers equal to 130
#    1:k (h/Mpc)              2:P (Mpc/h)^3        
       1.047750691046e-05       5.020964811324e+01 
       1.319039970183e-05       6.270562595379e+01 
       1.660572937635e-05       7.831147247917e+01 
       2.090537469327e-05       9.780108069430e+01 
       2.631830744443e-05       1.221408203829e+02 
       3.313278603720e-05       1.525374501932e+02 
       4.171170630578e-05       1.904975993978e+02 
       5.251192703764e-05       2.379022224239e+02 
       6.610859936996e-05       2.970989227904e+02 
       8.322579568497e-05       3.710167318946e+02 
       1.047750691046e-04       4.633080766738e+02 
       1.319039970183e-04       5.785234139898e+02 
       1.660572937635e-04       7.223242666090e+02 
       2.090537469327e-04       9.017396271822e+02 
       2.631830744443e-04       1.125468123752e+03 
       3.313278603720e-04       1.404223053680e+03 
       4.171170630578e-04       1.751108028787e+03 
       5.251192703764e-04       2.181998448128e+03 
       6.610859936996e-04       2.715889983584e+03 
       8.322579568497e-04       3.375152337111e+03 
       1.047750691046e-03       4.185552174247e+03 
       1.319039970183e-03       5.175742740190e+03 
       1.660572937635e-03       6.376123051234e+03 
       2.090537469327e-03       7.815671860575e+03 
       2.631830744443e-03       9.517783063351e+03 
       3.313278603720e-03       1.149357458340e+04 
       4.171170630578e-03       1.373266028916e+04 
       5.251192703764e-03       1.619063541370e+04 
       6.610859936996e-03       1.877460358238e+04 
       8.322579568497e-03       2.132611204338e+04 
       1.047750691046e-02       2.360548236426e+04 
       1.319039970183e-02       2.528217450158e+04 
       1.660572937633e-02       2.595021537896e+04 
       2.090537453514e-02       2.520923935654e+04 
       2.631818545635e-02       2.287003892184e+04 
       3.311571692125e-02       1.928555410835e+04 
       4.113809243311e-02       1.568308686565e+04 
       4.792590854610e-02       1.360888742712e+04 
       5.284436902701e-02       1.258911174464e+04 
       5.689644391095e-02       1.195294418041e+04 
       6.051252627066e-02       1.147239028776e+04 
       6.388413457411e-02       1.105242433211e+04 
       6.711249296401e-02       1.064510134108e+04 
       7.025823437965e-02       1.022495388680e+04 
       7.336115587705e-02       9.779764760488e+03 
       7.644928796912e-02       9.306432101134e+03 
       7.954353299775e-02       8.808858709396e+03 
       8.266024078725e-02       8.295979814842e+03 
       8.581273398637e-02       7.780322620066e+03 
       8.901225918437e-02       7.276007442617e+03 
       9.226860540985e-02       6.797525026334e+03 
       9.559052048996e-02       6.357452295719e+03 
       9.898599946599e-02       5.965745693865e+03 
       1.024624891378e-01       5.628134896033e+03 
       1.060270359164e-01       5.345971928910e+03 
       1.096863943056e-01       5.115786789922e+03 
       1.134471073830e-01       4.929349876413e+03 
       1.173155669539e-01       4.774298268514e+03 
       1.212980586983e-01       4.635251467236e+03 
       1.254007961065e-01       4.495620856122e+03 
       1.296299459934e-01       4.340154793668e+03 
       1.339916477160e-01       4.157927211794e+03 
       1.384920277736e-01       3.944986570494e+03 
       1.431372111762e-01       3.705627200289e+03 
       1.479333307714e-01       3.451604244860e+03 
       1.528865355934e-01       3.199547905524e+03 
       1.580029992204e-01       2.966623902295e+03 
       1.632889290723e-01       2.766338305857e+03 
       1.687505775527e-01       2.605165848082e+03 
       1.743942559171e-01       2.480902396577e+03 
       1.802263517371e-01       2.383180296902e+03 
       1.862533508214e-01       2.296693112274e+03 
       1.924818644494e-01       2.204566215636e+03 
       1.989186627765e-01       2.093831025205e+03 
       2.055707152847e-01       1.962368122182e+03 
       2.124452391818e-01       1.819446341714e+03 
       2.195497567139e-01       1.680108054520e+03 
       2.268921624510e-01       1.557627111478e+03 
       2.344808017550e-01       1.458853427344e+03 
       2.423245618548e-01       1.381838926360e+03 
       2.504329772620e-01       1.316209892351e+03 
       2.588163516754e-01       1.248893673626e+03 
       2.674858990930e-01       1.172230589320e+03 
       2.764539076010e-01       1.087463952978e+03 
       2.857339303080e-01       1.003414896863e+03 
       2.953410092148e-01       9.299079577552e+02 
       3.052919395542e-01       8.697319207231e+02 
       3.156055844677e-01       8.178629648559e+02 
       3.263032530092e-01       7.665617847438e+02 
       3.374091587054e-01       7.114158543733e+02 
       3.489509817175e-01       6.552895223249e+02 
       3.609605657343e-01       6.036989678305e+02 
       3.734747921333e-01       5.591129710013e+02 
       3.865366902904e-01       5.183728539036e+02 
       4.001968667448e-01       4.775920186327e+02 
       4.145153713076e-01       4.366328110624e+02 
       4.295641718077e-01       3.982453210015e+02 
       4.454304922144e-01       3.633292214003e+02 
       4.622214006969e-01       3.302276364420e+02 
       4.800702491654e-01       2.975458720947e+02 
       4.991459272112e-01       2.663366727801e+02 
       5.196665217302e-01       2.372408676957e+02 
       5.419201087032e-01       2.090453227761e+02 
       5.662975451962e-01       1.818315912993e+02 
       5.933463737275e-01       1.558898412112e+02 
       6.238638458458e-01       1.307006371358e+02 
       6.590669257916e-01       1.063835284707e+02 
       7.009246080454e-01       8.273217747067e+01 
       7.528593308799e-01       5.979623192030e+01 
       8.213469537518e-01       3.778765103475e+01 
       9.196980813302e-01       1.781322882260e+01 
       1.075112183810e+00       3.441460350555e+00 
       1.322697471132e+00       3.406319619858e-01 
       1.662328205042e+00       4.015407101585e+00 
       2.092692408506e+00       3.517942471543e+00 
       2.634543445090e+00       4.163792595844e-01 
       3.316693691389e+00       1.834015108373e-01 
       4.175469971226e+00       1.464541596816e-01 
       5.256605252960e+00       1.307031350376e-02 
       6.617673932723e+00       2.516016641630e-03 
       8.331157880872e+00       1.291753869305e-03 
       1.048830636590e+01       1.562602193460e-04 
       1.320399541071e+01       7.853033837456e-06 
       1.662284535976e+01       1.010066625600e-10 
       2.092692243973e+01       1.732401645412e-08 
       2.634543445002e+01       1.217112157301e-09 
       3.316693691389e+01       2.405908517057e-10 
       4.175469971226e+01       8.441525097058e-11 
       5.256605252960e+01       2.811084907885e-11 
       6.617673932723e+01       8.864636210040e-12 
