# Matter power spectrum P(k) at redshift z=99
# for k=1.04775e-05 to 66.1767 h/Mpc,
# number of wavenumbers equal to 130
#    1:k (h/Mpc)              2:P (Mpc/h)^3        
       1.047750691046e-05       7.261927681137e-03 
       1.319039970183e-05       9.069258202192e-03 
       1.660572937635e-05       1.132639106768e-02 
       2.090537469327e-05       1.414527123453e-02 
       2.631830744443e-05       1.766569584125e-02 
       3.313278603720e-05       2.206225516026e-02 
       4.171170630578e-05       2.755297766381e-02 
       5.251192703764e-05       3.441013523078e-02 
       6.610859936996e-05       4.297372172940e-02 
       8.322579568497e-05       5.366826853147e-02 
       1.047750691046e-04       6.702379873027e-02 
       1.319039970183e-04       8.370193441600e-02 
       1.660572937635e-04       1.045283355423e-01 
       2.090537469327e-04       1.305329134152e-01 
       2.631830744443e-04       1.629994506665e-01 
       3.313278603720e-04       2.035264004675e-01 
       4.171170630578e-04       2.541004744332e-01 
       5.251192703764e-04       3.171839528664e-01 
       6.610859936996e-04       3.958147256636e-01 
       8.322579568497e-04       4.937136006406e-01 
       1.047750691046e-03       6.153841636167e-01 
       1.319039970183e-03       7.661720592473e-01 
       1.660572937635e-03       9.522588016329e-01 
       2.090537469327e-03       1.180312991646e+00 
       2.631830744443e-03       1.456802684536e+00 
       3.313278603720e-03       1.786503853689e+00 
       4.171170630578e-03       2.169896193600e+00 
       5.251192703764e-03       2.599430629135e+00 
       6.610859936996e-03       3.055668691046e+00 
       8.322579568497e-03       3.505725592477e+00 
       1.047750691046e-02       3.905490803463e+00 
       1.319039970183e-02       4.200915359118e+00 
       1.660572937633e-02       4.325063607065e+00 
       2.090537453514e-02       4.210201848588e+00 
       2.631818545635e-02       3.825150926907e+00 
       3.311571692125e-02       3.229058907893e+00 
       4.113809243311e-02       2.627728746966e+00 
       4.792590854610e-02       2.280787434789e+00 
       5.284436902701e-02       2.110083378357e+00 
       5.689644391095e-02       2.003535910200e+00 
       6.051252627066e-02       1.923055016936e+00 
       6.388413457411e-02       1.852730510585e+00 
       6.711249296401e-02       1.784562415378e+00 
       7.025823437965e-02       1.714275954501e+00 
       7.336115587705e-02       1.639814541840e+00 
       7.644928796912e-02       1.560658125049e+00 
       7.954353299775e-02       1.477455357913e+00 
       8.266024078725e-02       1.391696122017e+00 
       8.581273398637e-02       1.305458431559e+00 
       8.901225918437e-02       1.221121631076e+00 
       9.226860540985e-02       1.141079231139e+00 
       9.559052048996e-02       1.067451261388e+00 
       9.898599946599e-02       1.001888705815e+00 
       1.024624891378e-01       9.453795292280e-01 
       1.060270359164e-01       8.981476130793e-01 
       1.096863943056e-01       8.596132000307e-01 
       1.134471073830e-01       8.284053132975e-01 
       1.173155669539e-01       8.024656078943e-01 
       1.212980586983e-01       7.792283098053e-01 
       1.254007961065e-01       7.559165333937e-01 
       1.296299459934e-01       7.299817972676e-01 
       1.339916477160e-01       6.995936437153e-01 
       1.384920277736e-01       6.640794229808e-01 
       1.431372111762e-01       6.241468278422e-01 
       1.479333307714e-01       5.817635370681e-01 
       1.528865355934e-01       5.396890831553e-01 
       1.580029992204e-01       5.008131818281e-01 
       1.632889290723e-01       4.673968882480e-01 
       1.687505775527e-01       4.405327968302e-01 
       1.743942559171e-01       4.198646903957e-01 
       1.802263517371e-01       4.036575333113e-01 
       1.862533508214e-01       3.893605908943e-01 
       1.924818644494e-01       3.741380565152e-01 
       1.989186627765e-01       3.558053387217e-01 
       2.055707152847e-01       3.340018152593e-01 
       2.124452391818e-01       3.102639394267e-01 
       2.195497567139e-01       2.871211183632e-01 
       2.268921624510e-01       2.668067311024e-01 
       2.344808017550e-01       2.504812982335e-01 
       2.423245618548e-01       2.378314483862e-01 
       2.504329772620e-01       2.271098135934e-01 
       2.588163516754e-01       2.161181581527e-01 
       2.674858990930e-01       2.035454501736e-01 
       2.764539076010e-01       1.895954323327e-01 
       2.857339303080e-01       1.757548994685e-01 
       2.953410092148e-01       1.636967739063e-01 
       3.052919395542e-01       1.539043614044e-01 
       3.156055844677e-01       1.455284461326e-01 
       3.263032530092e-01       1.372484689394e-01 
       3.374091587054e-01       1.282996411363e-01 
       3.489509817175e-01       1.191691246358e-01 
       3.609605657343e-01       1.108048732634e-01 
       3.734747921333e-01       1.036427219228e-01 
       3.865366902904e-01       9.713902182932e-02 
       4.001968667448e-01       9.061308994842e-02 
       4.145153713076e-01       8.403460184557e-02 
       4.295641718077e-01       7.788884102485e-02 
       4.454304922144e-01       7.233919857678e-02 
       4.622214006969e-01       6.709106127224e-02 
       4.800702491654e-01       6.188913279682e-02 
       4.991459272112e-01       5.692362821699e-02 
       5.196665217302e-01       5.231365818569e-02 
       5.419201087032e-01       4.782982299441e-02 
       5.662975451962e-01       4.348407943498e-02 
       5.933463737275e-01       3.932821836443e-02 
       6.238638458458e-01       3.525055039216e-02 
       6.590669257916e-01       3.125999171421e-02 
       7.009246080454e-01       2.728443455909e-02 
       7.528593308799e-01       2.327550991186e-02 
       8.213469537518e-01       1.914520765711e-02 
       9.196980813302e-01       1.481396248828e-02 
       1.075112183810e+00       1.034779130466e-02 
       1.322697471132e+00       6.376286241807e-03 
       1.662328205042e+00       3.702464838945e-03 
       2.092692408506e+00       2.121337077071e-03 
       2.634543445090e+00       1.204794558913e-03 
       3.316693691389e+00       6.786165244189e-04 
       4.175469971226e+00       3.791105169029e-04 
       5.256605252960e+00       2.099689509228e-04 
       6.617673932723e+00       1.151371159748e-04 
       8.331157880872e+00       6.233457236670e-05 
       1.048830636590e+01       3.313985869117e-05 
       1.320399541071e+01       1.712691772364e-05 
       1.662284535976e+01       8.445096950821e-06 
       2.092692243973e+01       3.836971532893e-06 
       2.634543445002e+01       1.502494931529e-06 
       3.316693691389e+01       4.418336082656e-07 
       4.175469971226e+01       6.910893608144e-08 
       5.256605252960e+01       9.002682937383e-10 
       6.617673932723e+01       1.154113739950e-09 
