# Matter power spectrum P(k) at redshift z=99
# for k=1.04775e-05 to 66.1767 h/Mpc,
# number of wavenumbers equal to 130
#    1:k (h/Mpc)              2:P (Mpc/h)^3        
       1.047750691046e-05       7.261927682681e-03 
       1.319039970183e-05       9.069258204126e-03 
       1.660572937635e-05       1.132639107008e-02 
       2.090537469327e-05       1.414527123754e-02 
       2.631830744443e-05       1.766569584516e-02 
       3.313278603720e-05       2.206225516492e-02 
       4.171170630578e-05       2.755297766966e-02 
       5.251192703764e-05       3.441013523809e-02 
       6.610859936996e-05       4.297372173852e-02 
       8.322579568497e-05       5.366826854286e-02 
       1.047750691046e-04       6.702379874452e-02 
       1.319039970183e-04       8.370193443414e-02 
       1.660572937635e-04       1.045283355644e-01 
       2.090537469327e-04       1.305329134427e-01 
       2.631830744443e-04       1.629994507005e-01 
       3.313278603720e-04       2.035264005096e-01 
       4.171170630578e-04       2.541004744849e-01 
       5.251192703764e-04       3.171839529287e-01 
       6.610859936996e-04       3.958147257383e-01 
       8.322579568497e-04       4.937136007272e-01 
       1.047750691046e-03       6.153841637092e-01 
       1.319039970183e-03       7.661720593317e-01 
       1.660572937635e-03       9.522588016744e-01 
       2.090537469327e-03       1.180312991412e+00 
       2.631830744443e-03       1.456802683253e+00 
       3.313278603720e-03       1.786503848911e+00 
       4.171170630578e-03       2.169896212011e+00 
       5.251192703764e-03       2.599430576822e+00 
       6.610859936996e-03       3.055668515635e+00 
       8.322579568497e-03       3.505724729945e+00 
       1.047750691046e-02       3.905489197643e+00 
       1.319039970183e-02       4.200912643579e+00 
       1.660572937633e-02       4.325048685659e+00 
       2.090537453514e-02       4.210168989274e+00 
       2.631818545635e-02       3.825079421129e+00 
       3.311571692125e-02       3.228911841292e+00 
       4.113809243311e-02       2.627451489465e+00 
       4.792590854610e-02       2.280399602663e+00 
       5.284436902701e-02       2.109585764703e+00 
       5.689644391095e-02       2.002945074678e+00 
       6.051252627066e-02       1.922373387334e+00 
       6.388413457411e-02       1.851954418106e+00 
       6.711249296401e-02       1.783692874461e+00 
       7.025823437965e-02       1.713307619225e+00 
       7.336115587705e-02       1.638743839317e+00 
       7.644928796912e-02       1.559489305515e+00 
       7.954353299775e-02       1.476180254399e+00 
       8.266024078725e-02       1.390315288069e+00 
       8.581273398637e-02       1.303976523518e+00 
       8.901225918437e-02       1.219526014292e+00 
       9.226860540985e-02       1.139370579974e+00 
       9.559052048996e-02       1.065627516835e+00 
       9.898599946599e-02       9.999472331328e-01 
       1.024624891378e-01       9.433147260950e-01 
       1.060270359164e-01       8.959506956581e-01 
       1.096863943056e-01       8.572728015675e-01 
       1.134471073830e-01       8.259080333132e-01 
       1.173155669539e-01       7.998056615834e-01 
       1.212980586983e-01       7.763885472272e-01 
       1.254007961065e-01       7.528900405560e-01 
       1.296299459934e-01       7.267605792700e-01 
       1.339916477160e-01       6.961726036189e-01 
       1.384920277736e-01       6.604634202562e-01 
       1.431372111762e-01       6.203343560091e-01 
       1.479333307714e-01       5.777614296216e-01 
       1.528865355934e-01       5.355002564764e-01 
       1.580029992204e-01       4.964254146922e-01 
       1.632889290723e-01       4.628003620507e-01 
       1.687505775527e-01       4.357023165681e-01 
       1.743942559171e-01       4.147800747314e-01 
       1.802263517371e-01       3.982820785887e-01 
       1.862533508214e-01       3.836743024861e-01 
       1.924818644494e-01       3.681373250593e-01 
       1.989186627765e-01       3.495037456023e-01 
       2.055707152847e-01       3.274184809580e-01 
       2.124452391818e-01       3.034225224132e-01 
       2.195497567139e-01       2.800190426557e-01 
       2.268921624510e-01       2.594263911351e-01 
       2.344808017550e-01       2.427863598331e-01 
       2.423245618548e-01       2.297790475608e-01 
       2.504329772620e-01       2.186716482748e-01 
       2.588163516754e-01       2.072931928487e-01 
       2.674858990930e-01       1.943669974997e-01 
       2.764539076010e-01       1.800975631227e-01 
       2.857339303080e-01       1.659487903613e-01 
       2.953410092148e-01       1.535568493082e-01 
       3.052919395542e-01       1.433847407443e-01 
       3.156055844677e-01       1.345979314923e-01 
       3.263032530092e-01       1.259139553094e-01 
       3.374091587054e-01       1.166021299496e-01 
       3.489509817175e-01       1.071361395532e-01 
       3.609605657343e-01       9.842671845825e-02 
       3.734747921333e-01       9.088229871632e-02 
       3.865366902904e-01       8.398395789824e-02 
       4.001968667448e-01       7.709073339868e-02 
       4.145153713076e-01       7.017956085410e-02 
       4.295641718077e-01       6.370255824812e-02 
       4.454304922144e-01       5.780783819655e-02 
       4.622214006969e-01       5.222538765944e-02 
       4.800702491654e-01       4.672851008314e-02 
       4.991459272112e-01       4.148913708351e-02 
       5.196665217302e-01       3.661279035584e-02 
       5.419201087032e-01       3.190594970749e-02 
       5.662975451962e-01       2.738428054905e-02 
       5.933463737275e-01       2.309780083440e-02 
       6.238638458458e-01       1.897090222373e-02 
       6.590669257916e-01       1.503063232126e-02 
       7.009246080454e-01       1.126026868063e-02 
       7.528593308799e-01       7.693290772724e-03 
       8.213469537518e-01       4.410038545926e-03 
       9.196980813302e-01       1.666993608835e-03 
       1.075112183810e+00       1.070434315196e-04 
       1.322697471132e+00       3.427386930484e-04 
       1.662328205042e+00       9.246954751336e-04 
       2.092692408506e+00       4.441911394855e-04 
       2.634543445090e+00       3.707613102609e-06 
       3.316693691389e+00       6.077941263014e-05 
       4.175469971226e+00       5.322983579696e-06 
       5.256605252960e+00       4.907470575006e-06 
       6.617673932723e+00       1.232175731612e-07 
       8.331157880872e+00       2.400375535968e-09 
       1.048830636590e+01       1.781817628025e-10 
       1.320399541071e+01       2.145527509344e-10 
       1.662284535976e+01       1.488511878349e-11 
       2.092692243973e+01       1.302420486666e-14 
       2.634543445002e+01       5.700130938020e-14 
       3.316693691389e+01       3.181576416754e-14 
       4.175469971226e+01       1.131989559077e-14 
       5.256605252960e+01       3.823012872688e-15 
       6.617673932723e+01       1.147935624437e-15 
