# Matter power spectrum P(k) at redshift z=0
# for k=1.04775e-05 to 66.1767 h/Mpc,
# number of wavenumbers equal to 130
#    1:k (h/Mpc)              2:P (Mpc/h)^3        
       1.047750691046e-05       5.020964811307e+01 
       1.319039970183e-05       6.270562594779e+01 
       1.660572937635e-05       7.831147247912e+01 
       2.090537469327e-05       9.780108069295e+01 
       2.631830744443e-05       1.221408203809e+02 
       3.313278603720e-05       1.525374501932e+02 
       4.171170630578e-05       1.904975994010e+02 
       5.251192703764e-05       2.379022224249e+02 
       6.610859936996e-05       2.970989227882e+02 
       8.322579568497e-05       3.710167318946e+02 
       1.047750691046e-04       4.633080766742e+02 
       1.319039970183e-04       5.785234129336e+02 
       1.660572937635e-04       7.223242666092e+02 
       2.090537469327e-04       9.017396271824e+02 
       2.631830744443e-04       1.125468123750e+03 
       3.313278603720e-04       1.404223053681e+03 
       4.171170630578e-04       1.751108028790e+03 
       5.251192703764e-04       2.181998448133e+03 
       6.610859936996e-04       2.715889983592e+03 
       8.322579568497e-04       3.375152337135e+03 
       1.047750691046e-03       4.185552174305e+03 
       1.319039970183e-03       5.175742744057e+03 
       1.660572937635e-03       6.376123051775e+03 
       2.090537469327e-03       7.815671866112e+03 
       2.631830744443e-03       9.517783069112e+03 
       3.313278603720e-03       1.149357460344e+04 
       4.171170630578e-03       1.373266009683e+04 
       5.251192703764e-03       1.619063614551e+04 
       6.610859936996e-03       1.877460420778e+04 
       8.322579568497e-03       2.132606845066e+04 
       1.047750691046e-02       2.360548780546e+04 
       1.319039970183e-02       2.528218635249e+04 
       1.660572937633e-02       2.595027438214e+04 
       2.090537453514e-02       2.520937207237e+04 
       2.631818545635e-02       2.287033651107e+04 
       3.311571692125e-02       1.928626017289e+04 
       4.113809243311e-02       1.568424121025e+04 
       4.792590854610e-02       1.361066140504e+04 
       5.284436902701e-02       1.259132035268e+04 
       5.689644391095e-02       1.195555868834e+04 
       6.051252627066e-02       1.147546576816e+04 
       6.388413457411e-02       1.105588265391e+04 
       6.711249296401e-02       1.064899355573e+04 
       7.025823437965e-02       1.022929065196e+04 
       7.336115587705e-02       9.784531411564e+03 
       7.644928796912e-02       9.311663937013e+03 
       7.954353299775e-02       8.814534376961e+03 
       8.266024078725e-02       8.302132222000e+03 
       8.581273398637e-02       7.786953235982e+03 
       8.901225918437e-02       7.283186152275e+03 
       9.226860540985e-02       6.805201819285e+03 
       9.559052048996e-02       6.365640975179e+03 
       9.898599946599e-02       5.974397708872e+03 
       1.024624891378e-01       5.637353059470e+03 
       1.060270359164e-01       5.355783312980e+03 
       1.096863943056e-01       5.126229958064e+03 
       1.134471073830e-01       4.940481585826e+03 
       1.173155669539e-01       4.786163540499e+03 
       1.212980586983e-01       4.647933850918e+03 
       1.254007961065e-01       4.509147217612e+03 
       1.296299459934e-01       4.354546474555e+03 
       1.339916477160e-01       4.173223967778e+03 
       1.384920277736e-01       3.961168223593e+03 
       1.431372111762e-01       3.722679550193e+03 
       1.479333307714e-01       3.469551946587e+03 
       1.528865355934e-01       3.218343515544e+03 
       1.580029992204e-01       2.986295477141e+03 
       1.632889290723e-01       2.786964139958e+03 
       1.687505775527e-01       2.626829159098e+03 
       1.743942559171e-01       2.503749340568e+03 
       1.802263517371e-01       2.407344174408e+03 
       1.862533508214e-01       2.322252937463e+03 
       1.924818644494e-01       2.231554857665e+03 
       1.989186627765e-01       2.122188454235e+03 
       2.055707152847e-01       1.992031021993e+03 
       2.124452391818e-01       1.850320096074e+03 
       2.195497567139e-01       1.712183454800e+03 
       2.268921624510e-01       1.590991172328e+03 
       2.344808017550e-01       1.493667170587e+03 
       2.423245618548e-01       1.418307891371e+03 
       2.504329772620e-01       1.354463399218e+03 
       2.588163516754e-01       1.288933637384e+03 
       2.674858990930e-01       1.213935891643e+03 
       2.764539076010e-01       1.130692371737e+03 
       2.857339303080e-01       1.048096484846e+03 
       2.953410092148e-01       9.761814228060e+02 
       3.052919395542e-01       9.178098715301e+02 
       3.156055844677e-01       8.678964359537e+02 
       3.263032530092e-01       8.185255106001e+02 
       3.374091587054e-01       7.651446596554e+02 
       3.489509817175e-01       7.106705107576e+02 
       3.609605657343e-01       6.607850350147e+02 
       3.734747921333e-01       6.180860962682e+02 
       3.865366902904e-01       5.793092130172e+02 
       4.001968667448e-01       5.403922764600e+02 
       4.145153713076e-01       5.011525330612e+02 
       4.295641718077e-01       4.644984403207e+02 
       4.454304922144e-01       4.314084073252e+02 
       4.622214006969e-01       4.001137553017e+02 
       4.800702491654e-01       3.690888311488e+02 
       4.991459272112e-01       3.394744430945e+02 
       5.196665217302e-01       3.119848071146e+02 
       5.419201087032e-01       2.852466317780e+02 
       5.662975451962e-01       2.593308392618e+02 
       5.933463737275e-01       2.345478108892e+02 
       6.238638458458e-01       2.102302704131e+02 
       6.590669257916e-01       1.864324302036e+02 
       7.009246080454e-01       1.627246945488e+02 
       7.528593308799e-01       1.388185086894e+02 
       8.213469537518e-01       1.141878799947e+02 
       9.196980813302e-01       8.835907539839e+01 
       1.075112183810e+00       6.172568648417e+01 
       1.322697471132e+00       3.804276616530e+01 
       1.662328205042e+00       2.209785733629e+01 
       2.092692408506e+00       1.266920869649e+01 
       2.634543445090e+00       7.203321588158e+00 
       3.316693691389e+00       4.065102507644e+00 
       4.175469971226e+00       2.278613449129e+00 
       5.256605252960e+00       1.269336305442e+00 
       6.617673932723e+00       7.031322725177e-01 
       8.331157880872e+00       3.874746468024e-01 
       1.048830636590e+01       2.125086251533e-01 
       1.320399541071e+01       1.160360503225e-01 
       1.662284535976e+01       6.309819834957e-02 
       2.092692243973e+01       3.417901009582e-02 
       2.634543445002e+01       1.844550947634e-02 
       3.316693691389e+01       9.918719549117e-03 
       4.175469971226e+01       5.314206710530e-03 
       5.256605252960e+01       2.836265853186e-03 
       6.617673932723e+01       1.507304006702e-03 
