# Matter power spectrum P(k) at redshift z=0
# for k=1.04775e-05 to 66.1767 h/Mpc,
# number of wavenumbers equal to 130
#    1:k (h/Mpc)              2:P (Mpc/h)^3        
       1.047750691046e-05       5.020964811307e+01 
       1.319039970183e-05       6.270562594784e+01 
       1.660572937635e-05       7.831147247912e+01 
       2.090537469327e-05       9.780108069295e+01 
       2.631830744443e-05       1.221408203809e+02 
       3.313278603720e-05       1.525374501932e+02 
       4.171170630578e-05       1.904975994010e+02 
       5.251192703764e-05       2.379022224249e+02 
       6.610859936996e-05       2.970989227882e+02 
       8.322579568497e-05       3.710167318946e+02 
       1.047750691046e-04       4.633080766742e+02 
       1.319039970183e-04       5.785234129341e+02 
       1.660572937635e-04       7.223242666091e+02 
       2.090537469327e-04       9.017396271824e+02 
       2.631830744443e-04       1.125468123750e+03 
       3.313278603720e-04       1.404223053681e+03 
       4.171170630578e-04       1.751108028790e+03 
       5.251192703764e-04       2.181998448133e+03 
       6.610859936996e-04       2.715889983591e+03 
       8.322579568497e-04       3.375152337135e+03 
       1.047750691046e-03       4.185552174300e+03 
       1.319039970183e-03       5.175742739267e+03 
       1.660572937635e-03       6.376123051788e+03 
       2.090537469327e-03       7.815671866122e+03 
       2.631830744443e-03       9.517783069092e+03 
       3.313278603720e-03       1.149357460342e+04 
       4.171170630578e-03       1.373266011894e+04 
       5.251192703764e-03       1.619063612333e+04 
       6.610859936996e-03       1.877460414666e+04 
       8.322579568497e-03       2.132607249448e+04 
       1.047750691046e-02       2.360548585796e+04 
       1.319039970183e-02       2.528218787935e+04 
       1.660572937633e-02       2.595026397389e+04 
       2.090537453514e-02       2.520941752321e+04 
       2.631818545635e-02       2.287033376007e+04 
       3.311571692125e-02       1.928625935529e+04 
       4.113809243311e-02       1.568423761015e+04 
       4.792590854610e-02       1.361063427340e+04 
       5.284436902701e-02       1.259128348330e+04 
       5.689644391095e-02       1.195555251242e+04 
       6.051252627066e-02       1.147550571072e+04 
       6.388413457411e-02       1.105594897618e+04 
       6.711249296401e-02       1.064904237655e+04 
       7.025823437965e-02       1.022930664520e+04 
       7.336115587705e-02       9.784525102633e+03 
       7.644928796912e-02       9.311691624874e+03 
       7.954353299775e-02       8.814560642323e+03 
       8.266024078725e-02       8.302190584230e+03 
       8.581273398637e-02       7.786996773305e+03 
       8.901225918437e-02       7.283253103114e+03 
       9.226860540985e-02       6.805208491950e+03 
       9.559052048996e-02       6.365678410475e+03 
       9.898599946599e-02       5.974409970790e+03 
       1.024624891378e-01       5.637343409340e+03 
       1.060270359164e-01       5.355814058363e+03 
       1.096863943056e-01       5.126251926598e+03 
       1.134471073830e-01       4.940507296053e+03 
       1.173155669539e-01       4.786173837051e+03 
       1.212980586983e-01       4.647937873073e+03 
       1.254007961065e-01       4.509089922527e+03 
       1.296299459934e-01       4.354501757146e+03 
       1.339916477160e-01       4.173218456018e+03 
       1.384920277736e-01       3.961180901454e+03 
       1.431372111762e-01       3.722605934399e+03 
       1.479333307714e-01       3.469561826438e+03 
       1.528865355934e-01       3.218318842928e+03 
       1.580029992204e-01       2.986266256664e+03 
       1.632889290723e-01       2.786946289286e+03 
       1.687505775527e-01       2.626806117337e+03 
       1.743942559171e-01       2.503752569920e+03 
       1.802263517371e-01       2.407304517778e+03 
       1.862533508214e-01       2.322261530608e+03 
       1.924818644494e-01       2.231510626854e+03 
       1.989186627765e-01       2.122193265285e+03 
       2.055707152847e-01       1.992037913435e+03 
       2.124452391818e-01       1.850301623337e+03 
       2.195497567139e-01       1.712158809726e+03 
       2.268921624510e-01       1.590971352973e+03 
       2.344808017550e-01       1.493658495303e+03 
       2.423245618548e-01       1.418306403914e+03 
       2.504329772620e-01       1.354444657126e+03 
       2.588163516754e-01       1.288934785450e+03 
       2.674858990930e-01       1.213904296144e+03 
       2.764539076010e-01       1.130683956998e+03 
       2.857339303080e-01       1.048085330509e+03 
       2.953410092148e-01       9.761711673000e+02 
       3.052919395542e-01       9.178057692294e+02 
       3.156055844677e-01       8.678849186392e+02 
       3.263032530092e-01       8.185234837058e+02 
       3.374091587054e-01       7.651395050065e+02 
       3.489509817175e-01       7.106600907029e+02 
       3.609605657343e-01       6.607768979148e+02 
       3.734747921333e-01       6.180794370159e+02 
       3.865366902904e-01       5.793006346130e+02 
       4.001968667448e-01       5.403824404397e+02 
       4.145153713076e-01       5.011428171065e+02 
       4.295641718077e-01       4.644938782311e+02 
       4.454304922144e-01       4.314011971779e+02 
       4.622214006969e-01       4.001096378609e+02 
       4.800702491654e-01       3.690835493048e+02 
       4.991459272112e-01       3.394697362051e+02 
       5.196665217302e-01       3.119791806606e+02 
       5.419201087032e-01       2.852422166338e+02 
       5.662975451962e-01       2.593262699168e+02 
       5.933463737275e-01       2.345444573979e+02 
       6.238638458458e-01       2.102290089508e+02 
       6.590669257916e-01       1.864315997206e+02 
       7.009246080454e-01       1.627234571277e+02 
       7.528593308799e-01       1.388174425444e+02 
       8.213469537518e-01       1.141875997090e+02 
       9.196980813302e-01       8.835836204680e+01 
       1.075112183810e+00       6.172540835885e+01 
       1.322697471132e+00       3.804256671385e+01 
       1.662328205042e+00       2.209756785642e+01 
       2.092692408506e+00       1.266876816158e+01 
       2.634543445090e+00       7.202948505780e+00 
       3.316693691389e+00       4.064869568336e+00 
       4.175469971226e+00       2.278359431503e+00 
       5.256605252960e+00       1.269095700245e+00 
       6.617673932723e+00       7.028938035561e-01 
       8.331157880872e+00       3.872560557474e-01 
       1.048830636590e+01       2.123065538661e-01 
       1.320399541071e+01       1.158461883908e-01 
       1.662284535976e+01       6.292421943517e-02 
       2.092692243973e+01       3.401887964846e-02 
       2.634543445002e+01       1.829975965850e-02 
       3.316693691389e+01       9.786543592491e-03 
       4.175469971226e+01       5.195208888003e-03 
       5.256605252960e+01       2.729970294248e-03 
       6.617673932723e+01       1.413178465994e-03 
