# Matter power spectrum P(k) at redshift z=99
# for k=1.04775e-05 to 66.1767 h/Mpc,
# number of wavenumbers equal to 130
#    1:k (h/Mpc)              2:P (Mpc/h)^3        
       1.047750691046e-05       7.261927680862e-03 
       1.319039970183e-05       9.069258201849e-03 
       1.660572937635e-05       1.132639106725e-02 
       2.090537469327e-05       1.414527123399e-02 
       2.631830744443e-05       1.766569584058e-02 
       3.313278603720e-05       2.206225515942e-02 
       4.171170630578e-05       2.755297766277e-02 
       5.251192703764e-05       3.441013522947e-02 
       6.610859936996e-05       4.297372172778e-02 
       8.322579568497e-05       5.366826852944e-02 
       1.047750691046e-04       6.702379872774e-02 
       1.319039970183e-04       8.370193441285e-02 
       1.660572937635e-04       1.045283355384e-01 
       2.090537469327e-04       1.305329134104e-01 
       2.631830744443e-04       1.629994506605e-01 
       3.313278603720e-04       2.035264004601e-01 
       4.171170630578e-04       2.541004744243e-01 
       5.251192703764e-04       3.171839528557e-01 
       6.610859936996e-04       3.958147256513e-01 
       8.322579568497e-04       4.937136006271e-01 
       1.047750691046e-03       6.153841636042e-01 
       1.319039970183e-03       7.661720592238e-01 
       1.660572937635e-03       9.522588016481e-01 
       2.090537469327e-03       1.180312991698e+00 
       2.631830744443e-03       1.456802684686e+00 
       3.313278603720e-03       1.786503854035e+00 
       4.171170630578e-03       2.169896191578e+00 
       5.251192703764e-03       2.599430630721e+00 
       6.610859936996e-03       3.055668712674e+00 
       8.322579568497e-03       3.505725598443e+00 
       1.047750691046e-02       3.905490116757e+00 
       1.319039970183e-02       4.200915390549e+00 
       1.660572937633e-02       4.325062610061e+00 
       2.090537453514e-02       4.210201900702e+00 
       2.631818545635e-02       3.825150132462e+00 
       3.311571692125e-02       3.229062986879e+00 
       4.113809243311e-02       2.627726366343e+00 
       4.792590854610e-02       2.280789707449e+00 
       5.284436902701e-02       2.110085611837e+00 
       5.689644391095e-02       2.003537426788e+00 
       6.051252627066e-02       1.923052388220e+00 
       6.388413457411e-02       1.852732339031e+00 
       6.711249296401e-02       1.784563263249e+00 
       7.025823437965e-02       1.714279674627e+00 
       7.336115587705e-02       1.639815700052e+00 
       7.644928796912e-02       1.560663415267e+00 
       7.954353299775e-02       1.477458289692e+00 
       8.266024078725e-02       1.391696189351e+00 
       8.581273398637e-02       1.305460863342e+00 
       8.901225918437e-02       1.221126941890e+00 
       9.226860540985e-02       1.141079784151e+00 
       9.559052048996e-02       1.067450955031e+00 
       9.898599946599e-02       1.001888063746e+00 
       1.024624891378e-01       9.453819057370e-01 
       1.060270359164e-01       8.981505616015e-01 
       1.096863943056e-01       8.596117674994e-01 
       1.134471073830e-01       8.284053741137e-01 
       1.173155669539e-01       8.024681038534e-01 
       1.212980586983e-01       7.792280458113e-01 
       1.254007961065e-01       7.559170049092e-01 
       1.296299459934e-01       7.299834431785e-01 
       1.339916477160e-01       6.995923431383e-01 
       1.384920277736e-01       6.640792351098e-01 
       1.431372111762e-01       6.241452395625e-01 
       1.479333307714e-01       5.817642092180e-01 
       1.528865355934e-01       5.396946365824e-01 
       1.580029992204e-01       5.008138818285e-01 
       1.632889290723e-01       4.673988721703e-01 
       1.687505775527e-01       4.405342109380e-01 
       1.743942559171e-01       4.198661020012e-01 
       1.802263517371e-01       4.036599357965e-01 
       1.862533508214e-01       3.893595578724e-01 
       1.924818644494e-01       3.741352153903e-01 
       1.989186627765e-01       3.558021098916e-01 
       2.055707152847e-01       3.339999128807e-01 
       2.124452391818e-01       3.102672633881e-01 
       2.195497567139e-01       2.871225223471e-01 
       2.268921624510e-01       2.668081974491e-01 
       2.344808017550e-01       2.504837175142e-01 
       2.423245618548e-01       2.378337816896e-01 
       2.504329772620e-01       2.271119627912e-01 
       2.588163516754e-01       2.161175587498e-01 
       2.674858990930e-01       2.035459098651e-01 
       2.764539076010e-01       1.895980379258e-01 
       2.857339303080e-01       1.757568589651e-01 
       2.953410092148e-01       1.636992739439e-01 
       3.052919395542e-01       1.539058781316e-01 
       3.156055844677e-01       1.455313082344e-01 
       3.263032530092e-01       1.372504808390e-01 
       3.374091587054e-01       1.283019829466e-01 
       3.489509817175e-01       1.191712364088e-01 
       3.609605657343e-01       1.108071120736e-01 
       3.734747921333e-01       1.036451109818e-01 
       3.865366902904e-01       9.714130582049e-02 
       4.001968667448e-01       9.061585463459e-02 
       4.145153713076e-01       8.403708158286e-02 
       4.295641718077e-01       7.789136040963e-02 
       4.454304922144e-01       7.234174236108e-02 
       4.622214006969e-01       6.709382143157e-02 
       4.800702491654e-01       6.189188377784e-02 
       4.991459272112e-01       5.692630976003e-02 
       5.196665217302e-01       5.231611064985e-02 
       5.419201087032e-01       4.783262911561e-02 
       5.662975451962e-01       4.348692986324e-02 
       5.933463737275e-01       3.933100773812e-02 
       6.238638458458e-01       3.525338779806e-02 
       6.590669257916e-01       3.126290784360e-02 
       7.009246080454e-01       2.728723718611e-02 
       7.528593308799e-01       2.327853528628e-02 
       8.213469537518e-01       1.914825759994e-02 
       9.196980813302e-01       1.481704751402e-02 
       1.075112183810e+00       1.035090850583e-02 
       1.322697471132e+00       6.379455855694e-03 
       1.662328205042e+00       3.705654030656e-03 
       2.092692408506e+00       2.124542584222e-03 
       2.634543445090e+00       1.207967205810e-03 
       3.316693691389e+00       6.817102998862e-04 
       4.175469971226e+00       3.821220419643e-04 
       5.256605252960e+00       2.128730953030e-04 
       6.617673932723e+00       1.179212679824e-04 
       8.331157880872e+00       6.498576238397e-05 
       1.048830636590e+01       3.564370991866e-05 
       1.320399541071e+01       1.946446733786e-05 
       1.662284535976e+01       1.058616443273e-05 
       2.092692243973e+01       5.735713823551e-06 
       2.634543445002e+01       3.096641037477e-06 
       3.316693691389e+01       1.666132589249e-06 
       4.175469971226e+01       8.934822400558e-07 
       5.256605252960e+01       4.775323148160e-07 
       6.617673932723e+01       2.543070428872e-07 
