# Matter power spectrum P(k) at redshift z=99
# for k=1.04775e-05 to 66.1767 h/Mpc,
# number of wavenumbers equal to 130
#    1:k (h/Mpc)              2:P (Mpc/h)^3        
       1.047750691046e-05       7.261927680990e-03 
       1.319039970183e-05       9.069258202009e-03 
       1.660572937635e-05       1.132639106745e-02 
       2.090537469327e-05       1.414527123424e-02 
       2.631830744443e-05       1.766569584089e-02 
       3.313278603720e-05       2.206225515981e-02 
       4.171170630578e-05       2.755297766326e-02 
       5.251192703764e-05       3.441013523008e-02 
       6.610859936996e-05       4.297372172854e-02 
       8.322579568497e-05       5.366826853039e-02 
       1.047750691046e-04       6.702379872893e-02 
       1.319039970183e-04       8.370193441433e-02 
       1.660572937635e-04       1.045283355402e-01 
       2.090537469327e-04       1.305329134127e-01 
       2.631830744443e-04       1.629994506633e-01 
       3.313278603720e-04       2.035264004636e-01 
       4.171170630578e-04       2.541004744284e-01 
       5.251192703764e-04       3.171839528607e-01 
       6.610859936996e-04       3.958147256571e-01 
       8.322579568497e-04       4.937136006336e-01 
       1.047750691046e-03       6.153841636100e-01 
       1.319039970183e-03       7.661720592966e-01 
       1.660572937635e-03       9.522588016421e-01 
       2.090537469327e-03       1.180312991674e+00 
       2.631830744443e-03       1.456802684616e+00 
       3.313278603720e-03       1.786503853877e+00 
       4.171170630578e-03       2.169896191531e+00 
       5.251192703764e-03       2.599430629979e+00 
       6.610859936996e-03       3.055668715503e+00 
       8.322579568497e-03       3.505725595710e+00 
       1.047750691046e-02       3.905491039757e+00 
       1.319039970183e-02       4.200915301555e+00 
       1.660572937633e-02       4.325062886963e+00 
       2.090537453514e-02       4.210201782601e+00 
       2.631818545635e-02       3.825152115199e+00 
       3.311571692125e-02       3.229065073423e+00 
       4.113809243311e-02       2.627732861405e+00 
       4.792590854610e-02       2.280793397152e+00 
       5.284436902701e-02       2.110090427019e+00 
       5.689644391095e-02       2.003537062098e+00 
       6.051252627066e-02       1.923057745369e+00 
       6.388413457411e-02       1.852731242210e+00 
       6.711249296401e-02       1.784565963911e+00 
       7.025823437965e-02       1.714272941912e+00 
       7.336115587705e-02       1.639814519299e+00 
       7.644928796912e-02       1.560660884989e+00 
       7.954353299775e-02       1.477456650908e+00 
       8.266024078725e-02       1.391697279619e+00 
       8.581273398637e-02       1.305460089990e+00 
       8.901225918437e-02       1.221124919927e+00 
       9.226860540985e-02       1.141079171940e+00 
       9.559052048996e-02       1.067452045765e+00 
       9.898599946599e-02       1.001889156830e+00 
       1.024624891378e-01       9.453824069853e-01 
       1.060270359164e-01       8.981488712746e-01 
       1.096863943056e-01       8.596126213632e-01 
       1.134471073830e-01       8.284054044550e-01 
       1.173155669539e-01       8.024674215534e-01 
       1.212980586983e-01       7.792296528649e-01 
       1.254007961065e-01       7.559168118381e-01 
       1.296299459934e-01       7.299823155557e-01 
       1.339916477160e-01       6.995930309179e-01 
       1.384920277736e-01       6.640800141692e-01 
       1.431372111762e-01       6.241476519052e-01 
       1.479333307714e-01       5.817643405058e-01 
       1.528865355934e-01       5.396894598783e-01 
       1.580029992204e-01       5.008128189404e-01 
       1.632889290723e-01       4.673982943975e-01 
       1.687505775527e-01       4.405326106080e-01 
       1.743942559171e-01       4.198648329361e-01 
       1.802263517371e-01       4.036581149041e-01 
       1.862533508214e-01       3.893614193981e-01 
       1.924818644494e-01       3.741388789295e-01 
       1.989186627765e-01       3.558068138431e-01 
       2.055707152847e-01       3.340026216858e-01 
       2.124452391818e-01       3.102646758537e-01 
       2.195497567139e-01       2.871215502517e-01 
       2.268921624510e-01       2.668075394686e-01 
       2.344808017550e-01       2.504824299750e-01 
       2.423245618548e-01       2.378330032449e-01 
       2.504329772620e-01       2.271107110972e-01 
       2.588163516754e-01       2.161186666772e-01 
       2.674858990930e-01       2.035463252659e-01 
       2.764539076010e-01       1.895960737814e-01 
       2.857339303080e-01       1.757559618367e-01 
       2.953410092148e-01       1.636979402565e-01 
       3.052919395542e-01       1.539055403936e-01 
       3.156055844677e-01       1.455296829835e-01 
       3.263032530092e-01       1.372492840352e-01 
       3.374091587054e-01       1.283008430675e-01 
       3.489509817175e-01       1.191700184876e-01 
       3.609605657343e-01       1.108061009431e-01 
       3.734747921333e-01       1.036437066063e-01 
       3.865366902904e-01       9.714014031417e-02 
       4.001968667448e-01       9.061443820589e-02 
       4.145153713076e-01       8.403547712786e-02 
       4.295641718077e-01       7.789002522276e-02 
       4.454304922144e-01       7.234036716841e-02 
       4.622214006969e-01       6.709260182242e-02 
       4.800702491654e-01       6.189068585457e-02 
       4.991459272112e-01       5.692519890415e-02 
       5.196665217302e-01       5.231487590384e-02 
       5.419201087032e-01       4.783138262357e-02 
       5.662975451962e-01       4.348565471243e-02 
       5.933463737275e-01       3.932963648553e-02 
       6.238638458458e-01       3.525201147947e-02 
       6.590669257916e-01       3.126157122797e-02 
       7.009246080454e-01       2.728595646762e-02 
       7.528593308799e-01       2.327702375776e-02 
       8.213469537518e-01       1.914686817173e-02 
       9.196980813302e-01       1.481562760200e-02 
       1.075112183810e+00       1.034947861173e-02 
       1.322697471132e+00       6.377980190467e-03 
       1.662328205042e+00       3.704181690176e-03 
       2.092692408506e+00       2.123079685310e-03 
       2.634543445090e+00       1.206518925683e-03 
       3.316693691389e+00       6.803006349951e-04 
       4.175469971226e+00       3.807625939777e-04 
       5.256605252960e+00       2.115748051818e-04 
       6.617673932723e+00       1.166906139631e-04 
       8.331157880872e+00       6.382827127353e-05 
       1.048830636590e+01       3.456391841307e-05 
       1.320399541071e+01       1.846620276809e-05 
       1.662284535976e+01       9.673294309447e-06 
       2.092692243973e+01       4.913141262050e-06 
       2.634543445002e+01       2.371630561593e-06 
       3.316693691389e+01       1.048941304745e-06 
       4.175469971226e+01       3.964274862928e-07 
       5.256605252960e+01       1.105995132406e-07 
       6.617673932723e+01       1.543759732560e-08 
