# Matter power spectrum P(k) at redshift z=99
# for k=1.04775e-05 to 67.6233 h/Mpc,
# number of wavenumbers equal to 246
#    1:k (h/Mpc)              2:P (Mpc/h)^3        
       1.047750691338e-05       7.261927673131e-03 
       1.131335172818e-05       7.820331745750e-03 
       1.221587619877e-05       8.421675986503e-03 
       1.319039970550e-05       9.069258192209e-03 
       1.424266598317e-05       9.766638404437e-03 
       1.537887697396e-05       1.051764069683e-02 
       1.660572938097e-05       1.132639105521e-02 
       1.793045413791e-05       1.219733231419e-02 
       1.936085902737e-05       1.313524224383e-02 
       2.090537469909e-05       1.414527121896e-02 
       2.257310435923e-05       1.523296272194e-02 
       2.437387742372e-05       1.640429444532e-02 
       2.631830745176e-05       1.766569582180e-02 
       2.841785470091e-05       1.902408601796e-02 
       3.068489367268e-05       2.048692970595e-02 
       3.313278604643e-05       2.206225513597e-02 
       3.577595943165e-05       2.375870704913e-02 
       3.862999240274e-05       2.558560727483e-02 
       4.171170631739e-05       2.755297763348e-02 
       4.503926445983e-05       2.967161927320e-02 
       4.863227909323e-05       3.195316450837e-02 
       5.251192705226e-05       3.441013519290e-02 
       5.670107455699e-05       3.705601722534e-02 
       6.122441198393e-05       3.990533413569e-02 
       6.610859938837e-05       4.297372168210e-02 
       7.138242363583e-05       4.627802141696e-02 
       7.707696806873e-05       4.983636194167e-02 
       8.322579570814e-05       5.366826847240e-02 
       8.986514707061e-05       5.779476394578e-02 
       9.703415376577e-05       6.223848243895e-02 
       1.047750691338e-04       6.702379865651e-02 
       1.131335172818e-04       7.217695153393e-02 
       1.221587619877e-04       7.772619073585e-02 
       1.319039970550e-04       8.370193432390e-02 
       1.424266598317e-04       9.013692507563e-02 
       1.537887697396e-04       9.706641242586e-02 
       1.660572938097e-04       1.045283354273e-01 
       1.793045413791e-04       1.125635349070e-01 
       1.936085902737e-04       1.212159614970e-01 
       2.090537469909e-04       1.305329132717e-01 
       2.257310435923e-04       1.405652846217e-01 
       2.437387742372e-04       1.513678302543e-01 
       2.631830745176e-04       1.629994504873e-01 
       2.841785470091e-04       1.755234921227e-01 
       3.068489367268e-04       1.890080670416e-01 
       3.313278604643e-04       2.035264002439e-01 
       3.577595943165e-04       2.191571803685e-01 
       3.862999240274e-04       2.359849437596e-01 
       4.171170631739e-04       2.541004741543e-01 
       4.503926445983e-04       2.736012080282e-01 
       4.863227909323e-04       2.945916790970e-01 
       5.251192705226e-04       3.171839525187e-01 
       5.670107455699e-04       3.414980764007e-01 
       6.122441198393e-04       3.676625413106e-01 
       6.610859938837e-04       3.958147252309e-01 
       7.138242363583e-04       4.261013284918e-01 
       7.707696806873e-04       4.586787792359e-01 
       8.322579570814e-04       4.937136001354e-01 
       8.986514707061e-04       5.313826801407e-01 
       9.703415376577e-04       5.718734972164e-01 
       1.047750691338e-03       6.153841629509e-01 
       1.131335172818e-03       6.621233239470e-01 
       1.221587619877e-03       7.123098220435e-01 
       1.319039970550e-03       7.661720584719e-01 
       1.424266598317e-03       8.239546297732e-01 
       1.537887697396e-03       8.859011173466e-01 
       1.660572938097e-03       9.522588006415e-01 
       1.793045413791e-03       1.023280099819e+00 
       1.936085902737e-03       1.099216304578e+00 
       2.090537469909e-03       1.180312990451e+00 
       2.257310435923e-03       1.266804115847e+00 
       2.437387742372e-03       1.358904853400e+00 
       2.631830745176e-03       1.456802683150e+00 
       2.841785470091e-03       1.560646890513e+00 
       3.068489367268e-03       1.670536062487e+00 
       3.313278604643e-03       1.786503852147e+00 
       3.577595943165e-03       1.908502930768e+00 
       3.862999240274e-03       2.036387730680e+00 
       4.171170631739e-03       2.169896178587e+00 
       4.503926445983e-03       2.308631878944e+00 
       4.863227909323e-03       2.452047290896e+00 
       5.251192705226e-03       2.599430628002e+00 
       5.670107455699e-03       2.749896931679e+00 
       6.122441198393e-03       2.902386513237e+00 
       6.610859938837e-03       3.055668680859e+00 
       7.138242363583e-03       3.208356461290e+00 
       7.707696806873e-03       3.358923892279e+00 
       8.322579570814e-03       3.505725594965e+00 
       8.986514707061e-03       3.647009976983e+00 
       9.703415376577e-03       3.780923303568e+00 
       1.047750691338e-02       3.905491818486e+00 
       1.131335172818e-02       4.018588045923e+00 
       1.221587619877e-02       4.117901585463e+00 
       1.319039970550e-02       4.200915336479e+00 
       1.424266598317e-02       4.264941301355e+00 
       1.537887697392e-02       4.307216695309e+00 
       1.660572938023e-02       4.325062859846e+00 
       1.793045412706e-02       4.316056117979e+00 
       1.936085890181e-02       4.278228435590e+00 
       2.090537352463e-02       4.210194821113e+00 
       2.257309535333e-02       4.111419895533e+00 
       2.437382002918e-02       3.982419178585e+00 
       2.631799944462e-02       3.825167411538e+00 
       2.841644545389e-02       3.643287037388e+00 
       3.067933355377e-02       3.442198839895e+00 
       3.311368470740e-02       3.229238515333e+00 
       3.571840443502e-02       3.013508754695e+00 
       3.847720348444e-02       2.805280138894e+00 
       4.135335538431e-02       2.614411202878e+00 
       4.429361667738e-02       2.448129877669e+00 
       4.724366439141e-02       2.309236372585e+00 
       5.016480835311e-02       2.196110816954e+00 
       5.303989620246e-02       2.104362336976e+00 
       5.586870669566e-02       2.028458639400e+00 
       5.866042680613e-02       1.963150612269e+00 
       6.142798932958e-02       1.903779291605e+00 
       6.418496440164e-02       1.846479542236e+00 
       6.694418833788e-02       1.788195293168e+00 
       6.971731106057e-02       1.726712954931e+00 
       7.251476155766e-02       1.660650232819e+00 
       7.534587671527e-02       1.589469636961e+00 
       7.821907666265e-02       1.513436240508e+00 
       8.114203772912e-02       1.433566610682e+00 
       8.412184535029e-02       1.351489374687e+00 
       8.716512279304e-02       1.269274454950e+00 
       9.027813695930e-02       1.189193294709e+00 
       9.346688431697e-02       1.113500337792e+00 
       9.673716028276e-02       1.044175278458e+00 
       1.000946150830e-01       9.827016869802e-01 
       1.035447986537e-01       9.299360098951e-01 
       1.070931966762e-01       8.859604833313e-01 
       1.107452594425e-01       8.500698552013e-01 
       1.145064249153e-01       8.208017006356e-01 
       1.183821370918e-01       7.960242710012e-01 
       1.223778605862e-01       7.731428702911e-01 
       1.264990921987e-01       7.494497879701e-01 
       1.307513701367e-01       7.225556712671e-01 
       1.351402814784e-01       6.909057411048e-01 
       1.396714684203e-01       6.541781055692e-01 
       1.443506338194e-01       6.134257515465e-01 
       1.491835465229e-01       5.708658281582e-01 
       1.541760469708e-01       5.293623295032e-01 
       1.593340535561e-01       4.917086170344e-01 
       1.646635702297e-01       4.599181846720e-01 
       1.701706958456e-01       4.347268661027e-01 
       1.758616357459e-01       4.154058573800e-01 
       1.817427160982e-01       3.999344825821e-01 
       1.878204015065e-01       3.856792529305e-01 
       1.941013164283e-01       3.698061346738e-01 
       2.005922709503e-01       3.505431549786e-01 
       2.073002914972e-01       3.280400215600e-01 
       2.142326570816e-01       3.042110725032e-01 
       2.213969417533e-01       2.816072060754e-01 
       2.288010639706e-01       2.622538927683e-01 
       2.364533437147e-01       2.469581288897e-01 
       2.443625682930e-01       2.350087436969e-01 
       2.525380679504e-01       2.244137412647e-01 
       2.609898026346e-01       2.130892694387e-01 
       2.697284615565e-01       2.000966073846e-01 
       2.787655775689e-01       1.860149165899e-01 
       2.881136588829e-01       1.725120330641e-01 
       2.977863412677e-01       1.610600052744e-01 
       3.077985646929e-01       1.517550195780e-01 
       3.181667794071e-01       1.435530769535e-01 
       3.289091877812e-01       1.351748633770e-01 
       3.400460299658e-01       1.261573305407e-01 
       3.515999236474e-01       1.171951524164e-01 
       3.635962711085e-01       1.091696045292e-01 
       3.760637506334e-01       1.023019018639e-01 
       3.890349143879e-01       9.592976519974e-02 
       4.025469216825e-01       8.949945119250e-02 
       4.166424456376e-01       8.310291409617e-02 
       4.313708035863e-01       7.720648991548e-02 
       4.467893782977e-01       7.189080529154e-02 
       4.629654199664e-01       6.685907918812e-02 
       4.799783501994e-01       6.190705258537e-02 
       4.979227319373e-01       5.721117404345e-02 
       5.169121270864e-01       5.289123592713e-02 
       5.370841404489e-01       4.875757163467e-02 
       5.586070464571e-01       4.477806745600e-02 
       5.816885094930e-01       4.103862212070e-02 
       6.065870144995e-01       3.747584621702e-02 
       6.336266468475e-01       3.406158848732e-02 
       6.632156059511e-01       3.081896391772e-02 
       6.958678639263e-01       2.771191659250e-02 
       7.322247985589e-01       2.474976160042e-02 
       7.730680195114e-01       2.192111769578e-02 
       8.193049553677e-01       1.923641321032e-02 
       8.718988016039e-01       1.670826812785e-02 
       9.317218031082e-01       1.436166164675e-02 
       9.993660908989e-01       1.222637336598e-02 
       1.075037110174e+00       1.032647853834e-02 
       1.158653485707e+00       8.671560676539e-03 
       1.250099157308e+00       7.254282085749e-03 
       1.349432401273e+00       6.052913977791e-03 
       1.456947457397e+00       5.040789702242e-03 
       1.573135111331e+00       4.190923613535e-03 
       1.698621895592e+00       3.478595162661e-03 
       1.834127512934e+00       2.882408895003e-03 
       1.980444934528e+00       2.383891150206e-03 
       2.138435191726e+00       1.967499627501e-03 
       2.309029199186e+00       1.619997722525e-03 
       2.493232377687e+00       1.330269306810e-03 
       2.692130395285e+00       1.088868601079e-03 
       2.906895534573e+00       8.879413695472e-04 
       3.138793597714e+00       7.208356052933e-04 
       3.389191366484e+00       5.819998737695e-04 
       3.659564657905e+00       4.668040822984e-04 
       3.951507022538e+00       3.713829427569e-04 
       4.266739136701e+00       2.925234737889e-04 
       4.607118943941e+00       2.275621046857e-04 
       4.974652605557e+00       1.742965974903e-04 
       5.371506324689e+00       1.309045704861e-04 
       5.800019113685e+00       9.588754435160e-05 
       6.262716579983e+00       6.799804333048e-05 
       6.762325811764e+00       4.619795237211e-05 
       7.301791451110e+00       2.960608381304e-05 
       7.884293049406e+00       1.745443243135e-05 
       8.513263807261e+00       9.053738628356e-06 
       9.192410809424e+00       3.759795993453e-06 
       9.925736873929e+00       9.511683628236e-07 
       1.071756414427e+01       1.613336759420e-08 
       1.157255956364e+01       3.539958018223e-07 
       1.249576238137e+01       1.391277449941e-06 
       1.349261385375e+01       2.612598261030e-06 
       1.456898931416e+01       3.602096201870e-06 
       1.573123280165e+01       4.085831948081e-06 
       1.698619445202e+01       3.962272719397e-06 
       1.834127087176e+01       3.305851026639e-06 
       1.980444873285e+01       2.331679959408e-06 
       2.138435184532e+01       1.322396098708e-06 
       2.309029198506e+01       5.315856035033e-07 
       2.493232377636e+01       9.742714711856e-08 
       2.692130395282e+01       2.796606114995e-09 
       2.906895534573e+01       1.053411747086e-07 
       3.138793597714e+01       2.263874581798e-07 
       3.389191366484e+01       2.502805909414e-07 
       3.659564657905e+01       1.725844498110e-07 
       3.951507022538e+01       6.768783366981e-08 
       4.266739136701e+01       7.430413262247e-09 
       4.607118943941e+01       3.115537084509e-09 
       4.974652605557e+01       1.728726458669e-08 
       5.371506324689e+01       1.780915244422e-08 
       5.800019113685e+01       6.793496322682e-09 
       6.262716579983e+01       2.567393888304e-10 
       6.762325811764e+01       9.103981899734e-10 
