# Matter power spectrum P(k) at redshift z=0
# for k=1.04775e-05 to 66.1767 h/Mpc,
# number of wavenumbers equal to 130
#    1:k (h/Mpc)              2:P (Mpc/h)^3        
       1.047750691046e-05       5.020964030496e+01 
       1.319039970183e-05       6.270561136338e+01 
       1.660572937635e-05       7.831146019487e+01 
       2.090537469327e-05       9.780106489133e+01 
       2.631830744443e-05       1.221408359488e+02 
       3.313278603720e-05       1.525374457818e+02 
       4.171170630578e-05       1.904975988130e+02 
       5.251192703764e-05       2.379022187806e+02 
       6.610859936996e-05       2.970989235518e+02 
       8.322579568497e-05       3.710167325189e+02 
       1.047750691046e-04       4.633080774984e+02 
       1.319039970183e-04       5.785234118361e+02 
       1.660572937635e-04       7.223242664989e+02 
       2.090537469327e-04       9.017396275916e+02 
       2.631830744443e-04       1.125468123187e+03 
       3.313278603720e-04       1.404223053456e+03 
       4.171170630578e-04       1.751108024428e+03 
       5.251192703764e-04       2.181998444075e+03 
       6.610859936996e-04       2.715889976270e+03 
       8.322579568497e-04       3.375152312601e+03 
       1.047750691046e-03       4.185552104711e+03 
       1.319039970183e-03       5.175742542980e+03 
       1.660572937635e-03       6.376122164546e+03 
       2.090537469327e-03       7.815668163846e+03 
       2.631830744443e-03       9.517769245737e+03 
       3.313278603720e-03       1.149352807844e+04 
       4.171170630578e-03       1.373252209022e+04 
       5.251192703764e-03       1.619024930374e+04 
       6.610859936996e-03       1.877357487086e+04 
       8.322579568497e-03       2.132345031160e+04 
       1.047750691046e-02       2.359880467533e+04 
       1.319039970183e-02       2.526594892593e+04 
       1.660572937633e-02       2.591221682919e+04 
       2.090537453514e-02       2.512406226285e+04 
       2.631818545635e-02       2.269038381785e+04 
       3.311571692125e-02       1.893506713602e+04 
       4.113809243311e-02       1.507537362400e+04 
       4.792590854610e-02       1.275247132055e+04 
       5.284436902701e-02       1.154025628214e+04 
       5.689644391095e-02       1.074075888582e+04 
       6.051252627066e-02       1.011304698408e+04 
       6.388413457411e-02       9.556802161787e+03 
       6.711249296401e-02       9.021716886826e+03 
       7.025823437965e-02       8.481254457896e+03 
       7.336115587705e-02       7.922638480455e+03 
       7.644928796912e-02       7.342612412584e+03 
       7.954353299775e-02       6.744911425872e+03 
       8.266024078725e-02       6.138375612302e+03 
       8.581273398637e-02       5.535076850902e+03 
       8.901225918437e-02       4.948626061316e+03 
       9.226860540985e-02       4.392401893934e+03 
       9.559052048996e-02       3.877863969599e+03 
       9.898599946599e-02       3.413249686209e+03 
       1.024624891378e-01       3.002909609440e+03 
       1.060270359164e-01       2.646959532504e+03 
       1.096863943056e-01       2.341657693124e+03 
       1.134471073830e-01       2.079900834761e+03 
       1.173155669539e-01       1.852253121356e+03 
       1.212980586983e-01       1.648084017162e+03 
       1.254007961065e-01       1.456990091658e+03 
       1.296299459934e-01       1.270305970106e+03 
       1.339916477160e-01       1.082855375844e+03 
       1.384920277736e-01       8.940993012884e+02 
       1.431372111762e-01       7.083898870985e+02 
       1.479333307714e-01       5.337376837009e+02 
       1.528865355934e-01       3.793062621316e+02 
       1.580029992204e-01       2.523892317733e+02 
       1.632889290723e-01       1.561671791296e+02 
       1.687505775527e-01       8.901759433298e+01 
       1.743942559171e-01       4.578379592210e+01 
       1.802263517371e-01       1.997444912559e+01 
       1.862533508214e-01       6.005718846243e+00 
       1.924818644494e-01       3.185072239834e-01 
       1.989186627765e-01       1.803269253309e+00 
       2.055707152847e-01       1.120052153119e+01 
       2.124452391818e-01       2.927541875352e+01 
       2.195497567139e-01       5.484169479759e+01 
       2.268921624510e-01       8.402032120697e+01 
       2.344808017550e-01       1.112800374603e+02 
       2.423245618548e-01       1.319943659020e+02 
       2.504329772620e-01       1.449669613200e+02 
       2.588163516754e-01       1.522691421065e+02 
       2.674858990930e-01       1.566644462190e+02 
       2.764539076010e-01       1.593872326866e+02 
       2.857339303080e-01       1.590103023004e+02 
       2.953410092148e-01       1.524178540540e+02 
       3.052919395542e-01       1.381135673655e+02 
       3.156055844677e-01       1.178223819497e+02 
       3.263032530092e-01       9.533303961844e+01 
       3.374091587054e-01       7.397835825201e+01 
       3.489509817175e-01       5.475231843570e+01 
       3.609605657343e-01       3.746536714722e+01 
       3.734747921333e-01       2.234176466951e+01 
       3.865366902904e-01       1.066766941427e+01 
       4.001968667448e-01       3.399839190478e+00 
       4.145153713076e-01       2.855902948748e-01 
       4.295641718077e-01       4.303691670179e-01 
       4.454304922144e-01       2.964059955071e+00 
       4.622214006969e-01       6.822651349407e+00 
       4.800702491654e-01       1.059173566923e+01 
       4.991459272112e-01       1.313952199434e+01 
       5.196665217302e-01       1.390222446624e+01 
       5.419201087032e-01       1.251836065626e+01 
       5.662975451962e-01       9.313734946265e+00 
       5.933463737275e-01       5.353652697660e+00 
       6.238638458458e-01       1.899983308198e+00 
       6.590669257916e-01       1.282632682346e-01 
       7.009246080454e-01       3.266729994355e-01 
       7.528593308799e-01       1.318263375584e+00 
       8.213469537518e-01       1.106735144542e+00 
       9.196980813302e-01       3.484258755276e-02 
       1.075112183810e+00       1.587335779845e-01 
       1.322697471132e+00       2.010546035544e-02 
       1.662328205042e+00       2.522906489109e-03 
       2.092692408506e+00       4.647853157134e-05 
       2.634543445090e+00       6.729676598973e-06 
       3.316693691389e+00       1.999390364051e-07 
       4.175469971226e+00       7.433239525967e-09 
       5.256605252960e+00       1.839391865738e-09 
       6.617673932723e+00       6.014477443726e-10 
       8.331157880872e+00       1.824633640419e-10 
       1.048830636590e+01       4.843661104739e-11 
       1.320399541071e+01       1.145839474937e-11 
       1.662284535976e+01       2.153386095797e-12 
       2.092692243973e+01       2.556175419153e-13 
       2.634543445002e+01       1.709656865990e-14 
       3.316693691389e+01       1.155449640412e-16 
       4.175469971226e+01       2.366444195410e-17 
       5.256605252960e+01       7.517082812823e-19 
       6.617673932723e+01       2.001097790773e-19 
