# Matter power spectrum P(k) at redshift z=99
# for k=1.04775e-05 to 67.6233 h/Mpc,
# number of wavenumbers equal to 246
#    1:k (h/Mpc)              2:P (Mpc/h)^3        
       1.047750691046e-05       7.261927680861e-03 
       1.131335172503e-05       7.820331652431e-03 
       1.221587619537e-05       8.421675995453e-03 
       1.319039970183e-05       9.069258201848e-03 
       1.424266597921e-05       9.766638412133e-03 
       1.537887696968e-05       1.051764070801e-02 
       1.660572937635e-05       1.132639106725e-02 
       1.793045413292e-05       1.219733232715e-02 
       1.936085902198e-05       1.313524225779e-02 
       2.090537469327e-05       1.414527123399e-02 
       2.257310435294e-05       1.523296273823e-02 
       2.437387741694e-05       1.640429446288e-02 
       2.631830744443e-05       1.766569584058e-02 
       2.841785469300e-05       1.902408737005e-02 
       3.068489366414e-05       2.048692972772e-02 
       3.313278603720e-05       2.206225515942e-02 
       3.577595942169e-05       2.375870707438e-02 
       3.862999239199e-05       2.558560730202e-02 
       4.171170630578e-05       2.755297766277e-02 
       4.503926444729e-05       2.967161930474e-02 
       4.863227907969e-05       3.195316454233e-02 
       5.251192703764e-05       3.441013522947e-02 
       5.670107454120e-05       3.705601726472e-02 
       6.122441196689e-05       3.990533417794e-02 
       6.610859936996e-05       4.297372172777e-02 
       7.138242361596e-05       4.627802146614e-02 
       7.707696804727e-05       4.983636199464e-02 
       8.322579568497e-05       5.366826852944e-02 
       8.986514704559e-05       5.779476400720e-02 
       9.703415373875e-05       6.223848250510e-02 
       1.047750691046e-04       6.702379872774e-02 
       1.131335172503e-04       7.217695161064e-02 
       1.221587619537e-04       7.772619081844e-02 
       1.319039970183e-04       8.370193441286e-02 
       1.424266597921e-04       9.013692517144e-02 
       1.537887696968e-04       9.706641252902e-02 
       1.660572937635e-04       1.045283355384e-01 
       1.793045413292e-04       1.125635350266e-01 
       1.936085902198e-04       1.212159616259e-01 
       2.090537469327e-04       1.305329134104e-01 
       2.257310435294e-04       1.405652847711e-01 
       2.437387741694e-04       1.513678304151e-01 
       2.631830744443e-04       1.629994506605e-01 
       2.841785469300e-04       1.755234923092e-01 
       3.068489366414e-04       1.890080672425e-01 
       3.313278603720e-04       2.035264004601e-01 
       3.577595942169e-04       2.191571806013e-01 
       3.862999239199e-04       2.359849440104e-01 
       4.171170630578e-04       2.541004744243e-01 
       4.503926444729e-04       2.736012083189e-01 
       4.863227907969e-04       2.945916794099e-01 
       5.251192703764e-04       3.171839528558e-01 
       5.670107454121e-04       3.414980767635e-01 
       6.122441196689e-04       3.676625417011e-01 
       6.610859936996e-04       3.958147256513e-01 
       7.138242361596e-04       4.261013289354e-01 
       7.707696804727e-04       4.586787797352e-01 
       8.322579568497e-04       4.937136006298e-01 
       8.986514704559e-04       5.313826807049e-01 
       9.703415373875e-04       5.718734978233e-01 
       1.047750691046e-03       6.153841636041e-01 
       1.131335172503e-03       6.621233246496e-01 
       1.221587619537e-03       7.123098227994e-01 
       1.319039970183e-03       7.661720592397e-01 
       1.424266597921e-03       8.239546306465e-01 
       1.537887696968e-03       8.859011182850e-01 
       1.660572937635e-03       9.522588016481e-01 
       1.793045413292e-03       1.023280100902e+00 
       1.936085902198e-03       1.099216305740e+00 
       2.090537469327e-03       1.180312991699e+00 
       2.257310435294e-03       1.266804117187e+00 
       2.437387741694e-03       1.358904854833e+00 
       2.631830744443e-03       1.456802684686e+00 
       2.841785469300e-03       1.560646892157e+00 
       3.068489366414e-03       1.670536064244e+00 
       3.313278603720e-03       1.786503854042e+00 
       3.577595942169e-03       1.908502932770e+00 
       3.862999239199e-03       2.036387732815e+00 
       4.171170630578e-03       2.169896194927e+00 
       4.503926444729e-03       2.308631881359e+00 
       4.863227907969e-03       2.452047293459e+00 
       5.251192703764e-03       2.599430630721e+00 
       5.670107454120e-03       2.749896934547e+00 
       6.122441196689e-03       2.902386516273e+00 
       6.610859936996e-03       3.055668717295e+00 
       7.138242361596e-03       3.208356464658e+00 
       7.707696804727e-03       3.358923895909e+00 
       8.322579568496e-03       3.505725598530e+00 
       8.986514704559e-03       3.647010003017e+00 
       9.703415373875e-03       3.780923307787e+00 
       1.047750691046e-02       3.905491690898e+00 
       1.131335172503e-02       4.018588047430e+00 
       1.221587619537e-02       4.117901593058e+00 
       1.319039970183e-02       4.200915428531e+00 
       1.424266597920e-02       4.264942233203e+00 
       1.537887696964e-02       4.307218428642e+00 
       1.660572937560e-02       4.325062897993e+00 
       1.793045412207e-02       4.316056969730e+00 
       1.936085889642e-02       4.278227907016e+00 
       2.090537351881e-02       4.210206261050e+00 
       2.257309534705e-02       4.111420515618e+00 
       2.437382002240e-02       3.982417962532e+00 
       2.631799943729e-02       3.825177627699e+00 
       2.841644544598e-02       3.643279961220e+00 
       3.067933354524e-02       3.442192098585e+00 
       3.311368469821e-02       3.229232291542e+00 
       3.571840442514e-02       3.013515731888e+00 
       3.847720347390e-02       2.805279573470e+00 
       4.135335537314e-02       2.614418282136e+00 
       4.429361666563e-02       2.448132185367e+00 
       4.724366437916e-02       2.309236249285e+00 
       5.016480834039e-02       2.196115376827e+00 
       5.303989618930e-02       2.104366276599e+00 
       5.586870668205e-02       2.028463797558e+00 
       5.866042679206e-02       1.963153477749e+00 
       6.142798931504e-02       1.903781390193e+00 
       6.418496438662e-02       1.846475409785e+00 
       6.694418832236e-02       1.788195715460e+00 
       6.971731104453e-02       1.726715639390e+00 
       7.251476154108e-02       1.660652223504e+00 
       7.534587669814e-02       1.589470890220e+00 
       7.821907664495e-02       1.513437582044e+00 
       8.114203771084e-02       1.433566060723e+00 
       8.412184533139e-02       1.351492358666e+00 
       8.716512277352e-02       1.269271949401e+00 
       9.027813693913e-02       1.189191529242e+00 
       9.346688429613e-02       1.113499981101e+00 
       9.673716026122e-02       1.044175153581e+00 
       1.000946150608e-01       9.827065246768e-01 
       1.035447986307e-01       9.299370731622e-01 
       1.070931966524e-01       8.859591400920e-01 
       1.107452594180e-01       8.500694238037e-01 
       1.145064248899e-01       8.208044137198e-01 
       1.183821370656e-01       7.960259202482e-01 
       1.223778605591e-01       7.731464337934e-01 
       1.264990921707e-01       7.494527622185e-01 
       1.307513701078e-01       7.225583511105e-01 
       1.351402814485e-01       6.909089305984e-01 
       1.396714683894e-01       6.541803198180e-01 
       1.443506337875e-01       6.134259351735e-01 
       1.491835464900e-01       5.708680887332e-01 
       1.541760469368e-01       5.293627717419e-01 
       1.593340535209e-01       4.917112510907e-01 
       1.646635701934e-01       4.599192507815e-01 
       1.701706958081e-01       4.347291837117e-01 
       1.758616357070e-01       4.154079971550e-01 
       1.817427160581e-01       3.999373005064e-01 
       1.878204014651e-01       3.856827773825e-01 
       1.941013163855e-01       3.698098695132e-01 
       2.005922709060e-01       3.505459331441e-01 
       2.073002914514e-01       3.280426972121e-01 
       2.142326570343e-01       3.042136443517e-01 
       2.213969417044e-01       2.816122192667e-01 
       2.288010639201e-01       2.622573845178e-01 
       2.364533436625e-01       2.469619887277e-01 
       2.443625682390e-01       2.350126577201e-01 
       2.525380678946e-01       2.244181433738e-01 
       2.609898025770e-01       2.130934385985e-01 
       2.697284614969e-01       2.001014025046e-01 
       2.787655775073e-01       1.860196696823e-01 
       2.881136588192e-01       1.725164801863e-01 
       2.977863412019e-01       1.610658834546e-01 
       3.077985646248e-01       1.517610352325e-01 
       3.181667793367e-01       1.435596895150e-01 
       3.289091877084e-01       1.351816251457e-01 
       3.400460298905e-01       1.261641037088e-01 
       3.515999235695e-01       1.172025217276e-01 
       3.635962710278e-01       1.091771307139e-01 
       3.760637505499e-01       1.023096534934e-01 
       3.890349143014e-01       9.593788270439e-02 
       4.025469215929e-01       8.950752620673e-02 
       4.166424455447e-01       8.311183134468e-02 
       4.313708034899e-01       7.721548879281e-02 
       4.467893781976e-01       7.190065207874e-02 
       4.629654198623e-01       6.686900871477e-02 
       4.799783500912e-01       6.191763985231e-02 
       4.979227318246e-01       5.722234962980e-02 
       5.169121269689e-01       5.290274378197e-02 
       5.370841403262e-01       4.876981082883e-02 
       5.586070463286e-01       4.479094098613e-02 
       5.816885093582e-01       4.105187495714e-02 
       6.065870143577e-01       3.748989788061e-02 
       6.336266466978e-01       3.407635401482e-02 
       6.632156057925e-01       3.083462739490e-02 
       6.958678637575e-01       2.772838531071e-02 
       7.322247983784e-01       2.476704886270e-02 
       7.730680193171e-01       2.193949553274e-02 
       8.193049551574e-01       1.925605955306e-02 
       8.718988013754e-01       1.672925124374e-02 
       9.317218028590e-01       1.438415472424e-02 
       9.993660906273e-01       1.225066771057e-02 
       1.075037109879e+00       1.035256236421e-02 
       1.158653485387e+00       8.699686541007e-03 
       1.250099156961e+00       7.284570822080e-03 
       1.349432400897e+00       6.085434190977e-03 
       1.456947456991e+00       5.075697598077e-03 
       1.573135110893e+00       4.228270048363e-03 
       1.698621895119e+00       3.518505579958e-03 
       1.834127512423e+00       2.924947898614e-03 
       1.980444933977e+00       2.429115589910e-03 
       2.138435191130e+00       2.015472524321e-03 
       2.309029198543e+00       1.670732626524e-03 
       2.493232376993e+00       1.383748568241e-03 
       2.692130394536e+00       1.145086612487e-03 
       2.906895533764e+00       9.468113083985e-04 
       3.138793596840e+00       7.822440233464e-04 
       3.389191365541e+00       6.457779825317e-04 
       3.659564656886e+00       5.327227290177e-04 
       3.951507021438e+00       4.391402465906e-04 
       4.266739135513e+00       3.617416807981e-04 
       4.607118942658e+00       2.977787174199e-04 
       4.974652604172e+00       2.449661565663e-04 
       5.371506323193e+00       2.013868231206e-04 
       5.800019112071e+00       1.654567845620e-04 
       6.262716578240e+00       1.358535135500e-04 
       6.762325809881e+00       1.114800458414e-04 
       7.301791449077e+00       9.142539945713e-05 
       7.884293047211e+00       7.493705746882e-05 
       8.513263804891e+00       6.138565307265e-05 
       9.192410806865e+00       5.025745790562e-05 
       9.925736871166e+00       4.112477551563e-05 
       1.071756414128e+01       3.363296453796e-05 
       1.157255956041e+01       2.749082705021e-05 
       1.249576237789e+01       2.245800186059e-05 
       1.349261385000e+01       1.833699481935e-05 
       1.456898931011e+01       1.496346355379e-05 
       1.573123279727e+01       1.220365613966e-05 
       1.698619444729e+01       9.946944966564e-06 
       1.834127086665e+01       8.102529173006e-06 
       1.980444872733e+01       6.595664117576e-06 
       2.138435183937e+01       5.365226104805e-06 
       2.309029197863e+01       4.360931694613e-06 
       2.493232376942e+01       3.541609586442e-06 
       2.692130394533e+01       2.873467450414e-06 
       2.906895533764e+01       2.328868567420e-06 
       3.138793596840e+01       1.885165090139e-06 
       3.389191365541e+01       1.523820373021e-06 
       3.659564656886e+01       1.229669909345e-06 
       3.951507021438e+01       9.903986912036e-07 
       4.266739135513e+01       7.958470882197e-07 
       4.607118942658e+01       6.377740501070e-07 
       4.974652604172e+01       5.094357428151e-07 
       5.371506323193e+01       4.053509816057e-07 
       5.800019112071e+01       3.210332875893e-07 
       6.262716578240e+01       2.528336949636e-07 
       6.762325809881e+01       1.977774751894e-07 
