# Matter power spectrum P(k) at redshift z=99
# for k=1.04775e-05 to 66.1767 h/Mpc,
# number of wavenumbers equal to 130
#    1:k (h/Mpc)              2:P (Mpc/h)^3        
       1.047750691046e-05       7.261927680862e-03 
       1.319039970183e-05       9.069258201849e-03 
       1.660572937635e-05       1.132639106725e-02 
       2.090537469327e-05       1.414527123399e-02 
       2.631830744443e-05       1.766569584058e-02 
       3.313278603720e-05       2.206225515943e-02 
       4.171170630578e-05       2.755297766277e-02 
       5.251192703764e-05       3.441013522947e-02 
       6.610859936996e-05       4.297372172778e-02 
       8.322579568497e-05       5.366826852945e-02 
       1.047750691046e-04       6.702379872775e-02 
       1.319039970183e-04       8.370193441286e-02 
       1.660572937635e-04       1.045283355384e-01 
       2.090537469327e-04       1.305329134104e-01 
       2.631830744443e-04       1.629994506606e-01 
       3.313278603720e-04       2.035264004601e-01 
       4.171170630578e-04       2.541004744243e-01 
       5.251192703764e-04       3.171839528557e-01 
       6.610859936996e-04       3.958147256514e-01 
       8.322579568497e-04       4.937136006268e-01 
       1.047750691046e-03       6.153841636041e-01 
       1.319039970183e-03       7.661720592663e-01 
       1.660572937635e-03       9.522588016464e-01 
       2.090537469327e-03       1.180312991699e+00 
       2.631830744443e-03       1.456802684685e+00 
       3.313278603720e-03       1.786503854036e+00 
       4.171170630578e-03       2.169896195863e+00 
       5.251192703764e-03       2.599430630718e+00 
       6.610859936996e-03       3.055668706406e+00 
       8.322579568497e-03       3.505725158134e+00 
       1.047750691046e-02       3.905490109742e+00 
       1.319039970183e-02       4.200915317927e+00 
       1.660572937633e-02       4.325062212927e+00 
       2.090537453514e-02       4.210202569754e+00 
       2.631818545635e-02       3.825150617340e+00 
       3.311571692125e-02       3.229059844262e+00 
       4.113809243311e-02       2.627734493862e+00 
       4.792590854610e-02       2.280794133398e+00 
       5.284436902701e-02       2.110087341396e+00 
       5.689644391095e-02       2.003542503028e+00 
       6.051252627066e-02       1.923056653230e+00 
       6.388413457411e-02       1.852735057712e+00 
       6.711249296401e-02       1.784563632219e+00 
       7.025823437965e-02       1.714277062220e+00 
       7.336115587705e-02       1.639813086966e+00 
       7.644928796912e-02       1.560665299288e+00 
       7.954353299775e-02       1.477455588112e+00 
       8.266024078725e-02       1.391694145835e+00 
       8.581273398637e-02       1.305462568898e+00 
       8.901225918437e-02       1.221125402349e+00 
       9.226860540985e-02       1.141082125847e+00 
       9.559052048996e-02       1.067452514877e+00 
       9.898599946599e-02       1.001892160497e+00 
       1.024624891378e-01       9.453794053843e-01 
       1.060270359164e-01       8.981507252698e-01 
       1.096863943056e-01       8.596150313333e-01 
       1.134471073830e-01       8.284052353750e-01 
       1.173155669539e-01       8.024653706166e-01 
       1.212980586983e-01       7.792276827665e-01 
       1.254007961065e-01       7.559171126476e-01 
       1.296299459934e-01       7.299806197014e-01 
       1.339916477160e-01       6.995916629163e-01 
       1.384920277736e-01       6.640783514912e-01 
       1.431372111762e-01       6.241459907639e-01 
       1.479333307714e-01       5.817630485977e-01 
       1.528865355934e-01       5.396931762183e-01 
       1.580029992204e-01       5.008127207001e-01 
       1.632889290723e-01       4.673994213127e-01 
       1.687505775527e-01       4.405342411203e-01 
       1.743942559171e-01       4.198659042722e-01 
       1.802263517371e-01       4.036590531434e-01 
       1.862533508214e-01       3.893597715457e-01 
       1.924818644494e-01       3.741346602916e-01 
       1.989186627765e-01       3.558020329685e-01 
       2.055707152847e-01       3.340002010262e-01 
       2.124452391818e-01       3.102660947566e-01 
       2.195497567139e-01       2.871222578886e-01 
       2.268921624510e-01       2.668083268338e-01 
       2.344808017550e-01       2.504828759866e-01 
       2.423245618548e-01       2.378339106733e-01 
       2.504329772620e-01       2.271116756980e-01 
       2.588163516754e-01       2.161183758293e-01 
       2.674858990930e-01       2.035460377109e-01 
       2.764539076010e-01       1.895985158800e-01 
       2.857339303080e-01       1.757568405529e-01 
       2.953410092148e-01       1.636993671109e-01 
       3.052919395542e-01       1.539062283817e-01 
       3.156055844677e-01       1.455314539109e-01 
       3.263032530092e-01       1.372501401182e-01 
       3.374091587054e-01       1.283017387799e-01 
       3.489509817175e-01       1.191709756013e-01 
       3.609605657343e-01       1.108071737055e-01 
       3.734747921333e-01       1.036451230891e-01 
       3.865366902904e-01       9.714133894173e-02 
       4.001968667448e-01       9.061549270519e-02 
       4.145153713076e-01       8.403681363298e-02 
       4.295641718077e-01       7.789109956172e-02 
       4.454304922144e-01       7.234163996034e-02 
       4.622214006969e-01       6.709367407947e-02 
       4.800702491654e-01       6.189175885961e-02 
       4.991459272112e-01       5.692641949659e-02 
       5.196665217302e-01       5.231625228948e-02 
       5.419201087032e-01       4.783263385472e-02 
       5.662975451962e-01       4.348686996843e-02 
       5.933463737275e-01       3.933099975234e-02 
       6.238638458458e-01       3.525346236105e-02 
       6.590669257916e-01       3.126286469678e-02 
       7.009246080454e-01       2.728721202745e-02 
       7.528593308799e-01       2.327841435124e-02 
       8.213469537518e-01       1.914822380949e-02 
       9.196980813302e-01       1.481701604393e-02 
       1.075112183810e+00       1.035089715021e-02 
       1.322697471132e+00       6.379445491854e-03 
       1.662328205042e+00       3.705651458671e-03 
       2.092692408506e+00       2.124525562527e-03 
       2.634543445090e+00       1.207952396002e-03 
       3.316693691389e+00       6.816936459821e-04 
       4.175469971226e+00       3.821007019946e-04 
       5.256605252960e+00       2.128498366981e-04 
       6.617673932723e+00       1.178942054270e-04 
       8.331157880872e+00       6.495505501436e-05 
       1.048830636590e+01       3.560810810115e-05 
       1.320399541071e+01       1.942314454476e-05 
       1.662284535976e+01       1.053862831015e-05 
       2.092692243973e+01       5.681176276910e-06 
       2.634543445002e+01       3.034712258559e-06 
       3.316693691389e+01       1.597046146868e-06 
       4.175469971226e+01       8.182492929638e-07 
       5.256605252960e+01       3.985442975074e-07 
       6.617673932723e+01       1.758492298381e-07 
