# Matter power spectrum P(k) at redshift z=99
# for k=1.04775e-05 to 66.1767 h/Mpc,
# number of wavenumbers equal to 130
#    1:k (h/Mpc)              2:P (Mpc/h)^3        
       1.047750691046e-05       7.261927680862e-03 
       1.319039970183e-05       9.069258201849e-03 
       1.660572937635e-05       1.132639106725e-02 
       2.090537469327e-05       1.414527123399e-02 
       2.631830744443e-05       1.766569584058e-02 
       3.313278603720e-05       2.206225515942e-02 
       4.171170630578e-05       2.755297766277e-02 
       5.251192703764e-05       3.441013522947e-02 
       6.610859936996e-05       4.297372172778e-02 
       8.322579568497e-05       5.366826852944e-02 
       1.047750691046e-04       6.702379872775e-02 
       1.319039970183e-04       8.370193441286e-02 
       1.660572937635e-04       1.045283355384e-01 
       2.090537469327e-04       1.305329134104e-01 
       2.631830744443e-04       1.629994506605e-01 
       3.313278603720e-04       2.035264004601e-01 
       4.171170630578e-04       2.541004744243e-01 
       5.251192703764e-04       3.171839528557e-01 
       6.610859936996e-04       3.958147256514e-01 
       8.322579568497e-04       4.937136006280e-01 
       1.047750691046e-03       6.153841636042e-01 
       1.319039970183e-03       7.661720592290e-01 
       1.660572937635e-03       9.522588016470e-01 
       2.090537469327e-03       1.180312991698e+00 
       2.631830744443e-03       1.456802684686e+00 
       3.313278603720e-03       1.786503854040e+00 
       4.171170630578e-03       2.169896195307e+00 
       5.251192703764e-03       2.599430630717e+00 
       6.610859936996e-03       3.055668702337e+00 
       8.322579568497e-03       3.505725598704e+00 
       1.047750691046e-02       3.905490383164e+00 
       1.319039970183e-02       4.200915320872e+00 
       1.660572937633e-02       4.325062241206e+00 
       2.090537453514e-02       4.210203406770e+00 
       2.631818545635e-02       3.825153515090e+00 
       3.311571692125e-02       3.229058650791e+00 
       4.113809243311e-02       2.627730662095e+00 
       4.792590854610e-02       2.280798052867e+00 
       5.284436902701e-02       2.110085249712e+00 
       5.689644391095e-02       2.003539884512e+00 
       6.051252627066e-02       1.923058138863e+00 
       6.388413457411e-02       1.852731732921e+00 
       6.711249296401e-02       1.784558895901e+00 
       7.025823437965e-02       1.714277453443e+00 
       7.336115587705e-02       1.639816850805e+00 
       7.644928796912e-02       1.560663391779e+00 
       7.954353299775e-02       1.477458158017e+00 
       8.266024078725e-02       1.391696361489e+00 
       8.581273398637e-02       1.305461228544e+00 
       8.901225918437e-02       1.221124930874e+00 
       9.226860540985e-02       1.141080450142e+00 
       9.559052048996e-02       1.067453792263e+00 
       9.898599946599e-02       1.001893088947e+00 
       1.024624891378e-01       9.453817243455e-01 
       1.060270359164e-01       8.981496012772e-01 
       1.096863943056e-01       8.596135304901e-01 
       1.134471073830e-01       8.284065210440e-01 
       1.173155669539e-01       8.024671613604e-01 
       1.212980586983e-01       7.792297604407e-01 
       1.254007961065e-01       7.559173817537e-01 
       1.296299459934e-01       7.299829623418e-01 
       1.339916477160e-01       6.995929860622e-01 
       1.384920277736e-01       6.640779470764e-01 
       1.431372111762e-01       6.241467371665e-01 
       1.479333307714e-01       5.817628573118e-01 
       1.528865355934e-01       5.396935713337e-01 
       1.580029992204e-01       5.008140985601e-01 
       1.632889290723e-01       4.673987800054e-01 
       1.687505775527e-01       4.405341369285e-01 
       1.743942559171e-01       4.198651761870e-01 
       1.802263517371e-01       4.036605816042e-01 
       1.862533508214e-01       3.893599280739e-01 
       1.924818644494e-01       3.741348388403e-01 
       1.989186627765e-01       3.558019539636e-01 
       2.055707152847e-01       3.339987212018e-01 
       2.124452391818e-01       3.102646781420e-01 
       2.195497567139e-01       2.871229515753e-01 
       2.268921624510e-01       2.668081339905e-01 
       2.344808017550e-01       2.504833363581e-01 
       2.423245618548e-01       2.378332074280e-01 
       2.504329772620e-01       2.271116547328e-01 
       2.588163516754e-01       2.161174021992e-01 
       2.674858990930e-01       2.035454210303e-01 
       2.764539076010e-01       1.895978842803e-01 
       2.857339303080e-01       1.757569491706e-01 
       2.953410092148e-01       1.636991863256e-01 
       3.052919395542e-01       1.539065241328e-01 
       3.156055844677e-01       1.455311215554e-01 
       3.263032530092e-01       1.372498212131e-01 
       3.374091587054e-01       1.283018263636e-01 
       3.489509817175e-01       1.191712817537e-01 
       3.609605657343e-01       1.108074276262e-01 
       3.734747921333e-01       1.036448372847e-01 
       3.865366902904e-01       9.714123964908e-02 
       4.001968667448e-01       9.061544437939e-02 
       4.145153713076e-01       8.403706820938e-02 
       4.295641718077e-01       7.789118060133e-02 
       4.454304922144e-01       7.234163548888e-02 
       4.622214006969e-01       6.709355089771e-02 
       4.800702491654e-01       6.189182556528e-02 
       4.991459272112e-01       5.692625066528e-02 
       5.196665217302e-01       5.231594513306e-02 
       5.419201087032e-01       4.783240314057e-02 
       5.662975451962e-01       4.348671225471e-02 
       5.933463737275e-01       3.933095457743e-02 
       6.238638458458e-01       3.525321930207e-02 
       6.590669257916e-01       3.126271518003e-02 
       7.009246080454e-01       2.728720230632e-02 
       7.528593308799e-01       2.327825680360e-02 
       8.213469537518e-01       1.914799962217e-02 
       9.196980813302e-01       1.481678468453e-02 
       1.075112183810e+00       1.035065826272e-02 
       1.322697471132e+00       6.379186565732e-03 
       1.662328205042e+00       3.705365942783e-03 
       2.092692408506e+00       2.124233124570e-03 
       2.634543445090e+00       1.207635675370e-03 
       3.316693691389e+00       6.813734987094e-04 
       4.175469971226e+00       3.817732522799e-04 
       5.256605252960e+00       2.125178032474e-04 
       6.617673932723e+00       1.175601388304e-04 
       8.331157880872e+00       6.462128269021e-05 
       1.048830636590e+01       3.527758538659e-05 
       1.320399541071e+01       1.909933356596e-05 
       1.662284535976e+01       1.022532402499e-05 
       2.092692243973e+01       5.383501848253e-06 
       2.634543445002e+01       2.759096459243e-06 
       3.316693691389e+01       1.351431011353e-06 
       4.175469971226e+01       6.116908028422e-07 
       5.256605252960e+01       2.399496326662e-07 
       6.617673932723e+01       7.095314509555e-08 
