# Matter power spectrum P(k) at redshift z=0
# for k=1.04775e-05 to 67.6233 h/Mpc,
# number of wavenumbers equal to 246
#    1:k (h/Mpc)              2:P (Mpc/h)^3        
       1.047750691046e-05       5.020964811308e+01 
       1.131335172503e-05       5.407050701928e+01 
       1.221587619537e-05       5.822819068639e+01 
       1.319039970183e-05       6.270562594775e+01 
       1.424266597921e-05       6.752732240880e+01 
       1.537887696968e-05       7.271977206173e+01 
       1.660572937635e-05       7.831147247912e+01 
       1.793045413292e-05       8.433311821988e+01 
       1.936085902198e-05       9.081778249833e+01 
       2.090537469327e-05       9.780108069298e+01 
       2.257310435294e-05       1.053213197893e+02 
       2.437387741694e-05       1.134197377890e+02 
       2.631830744443e-05       1.221408203809e+02 
       2.841785469300e-05       1.315324642462e+02 
       3.068489366414e-05       1.416462094881e+02 
       3.313278603720e-05       1.525374501932e+02 
       3.577595942169e-05       1.642660688414e+02 
       3.862999239199e-05       1.768963506307e+02 
       4.171170630578e-05       1.904975994010e+02 
       4.503926444729e-05       2.051444491973e+02 
       4.863227907969e-05       2.209171465549e+02 
       5.251192703764e-05       2.379022224249e+02 
       5.670107454120e-05       2.561927927552e+02 
       6.122441196689e-05       2.758890444040e+02 
       6.610859936996e-05       2.970989227882e+02 
       7.138242361596e-05       3.199385560802e+02 
       7.707696804727e-05       3.445329783680e+02 
       8.322579568497e-05       3.710167318946e+02 
       8.986514704559e-05       3.995346444203e+02 
       9.703415373875e-05       4.302425407383e+02 
       1.047750691046e-04       4.633080766742e+02 
       1.131335172503e-04       4.989116271564e+02 
       1.221587619537e-04       5.372471950929e+02 
       1.319039970183e-04       5.785234129336e+02 
       1.424266597921e-04       6.229645934871e+02 
       1.537887696968e-04       6.708118490405e+02 
       1.660572937635e-04       7.223242666091e+02 
       1.793045413292e-04       7.777801558971e+02 
       1.936085902198e-04       8.374783614139e+02 
       2.090537469327e-04       9.017396271822e+02 
       2.257310435294e-04       9.709080268039e+02 
       2.437387741694e-04       1.045352449493e+03 
       2.631830744443e-04       1.125468123750e+03 
       2.841785469300e-04       1.211678180494e+03 
       3.068489366414e-04       1.304435250150e+03 
       3.313278603720e-04       1.404223053680e+03 
       3.577595942169e-04       1.511558014616e+03 
       3.862999239199e-04       1.626990837813e+03 
       4.171170630578e-04       1.751108028789e+03 
       4.503926444729e-04       1.884533382870e+03 
       4.863227907969e-04       2.027929378109e+03 
       5.251192703764e-04       2.181998448131e+03 
       5.670107454121e-04       2.347484102752e+03 
       6.122441196689e-04       2.525171871363e+03 
       6.610859936996e-04       2.715889983589e+03 
       7.138242361596e-04       2.920509688380e+03 
       7.707696804727e-04       3.139945100273e+03 
       8.322579568497e-04       3.375152337576e+03 
       8.986514704559e-04       3.627127831130e+03 
       9.703415373875e-04       3.896905453123e+03 
       1.047750691046e-03       4.185552174314e+03 
       1.131335172503e-03       4.494162430352e+03 
       1.221587619537e-03       4.823850706468e+03 
       1.319039970183e-03       5.175742738950e+03 
       1.424266597921e-03       5.551019596892e+03 
       1.537887696968e-03       5.950788340506e+03 
       1.660572937635e-03       6.376123051690e+03 
       1.793045413292e-03       6.828073901362e+03 
       1.936085902198e-03       7.307625380950e+03 
       2.090537469327e-03       7.815671911078e+03 
       2.257310435294e-03       8.352990375623e+03 
       2.437387741694e-03       8.920211064123e+03 
       2.631830744443e-03       9.517783068803e+03 
       2.841785469300e-03       1.014593704396e+04 
       3.068489366414e-03       1.080464502729e+04 
       3.313278603720e-03       1.149357460283e+04 
       3.577595942169e-03       1.221203621642e+04 
       3.862999239199e-03       1.295892539346e+04 
       4.171170630578e-03       1.373266009586e+04 
       4.503926444729e-03       1.453111835467e+04 
       4.863227907969e-03       1.535154979648e+04 
       5.251192703764e-03       1.619063581023e+04 
       5.670107454120e-03       1.704431255828e+04 
       6.122441196689e-03       1.790755958918e+04 
       6.610859936996e-03       1.877460429105e+04 
       7.138242361596e-03       1.963872491297e+04 
       7.707696804727e-03       2.049215709902e+04 
       8.322579568496e-03       2.132611385833e+04 
       8.986514704559e-03       2.213054973471e+04 
       9.703415373875e-03       2.289445659715e+04 
       1.047750691046e-02       2.360548049479e+04 
       1.131335172503e-02       2.425022339016e+04 
       1.221587619537e-02       2.481423848251e+04 
       1.319039970183e-02       2.528219874806e+04 
       1.424266597920e-02       2.563814469467e+04 
       1.537887696964e-02       2.586608748450e+04 
       1.660572937560e-02       2.595032798169e+04 
       1.793045412207e-02       2.587640377427e+04 
       1.936085889642e-02       2.563230692731e+04 
       2.090537351881e-02       2.520934939179e+04 
       2.257309534705e-02       2.460443017231e+04 
       2.437382002240e-02       2.382086448039e+04 
       2.631799943729e-02       2.287036651244e+04 
       2.841644544598e-02       2.177446559040e+04 
       3.067933354524e-02       2.056559744707e+04 
       3.311368469821e-02       1.928727820839e+04 
       3.571840442514e-02       1.799396404114e+04 
       3.847720347390e-02       1.674675047289e+04 
       4.135335537314e-02       1.560452757346e+04 
       4.429361666563e-02       1.461035236735e+04 
       4.724366437916e-02       1.378046381479e+04 
       5.016480834039e-02       1.310493125213e+04 
       5.303989618930e-02       1.255712647724e+04 
       5.586870668205e-02       1.210426077422e+04 
       5.866042679206e-02       1.171467905112e+04 
       6.142798931504e-02       1.136020945247e+04 
       6.418496438662e-02       1.101858949324e+04 
       6.694418832236e-02       1.067065913281e+04 
       6.971731104453e-02       1.030339075282e+04 
       7.251476154108e-02       9.909067646120e+03 
       7.534587669814e-02       9.483667168983e+03 
       7.821907664495e-02       9.029337497492e+03 
       8.114203771084e-02       8.552146064446e+03 
       8.412184533139e-02       8.061946238217e+03 
       8.716512277352e-02       7.570764147064e+03 
       9.027813693913e-02       7.092500279940e+03 
       9.346688429613e-02       6.640518096938e+03 
       9.673716026122e-02       6.226741745133e+03 
       1.000946150608e-01       5.859941327562e+03 
       1.035447986307e-01       5.545281375349e+03 
       1.070931966524e-01       5.283165522060e+03 
       1.107452594180e-01       5.069461007630e+03 
       1.145064248899e-01       4.895259210528e+03 
       1.183821370656e-01       4.747847896008e+03 
       1.223778605591e-01       4.611730649460e+03 
       1.264990921707e-01       4.470618919583e+03 
       1.307513701078e-01       4.310287334819e+03 
       1.351402814485e-01       4.121397453554e+03 
       1.396714683894e-01       3.902059403756e+03 
       1.443506337875e-01       3.658653226822e+03 
       1.491835464900e-01       3.404475961294e+03 
       1.541760469368e-01       3.156641083981e+03 
       1.593340535209e-01       2.931930523565e+03 
       1.646635701934e-01       2.742347807588e+03 
       1.701706958081e-01       2.592239402668e+03 
       1.758616357070e-01       2.477211708376e+03 
       1.817427160581e-01       2.385158859027e+03 
       1.878204014651e-01       2.300347301556e+03 
       1.941013163855e-01       2.205768917315e+03 
       2.005922709060e-01       2.090842109390e+03 
       2.073002914514e-01       1.956464079330e+03 
       2.142326570343e-01       1.814172942772e+03 
       2.213969417044e-01       1.679271250387e+03 
       2.288010639201e-01       1.563843316155e+03 
       2.364533436625e-01       1.472672853525e+03 
       2.443625682390e-01       1.401511367907e+03 
       2.525380678946e-01       1.338417994199e+03 
       2.609898025770e-01       1.270899773998e+03 
       2.697284614969e-01       1.193356555091e+03 
       2.787655775073e-01       1.109331822371e+03 
       2.881136588192e-01       1.028765631850e+03 
       2.977863412019e-01       9.604744766338e+02 
       3.077985646248e-01       9.050152298956e+02 
       3.181667793367e-01       8.561357885067e+02 
       3.289091877084e-01       8.061779150085e+02 
       3.400460298905e-01       7.523801014004e+02 
       3.515999235695e-01       6.989142576254e+02 
       3.635962710278e-01       6.510561538106e+02 
       3.760637505499e-01       6.101150750956e+02 
       3.890349143014e-01       5.721250792756e+02 
       4.025469215929e-01       5.337744651116e+02 
       4.166424455447e-01       4.956186489800e+02 
       4.313708034899e-01       4.604621675067e+02 
       4.467893781976e-01       4.287676194557e+02 
       4.629654198623e-01       3.987656407071e+02 
       4.799783500912e-01       3.692326591522e+02 
       4.979227318246e-01       3.412344569681e+02 
       5.169121269689e-01       3.154753167361e+02 
       5.370841403262e-01       2.908266727949e+02 
       5.586070463286e-01       2.670984139171e+02 
       5.816885093582e-01       2.448011433643e+02 
       6.065870143577e-01       2.235630430209e+02 
       6.336266466978e-01       2.032056961891e+02 
       6.632156057925e-01       1.838740396332e+02 
       6.958678637575e-01       1.653496580697e+02 
       7.322247983784e-01       1.476908193693e+02 
       7.730680193171e-01       1.308295463383e+02 
       8.193049551574e-01       1.148271350231e+02 
       8.718988013754e-01       9.975856323002e+01 
       9.317218028590e-01       8.577323703100e+01 
       9.993660906273e-01       7.305013708059e+01 
       1.075037109879e+00       6.173154981346e+01 
       1.158653485387e+00       5.187465950615e+01 
       1.250099156961e+00       4.343591516721e+01 
       1.349432400897e+00       3.628500885547e+01 
       1.456947456991e+00       3.026361412733e+01 
       1.573135110893e+00       2.521032279604e+01 
       1.698621895119e+00       2.097772371543e+01 
       1.834127512423e+00       1.743802386155e+01 
       1.980444933977e+00       1.448145994313e+01 
       2.138435191130e+00       1.201464185561e+01 
       2.309029198543e+00       9.958952332687e+00 
       2.493232376993e+00       8.247665555770e+00 
       2.692130394536e+00       6.824431293750e+00 
       2.906895533764e+00       5.642130876015e+00 
       3.138793596840e+00       4.660789518434e+00 
       3.389191365541e+00       3.847104474891e+00 
       3.659564656886e+00       3.172976341690e+00 
       3.951507021438e+00       2.614962275110e+00 
       4.266739135513e+00       2.153485740735e+00 
       4.607118942658e+00       1.772115942230e+00 
       4.974652604172e+00       1.457254249496e+00 
       5.371506323193e+00       1.197449588492e+00 
       5.800019112071e+00       9.832685052959e-01 
       6.262716578240e+00       8.068086951684e-01 
       6.762325809881e+00       6.615284322245e-01 
       7.301791449077e+00       5.420201774696e-01 
       7.884293047211e+00       4.437623742829e-01 
       8.513263804891e+00       3.630365205144e-01 
       9.192410806865e+00       2.967546067825e-01 
       9.925736871166e+00       2.423669019127e-01 
       1.071756414128e+01       1.977712184921e-01 
       1.157255956041e+01       1.612245899350e-01 
       1.249576237789e+01       1.312940054132e-01 
       1.349261385000e+01       1.067975405625e-01 
       1.456898931011e+01       8.676223977236e-02 
       1.573123279727e+01       7.038567648491e-02 
       1.698619444729e+01       5.701033248880e-02 
       1.834127086665e+01       4.609280038467e-02 
       1.980444872733e+01       3.718927272069e-02 
       2.138435183937e+01       2.993450190032e-02 
       2.309029197863e+01       2.402840140996e-02 
       2.493232376942e+01       1.922586157637e-02 
       2.692130394533e+01       1.532545044209e-02 
       2.906895533764e+01       1.216244194500e-02 
       3.138793596840e+01       9.602015238310e-03 
       3.389191365541e+01       7.533634020267e-03 
       3.659564656886e+01       5.867232635216e-03 
       3.951507021438e+01       4.529370779280e-03 
       4.266739135513e+01       3.459582862110e-03 
       4.607118942658e+01       2.608793032862e-03 
       4.974652604172e+01       1.936829468024e-03 
       5.371506323193e+01       1.410802840482e-03 
       5.800019112071e+01       1.003824069762e-03 
       6.262716578240e+01       6.936357405518e-04 
       6.762325809881e+01       4.619313270687e-04 
