# Matter power spectrum P(k) at redshift z=0
# for k=1.04775e-05 to 67.6233 h/Mpc,
# number of wavenumbers equal to 246
#    1:k (h/Mpc)              2:P (Mpc/h)^3        
       1.047750691046e-05       5.020964811346e+01 
       1.131335172503e-05       5.407050701964e+01 
       1.221587619537e-05       5.822819073341e+01 
       1.319039970183e-05       6.270562595893e+01 
       1.424266597921e-05       6.752732240880e+01 
       1.537887696968e-05       7.271977206170e+01 
       1.660572937635e-05       7.831147247922e+01 
       1.793045413292e-05       8.433311821987e+01 
       1.936085902198e-05       9.081778249831e+01 
       2.090537469327e-05       9.780108069599e+01 
       2.257310435294e-05       1.053213197893e+02 
       2.437387741694e-05       1.134197377886e+02 
       2.631830744443e-05       1.221408204006e+02 
       2.841785469300e-05       1.315324643633e+02 
       3.068489366414e-05       1.416462094603e+02 
       3.313278603720e-05       1.525374501933e+02 
       3.577595942169e-05       1.642660688409e+02 
       3.862999239199e-05       1.768963506307e+02 
       4.171170630578e-05       1.904975993955e+02 
       4.503926444729e-05       2.051444491966e+02 
       4.863227907969e-05       2.209171465547e+02 
       5.251192703764e-05       2.379022224227e+02 
       5.670107454120e-05       2.561927861059e+02 
       6.122441196689e-05       2.758890443968e+02 
       6.610859936996e-05       2.970989227920e+02 
       7.138242361596e-05       3.199385560802e+02 
       7.707696804727e-05       3.445329783682e+02 
       8.322579568497e-05       3.710167318946e+02 
       8.986514704559e-05       3.995346450766e+02 
       9.703415373875e-05       4.302425407200e+02 
       1.047750691046e-04       4.633080766734e+02 
       1.131335172503e-04       4.989116277333e+02 
       1.221587619537e-04       5.372471950938e+02 
       1.319039970183e-04       5.785234080771e+02 
       1.424266597921e-04       6.229645936045e+02 
       1.537887696968e-04       6.708118490405e+02 
       1.660572937635e-04       7.223242666090e+02 
       1.793045413292e-04       7.777801563559e+02 
       1.936085902198e-04       8.374783614135e+02 
       2.090537469327e-04       9.017396271823e+02 
       2.257310435294e-04       9.709080268038e+02 
       2.437387741694e-04       1.045352449493e+03 
       2.631830744443e-04       1.125468123754e+03 
       2.841785469300e-04       1.211678180492e+03 
       3.068489366414e-04       1.304435250148e+03 
       3.313278603720e-04       1.404223053680e+03 
       3.577595942169e-04       1.511558014615e+03 
       3.862999239199e-04       1.626990837857e+03 
       4.171170630578e-04       1.751108028787e+03 
       4.503926444729e-04       1.884533382865e+03 
       4.863227907969e-04       2.027929378110e+03 
       5.251192703764e-04       2.181998448128e+03 
       5.670107454121e-04       2.347484102746e+03 
       6.122441196689e-04       2.525171871352e+03 
       6.610859936996e-04       2.715889983583e+03 
       7.138242361596e-04       2.920509688358e+03 
       7.707696804727e-04       3.139945100257e+03 
       8.322579568497e-04       3.375152337558e+03 
       8.986514704559e-04       3.627127831111e+03 
       9.703415373875e-04       3.896905453081e+03 
       1.047750691046e-03       4.185552174241e+03 
       1.131335172503e-03       4.494162430267e+03 
       1.221587619537e-03       4.823850706346e+03 
       1.319039970183e-03       5.175742742774e+03 
       1.424266597921e-03       5.551019596599e+03 
       1.537887696968e-03       5.950788340103e+03 
       1.660572937635e-03       6.376123050974e+03 
       1.793045413292e-03       6.828073900274e+03 
       1.936085902198e-03       7.307625379278e+03 
       2.090537469327e-03       7.815671858143e+03 
       2.257310435294e-03       8.352990371612e+03 
       2.437387741694e-03       8.920211057918e+03 
       2.631830744443e-03       9.517783059323e+03 
       2.841785469300e-03       1.014593702950e+04 
       3.068489366414e-03       1.080464500630e+04 
       3.313278603720e-03       1.149357456956e+04 
       3.577595942169e-03       1.221203616635e+04 
       3.862999239199e-03       1.295892531826e+04 
       4.171170630578e-03       1.373266024760e+04 
       4.503926444729e-03       1.453111818692e+04 
       4.863227907969e-03       1.535154954552e+04 
       5.251192703764e-03       1.619063543643e+04 
       5.670107454120e-03       1.704431201785e+04 
       6.122441196689e-03       1.790755872510e+04 
       6.610859936996e-03       1.877460314708e+04 
       7.138242361596e-03       1.963872311286e+04 
       7.707696804727e-03       2.049215463811e+04 
       8.322579568496e-03       2.132610796975e+04 
       8.986514704559e-03       2.213054649990e+04 
       9.703415373875e-03       2.289444839474e+04 
       1.047750691046e-02       2.360547253980e+04 
       1.131335172503e-02       2.425022182544e+04 
       1.221587619537e-02       2.481421446594e+04 
       1.319039970183e-02       2.528217365887e+04 
       1.424266597920e-02       2.563810315226e+04 
       1.537887696964e-02       2.586600402885e+04 
       1.660572937560e-02       2.595016999647e+04 
       1.793045412207e-02       2.587621446793e+04 
       1.936085889642e-02       2.563201715403e+04 
       2.090537351881e-02       2.520914016405e+04 
       2.257309534705e-02       2.460418109806e+04 
       2.437382002240e-02       2.382047212650e+04 
       2.631799943729e-02       2.286996950225e+04 
       2.841644544598e-02       2.177388031109e+04 
       3.067933354524e-02       2.056476871951e+04 
       3.311368469821e-02       1.928634138360e+04 
       3.571840442514e-02       1.799280752010e+04 
       3.847720347390e-02       1.674535713289e+04 
       4.135335537314e-02       1.560281674711e+04 
       4.429361666563e-02       1.460832024976e+04 
       4.724366437916e-02       1.377807563643e+04 
       5.016480834039e-02       1.310228030457e+04 
       5.303989618930e-02       1.255396995830e+04 
       5.586870668205e-02       1.210066205153e+04 
       5.866042679206e-02       1.171062426329e+04 
       6.142798931504e-02       1.135599594419e+04 
       6.418496438662e-02       1.101359968984e+04 
       6.694418832236e-02       1.066525052442e+04 
       6.971731104453e-02       1.029759123808e+04 
       7.251476154108e-02       9.902490718436e+03 
       7.534587669814e-02       9.476668999683e+03 
       7.821907664495e-02       9.021798609954e+03 
       8.114203771084e-02       8.544008118142e+03 
       8.412184533139e-02       8.052979510763e+03 
       8.716512277352e-02       7.561199285925e+03 
       9.027813693913e-02       7.082254816434e+03 
       9.346688429613e-02       6.629616374229e+03 
       9.673716026122e-02       6.215095370516e+03 
       1.000946150608e-01       5.847642126006e+03 
       1.035447986307e-01       5.532159157702e+03 
       1.070931966524e-01       5.269221681376e+03 
       1.107452594180e-01       5.054614659297e+03 
       1.145064248899e-01       4.879478166310e+03 
       1.183821370656e-01       4.731052485392e+03 
       1.223778605591e-01       4.593850485439e+03 
       1.264990921707e-01       4.451564869100e+03 
       1.307513701078e-01       4.290019801373e+03 
       1.351402814485e-01       4.099952774188e+03 
       1.396714683894e-01       3.879427362323e+03 
       1.443506337875e-01       3.634825642511e+03 
       1.491835464900e-01       3.379518305229e+03 
       1.541760469368e-01       3.130547132770e+03 
       1.593340535209e-01       2.904653631018e+03 
       1.646635701934e-01       2.713743525073e+03 
       1.701706958081e-01       2.562183225617e+03 
       1.758616357070e-01       2.445530208917e+03 
       1.817427160581e-01       2.351703489719e+03 
       1.878204014651e-01       2.265002303642e+03 
       1.941013163855e-01       2.168525854501e+03 
       2.005922709060e-01       2.051792785338e+03 
       2.073002914514e-01       1.915786721921e+03 
       2.142326570343e-01       1.771951511781e+03 
       2.213969417044e-01       1.635481310515e+03 
       2.288010639201e-01       1.518314771945e+03 
       2.364533436625e-01       1.425202176507e+03 
       2.443625682390e-01       1.351818629168e+03 
       2.525380678946e-01       1.286388410020e+03 
       2.609898025770e-01       1.216609721194e+03 
       2.697284614969e-01       1.137030444895e+03 
       2.787655775073e-01       1.051120171459e+03 
       2.881136588192e-01       9.687098671916e+02 
       2.977863412019e-01       8.983680880429e+02 
       3.077985646248e-01       8.405985865531e+02 
       3.181667793367e-01       7.892671882018e+02 
       3.289091877084e-01       7.369773549640e+02 
       3.400460298905e-01       6.810977080536e+02 
       3.515999235695e-01       6.256766656565e+02 
       3.635962710278e-01       5.757619850308e+02 
       3.760637505499e-01       5.325576657408e+02 
       3.890349143014e-01       4.922928107336e+02 
       4.025469215929e-01       4.518649595855e+02 
       4.166424455447e-01       4.118328010562e+02 
       4.313708034899e-01       3.747825045367e+02 
       4.467893781976e-01       3.411378635972e+02 
       4.629654198623e-01       3.092759828834e+02 
       4.799783500912e-01       2.781274192638e+02 
       4.979227318246e-01       2.486425717979e+02 
       5.169121269689e-01       2.214516524894e+02 
       5.370841403262e-01       1.955886411697e+02 
       5.586070463286e-01       1.709195552469e+02 
       5.816885093582e-01       1.478941666759e+02 
       6.065870143577e-01       1.262442204942e+02 
       6.336266466978e-01       1.058868964551e+02 
       6.632156057925e-01       8.699129503149e+01 
       6.958678637575e-01       6.949025037896e+01 
       7.322247983784e-01       5.354006620048e+01 
       7.730680193171e-01       3.925265253425e+01 
       8.193049551574e-01       2.685714523214e+01 
       8.718988013754e-01       1.660925184697e+01 
       9.317218028590e-01       8.772342800962e+00 
       9.993660906273e-01       3.498942142853e+00 
       1.075037109879e+00       7.044270941881e-01 
       1.158653485387e+00       8.427771289936e-03 
       1.250099156961e+00       7.868544803841e-01 
       1.349432400897e+00       2.308010288393e+00 
       1.456947456991e+00       3.877818824793e+00 
       1.573135110893e+00       4.956944996145e+00 
       1.698621895119e+00       5.243014571178e+00 
       1.834127512423e+00       4.705847575763e+00 
       1.980444933977e+00       3.565455501048e+00 
       2.138435191130e+00       2.200493154849e+00 
       2.309029198543e+00       1.008217410637e+00 
       2.493232376993e+00       2.585638946473e-01 
       2.692130394536e+00       3.275779573980e-03 
       2.906895533764e+00       8.711303007658e-02 
       3.138793596840e+00       2.601228891012e-01 
       3.389191365541e+00       3.285659713171e-01 
       3.659564656886e+00       2.497833836932e-01 
       3.951507021438e+00       1.104283945322e-01 
       4.266739135513e+00       1.721754283747e-02 
       4.607118942658e+00       1.725776140606e-03 
       4.974652604172e+00       1.994249371955e-02 
       5.371506323193e+00       2.384375440702e-02 
       5.800019112071e+00       1.034785615012e-02 
       6.262716578240e+00       6.697948856420e-04 
       6.762325809881e+00       9.242992735356e-04 
       7.301791449077e+00       2.081130073136e-03 
       7.884293047211e+00       7.358764097271e-04 
       8.513263804891e+00       4.272111991351e-08 
       9.192410806865e+00       1.749658672011e-04 
       9.925736871166e+00       8.952366511781e-05 
       1.071756414128e+01       1.309895983952e-09 
       1.157255956041e+01       1.555909889831e-05 
       1.249576237789e+01       2.474948142346e-06 
       1.349261385000e+01       1.083226333566e-06 
       1.456898931011e+01       7.195492086557e-07 
       1.573123279727e+01       2.849507851668e-08 
       1.698619444729e+01       3.585649573608e-08 
       1.834127086665e+01       1.592991276987e-08 
       1.980444872733e+01       7.215634727815e-09 
       2.138435183937e+01       1.042985849658e-11 
       2.309029197863e+01       9.542510296432e-10 
       2.493232376942e+01       9.380559272007e-10 
       2.692130394533e+01       3.662856548572e-10 
       2.906895533764e+01       3.738950652879e-10 
       3.138793596840e+01       2.461876482685e-10 
       3.389191365541e+01       1.770619409589e-10 
       3.659564656886e+01       1.272759241787e-10 
       3.951507021438e+01       9.057765833828e-11 
       4.266739135513e+01       6.312947511019e-11 
       4.607118942658e+01       4.425462881394e-11 
       4.974652604172e+01       3.151689732969e-11 
       5.371506323193e+01       2.196905270815e-11 
       5.800019112071e+01       1.470112846052e-11 
       6.262716578240e+01       1.014128476071e-11 
       6.762325809881e+01       6.716594121392e-12 
