# Matter power spectrum P(k) at redshift z=99
# for k=1.04775e-05 to 66.1767 h/Mpc,
# number of wavenumbers equal to 130
#    1:k (h/Mpc)              2:P (Mpc/h)^3        
       1.047750691046e-05       7.261927680862e-03 
       1.319039970183e-05       9.069258201849e-03 
       1.660572937635e-05       1.132639106725e-02 
       2.090537469327e-05       1.414527123399e-02 
       2.631830744443e-05       1.766569584058e-02 
       3.313278603720e-05       2.206225515942e-02 
       4.171170630578e-05       2.755297766277e-02 
       5.251192703764e-05       3.441013522947e-02 
       6.610859936996e-05       4.297372172778e-02 
       8.322579568497e-05       5.366826852944e-02 
       1.047750691046e-04       6.702379872774e-02 
       1.319039970183e-04       8.370193441286e-02 
       1.660572937635e-04       1.045283355384e-01 
       2.090537469327e-04       1.305329134104e-01 
       2.631830744443e-04       1.629994506605e-01 
       3.313278603720e-04       2.035264004601e-01 
       4.171170630578e-04       2.541004744243e-01 
       5.251192703764e-04       3.171839528557e-01 
       6.610859936996e-04       3.958147256513e-01 
       8.322579568497e-04       4.937136006276e-01 
       1.047750691046e-03       6.153841636042e-01 
       1.319039970183e-03       7.661720592784e-01 
       1.660572937635e-03       9.522588016470e-01 
       2.090537469327e-03       1.180312991698e+00 
       2.631830744443e-03       1.456802684686e+00 
       3.313278603720e-03       1.786503854040e+00 
       4.171170630578e-03       2.169896198199e+00 
       5.251192703764e-03       2.599430630719e+00 
       6.610859936996e-03       3.055668605035e+00 
       8.322579568497e-03       3.505725276269e+00 
       1.047750691046e-02       3.905489913646e+00 
       1.319039970183e-02       4.200915327708e+00 
       1.660572937633e-02       4.325062666410e+00 
       2.090537453514e-02       4.210200459452e+00 
       2.631818545635e-02       3.825149017800e+00 
       3.311571692125e-02       3.229064543759e+00 
       4.113809243311e-02       2.627733993075e+00 
       4.792590854610e-02       2.280791638729e+00 
       5.284436902701e-02       2.110086005877e+00 
       5.689644391095e-02       2.003537477812e+00 
       6.051252627066e-02       1.923055357164e+00 
       6.388413457411e-02       1.852732275077e+00 
       6.711249296401e-02       1.784566363478e+00 
       7.025823437965e-02       1.714275112683e+00 
       7.336115587705e-02       1.639816615717e+00 
       7.644928796912e-02       1.560660747851e+00 
       7.954353299775e-02       1.477454347659e+00 
       8.266024078725e-02       1.391698493859e+00 
       8.581273398637e-02       1.305463432731e+00 
       8.901225918437e-02       1.221125411070e+00 
       9.226860540985e-02       1.141077378571e+00 
       9.559052048996e-02       1.067451337547e+00 
       9.898599946599e-02       1.001886803184e+00 
       1.024624891378e-01       9.453804001160e-01 
       1.060270359164e-01       8.981499892408e-01 
       1.096863943056e-01       8.596125219713e-01 
       1.134471073830e-01       8.284077734733e-01 
       1.173155669539e-01       8.024688909738e-01 
       1.212980586983e-01       7.792294249353e-01 
       1.254007961065e-01       7.559190578500e-01 
       1.296299459934e-01       7.299819665475e-01 
       1.339916477160e-01       6.995924574379e-01 
       1.384920277736e-01       6.640785523706e-01 
       1.431372111762e-01       6.241453561421e-01 
       1.479333307714e-01       5.817639422541e-01 
       1.528865355934e-01       5.396937241235e-01 
       1.580029992204e-01       5.008144048476e-01 
       1.632889290723e-01       4.673982702606e-01 
       1.687505775527e-01       4.405343966829e-01 
       1.743942559171e-01       4.198643086954e-01 
       1.802263517371e-01       4.036600846219e-01 
       1.862533508214e-01       3.893602323906e-01 
       1.924818644494e-01       3.741349112153e-01 
       1.989186627765e-01       3.558024509241e-01 
       2.055707152847e-01       3.339990224182e-01 
       2.124452391818e-01       3.102660973515e-01 
       2.195497567139e-01       2.871239471008e-01 
       2.268921624510e-01       2.668082866893e-01 
       2.344808017550e-01       2.504832963272e-01 
       2.423245618548e-01       2.378332576991e-01 
       2.504329772620e-01       2.271120371531e-01 
       2.588163516754e-01       2.161178974243e-01 
       2.674858990930e-01       2.035461504102e-01 
       2.764539076010e-01       1.895980316686e-01 
       2.857339303080e-01       1.757572506496e-01 
       2.953410092148e-01       1.636999240531e-01 
       3.052919395542e-01       1.539062115153e-01 
       3.156055844677e-01       1.455312932291e-01 
       3.263032530092e-01       1.372497785560e-01 
       3.374091587054e-01       1.283016996062e-01 
       3.489509817175e-01       1.191715254035e-01 
       3.609605657343e-01       1.108076010567e-01 
       3.734747921333e-01       1.036456013100e-01 
       3.865366902904e-01       9.714119133563e-02 
       4.001968667448e-01       9.061538655507e-02 
       4.145153713076e-01       8.403694152765e-02 
       4.295641718077e-01       7.789130417023e-02 
       4.454304922144e-01       7.234164546966e-02 
       4.622214006969e-01       6.709367882180e-02 
       4.800702491654e-01       6.189194022990e-02 
       4.991459272112e-01       5.692628535664e-02 
       5.196665217302e-01       5.231609612933e-02 
       5.419201087032e-01       4.783256092513e-02 
       5.662975451962e-01       4.348674801436e-02 
       5.933463737275e-01       3.933102026628e-02 
       6.238638458458e-01       3.525328063400e-02 
       6.590669257916e-01       3.126284654852e-02 
       7.009246080454e-01       2.728719775411e-02 
       7.528593308799e-01       2.327829977925e-02 
       8.213469537518e-01       1.914812207377e-02 
       9.196980813302e-01       1.481688414293e-02 
       1.075112183810e+00       1.035080868579e-02 
       1.322697471132e+00       6.379285207765e-03 
       1.662328205042e+00       3.705489462920e-03 
       2.092692408506e+00       2.124354994535e-03 
       2.634543445090e+00       1.207769918796e-03 
       3.316693691389e+00       6.815128380457e-04 
       4.175469971226e+00       3.819244444602e-04 
       5.256605252960e+00       2.126754296523e-04 
       6.617673932723e+00       1.177260949462e-04 
       8.331157880872e+00       6.479417677010e-05 
       1.048830636590e+01       3.545676798632e-05 
       1.320399541071e+01       1.928412043610e-05 
       1.662284535976e+01       1.041347922870e-05 
       2.092692243973e+01       5.572064150332e-06 
       2.634543445002e+01       2.943471016784e-06 
       3.316693691389e+01       1.525076960300e-06 
       4.175469971226e+01       7.663710111107e-07 
       5.256605252960e+01       3.663624988767e-07 
       6.617673932723e+01       1.610750764171e-07 
