# Matter power spectrum P(k) at redshift z=0
# for k=1.04775e-05 to 66.1767 h/Mpc,
# number of wavenumbers equal to 130
#    1:k (h/Mpc)              2:P (Mpc/h)^3        
       1.047750691046e-05       5.020964811494e+01 
       1.319039970183e-05       6.270562523009e+01 
       1.660572937635e-05       7.831148226402e+01 
       2.090537469327e-05       9.780108071892e+01 
       2.631830744443e-05       1.221408195792e+02 
       3.313278603720e-05       1.525374501926e+02 
       4.171170630578e-05       1.904975992242e+02 
       5.251192703764e-05       2.379022224147e+02 
       6.610859936996e-05       2.970989228455e+02 
       8.322579568497e-05       3.710167318942e+02 
       1.047750691046e-04       4.633080766461e+02 
       1.319039970183e-04       5.785234118635e+02 
       1.660572937635e-04       7.223242666035e+02 
       2.090537469327e-04       9.017396271801e+02 
       2.631830744443e-04       1.125468123774e+03 
       3.313278603720e-04       1.404223053660e+03 
       4.171170630578e-04       1.751108028756e+03 
       5.251192703764e-04       2.181998448349e+03 
       6.610859936996e-04       2.715889983340e+03 
       8.322579568497e-04       3.375152336401e+03 
       1.047750691046e-03       4.185552172382e+03 
       1.319039970183e-03       5.175742733960e+03 
       1.660572937635e-03       6.376123021970e+03 
       2.090537469327e-03       7.815671772105e+03 
       2.631830744443e-03       9.517782710056e+03 
       3.313278603720e-03       1.149357322565e+04 
       4.171170630578e-03       1.373265514693e+04 
       5.251192703764e-03       1.619061567472e+04 
       6.610859936996e-03       1.877454679307e+04 
       8.322579568497e-03       2.132594986083e+04 
       1.047750691046e-02       2.360504556915e+04 
       1.319039970183e-02       2.528107222287e+04 
       1.660572937633e-02       2.594756678671e+04 
       2.090537453514e-02       2.520314870269e+04 
       2.631818545635e-02       2.285700207766e+04 
       3.311571692125e-02       1.925971070334e+04 
       4.113809243311e-02       1.563747321137e+04 
       4.792590854610e-02       1.354332138384e+04 
       5.284436902701e-02       1.250741411240e+04 
       5.689644391095e-02       1.185669473130e+04 
       6.051252627066e-02       1.136239116035e+04 
       6.388413457411e-02       1.092879687517e+04 
       6.711249296401e-02       1.050789604186e+04 
       7.025823437965e-02       1.007407186284e+04 
       7.336115587705e-02       9.615050882980e+03 
       7.644928796912e-02       9.127698397342e+03 
       7.954353299775e-02       8.615960805145e+03 
       8.266024078725e-02       8.088768366761e+03 
       8.581273398637e-02       7.558684246297e+03 
       8.901225918437e-02       7.039869390834e+03 
       9.226860540985e-02       6.546611806689e+03 
       9.559052048996e-02       6.091416413217e+03 
       9.898599946599e-02       5.684044964220e+03 
       1.024624891378e-01       5.330178782800e+03 
       1.060270359164e-01       5.030797775042e+03 
       1.096863943056e-01       4.782335421495e+03 
       1.134471073830e-01       4.576553898947e+03 
       1.173155669539e-01       4.401198825674e+03 
       1.212980586983e-01       4.241224911833e+03 
       1.254007961065e-01       4.080424412213e+03 
       1.296299459934e-01       3.904103084106e+03 
       1.339916477160e-01       3.701900183301e+03 
       1.384920277736e-01       3.470236250504e+03 
       1.431372111762e-01       3.213606587996e+03 
       1.479333307714e-01       2.943610858355e+03 
       1.528865355934e-01       2.676269551875e+03 
       1.580029992204e-01       2.427905020859e+03 
       1.632889290723e-01       2.211020272465e+03 
       1.687505775527e-01       2.031209735590e+03 
       1.743942559171e-01       1.886077223181e+03 
       1.802263517371e-01       1.765884121527e+03 
       1.862533508214e-01       1.657044002947e+03 
       1.924818644494e-01       1.544781942295e+03 
       1.989186627765e-01       1.418217351630e+03 
       2.055707152847e-01       1.276158855769e+03 
       2.124452391818e-01       1.127042966956e+03 
       2.195497567139e-01       9.837437063687e+02 
       2.268921624510e-01       8.570195521427e+02 
       2.344808017550e-01       7.518265842664e+02 
       2.423245618548e-01       6.661260691586e+02 
       2.504329772620e-01       5.919679792408e+02 
       2.588163516754e-01       5.201576690370e+02 
       2.674858990930e-01       4.458772939207e+02 
       2.764539076010e-01       3.705485974577e+02 
       2.857339303080e-01       3.001463310236e+02 
       2.953410092148e-01       2.404177832354e+02 
       3.052919395542e-01       1.923232893644e+02 
       3.156055844677e-01       1.527375211775e+02 
       3.263032530092e-01       1.177846017561e+02 
       3.374091587054e-01       8.577031299747e+01 
       3.489509817175e-01       5.808260747703e+01 
       3.609605657343e-01       3.649004761930e+01 
       3.734747921333e-01       2.109765713219e+01 
       3.865366902904e-01       1.048739986351e+01 
       4.001968667448e-01       3.607127283281e+00 
       4.145153713076e-01       3.213643958333e-01 
       4.295641718077e-01       4.770360983066e-01 
       4.454304922144e-01       3.353284702265e+00 
       4.622214006969e-01       8.269240758419e+00 
       4.800702491654e-01       1.484145518367e+01 
       4.991459272112e-01       2.231891936132e+01 
       5.196665217302e-01       2.968497047814e+01 
       5.419201087032e-01       3.644616729856e+01 
       5.662975451962e-01       4.182198886663e+01 
       5.933463737275e-01       4.480251894270e+01 
       6.238638458458e-01       4.479275805244e+01 
       6.590669257916e-01       4.103991955742e+01 
       7.009246080454e-01       3.326156492124e+01 
       7.528593308799e-01       2.186498476775e+01 
       8.213469537518e-01       9.101174435793e+00 
       9.196980813302e-01       5.777078517236e-01 
       1.075112183810e+00       2.105174289535e+00 
       1.322697471132e+00       2.000909483480e+00 
       1.662328205042e+00       1.409222052285e-01 
       2.092692408506e+00       3.743261136393e-02 
       2.634543445090e+00       1.901024917617e-02 
       3.316693691389e+00       2.471629472242e-03 
       4.175469971226e+00       9.711424348853e-05 
       5.256605252960e+00       2.018127507674e-06 
       6.617673932723e+00       1.190712406711e-07 
       8.331157880872e+00       7.795879823472e-09 
       1.048830636590e+01       1.345554263917e-09 
       1.320399541071e+01       5.800315190475e-10 
       1.662284535976e+01       1.950102956006e-10 
       2.092692243973e+01       6.074038703259e-11 
       2.634543445002e+01       1.765517688453e-11 
       3.316693691389e+01       4.534800415947e-12 
       4.175469971226e+01       9.744186678192e-13 
       5.256605252960e+01       1.569253038999e-13 
       6.617673932723e+01       1.395226085293e-14 
