# Matter power spectrum P(k) at redshift z=0
# for k=1.04775e-05 to 66.1767 h/Mpc,
# number of wavenumbers equal to 130
#    1:k (h/Mpc)              2:P (Mpc/h)^3        
       1.047750691046e-05       5.020964811307e+01 
       1.319039970183e-05       6.270562594782e+01 
       1.660572937635e-05       7.831147247912e+01 
       2.090537469327e-05       9.780108069295e+01 
       2.631830744443e-05       1.221408203809e+02 
       3.313278603720e-05       1.525374501932e+02 
       4.171170630578e-05       1.904975994010e+02 
       5.251192703764e-05       2.379022224249e+02 
       6.610859936996e-05       2.970989227882e+02 
       8.322579568497e-05       3.710167318946e+02 
       1.047750691046e-04       4.633080766742e+02 
       1.319039970183e-04       5.785234129334e+02 
       1.660572937635e-04       7.223242666092e+02 
       2.090537469327e-04       9.017396271824e+02 
       2.631830744443e-04       1.125468123750e+03 
       3.313278603720e-04       1.404223053681e+03 
       4.171170630578e-04       1.751108028790e+03 
       5.251192703764e-04       2.181998448133e+03 
       6.610859936996e-04       2.715889983593e+03 
       8.322579568497e-04       3.375152337134e+03 
       1.047750691046e-03       4.185552174305e+03 
       1.319039970183e-03       5.175742740159e+03 
       1.660572937635e-03       6.376123051777e+03 
       2.090537469327e-03       7.815671862491e+03 
       2.631830744443e-03       9.517783069112e+03 
       3.313278603720e-03       1.149357460338e+04 
       4.171170630578e-03       1.373266011287e+04 
       5.251192703764e-03       1.619063614560e+04 
       6.610859936996e-03       1.877460421924e+04 
       8.322579568497e-03       2.132607231803e+04 
       1.047750691046e-02       2.360548703356e+04 
       1.319039970183e-02       2.528218771929e+04 
       1.660572937633e-02       2.595027506070e+04 
       2.090537453514e-02       2.520933611277e+04 
       2.631818545635e-02       2.287033831110e+04 
       3.311571692125e-02       1.928621044305e+04 
       4.113809243311e-02       1.568429902644e+04 
       4.792590854610e-02       1.361059726975e+04 
       5.284436902701e-02       1.259132336860e+04 
       5.689644391095e-02       1.195554872911e+04 
       6.051252627066e-02       1.147545905792e+04 
       6.388413457411e-02       1.105587812648e+04 
       6.711249296401e-02       1.064899028537e+04 
       7.025823437965e-02       1.022930380202e+04 
       7.336115587705e-02       9.784546901519e+03 
       7.644928796912e-02       9.311669404988e+03 
       7.954353299775e-02       8.814549133552e+03 
       8.266024078725e-02       8.302105589414e+03 
       8.581273398637e-02       7.786958452388e+03 
       8.901225918437e-02       7.283179824692e+03 
       9.226860540985e-02       6.805164346318e+03 
       9.559052048996e-02       6.365628272906e+03 
       9.898599946599e-02       5.974383992724e+03 
       1.024624891378e-01       5.637314450408e+03 
       1.060270359164e-01       5.355773053454e+03 
       1.096863943056e-01       5.126242746411e+03 
       1.134471073830e-01       4.940487094556e+03 
       1.173155669539e-01       4.786167940022e+03 
       1.212980586983e-01       4.647937438342e+03 
       1.254007961065e-01       4.509141896384e+03 
       1.296299459934e-01       4.354555882490e+03 
       1.339916477160e-01       4.173210413812e+03 
       1.384920277736e-01       3.961160977571e+03 
       1.431372111762e-01       3.722685919188e+03 
       1.479333307714e-01       3.469548958591e+03 
       1.528865355934e-01       3.218336460449e+03 
       1.580029992204e-01       2.986296066442e+03 
       1.632889290723e-01       2.786965986764e+03 
       1.687505775527e-01       2.626832880844e+03 
       1.743942559171e-01       2.503759268657e+03 
       1.802263517371e-01       2.407344821865e+03 
       1.862533508214e-01       2.322252187492e+03 
       1.924818644494e-01       2.231551884262e+03 
       1.989186627765e-01       2.122185859753e+03 
       2.055707152847e-01       1.992029579356e+03 
       2.124452391818e-01       1.850324667463e+03 
       2.195497567139e-01       1.712184442635e+03 
       2.268921624510e-01       1.590990911395e+03 
       2.344808017550e-01       1.493668475875e+03 
       2.423245618548e-01       1.418311911817e+03 
       2.504329772620e-01       1.354468921898e+03 
       2.588163516754e-01       1.288933476212e+03 
       2.674858990930e-01       1.213934217005e+03 
       2.764539076010e-01       1.130692948332e+03 
       2.857339303080e-01       1.048098189994e+03 
       2.953410092148e-01       9.761811659391e+02 
       3.052919395542e-01       9.178118917309e+02 
       3.156055844677e-01       8.678991476119e+02 
       3.263032530092e-01       8.185295626227e+02 
       3.374091587054e-01       7.651464458833e+02 
       3.489509817175e-01       7.106693577300e+02 
       3.609605657343e-01       6.607871833245e+02 
       3.734747921333e-01       6.180863550405e+02 
       3.865366902904e-01       5.793108622665e+02 
       4.001968667448e-01       5.403924203047e+02 
       4.145153713076e-01       5.011526944440e+02 
       4.295641718077e-01       4.644996021738e+02 
       4.454304922144e-01       4.314090225131e+02 
       4.622214006969e-01       4.001135607184e+02 
       4.800702491654e-01       3.690899372918e+02 
       4.991459272112e-01       3.394767600572e+02 
       5.196665217302e-01       3.119866445835e+02 
       5.419201087032e-01       2.852474428463e+02 
       5.662975451962e-01       2.593309815087e+02 
       5.933463737275e-01       2.345481977381e+02 
       6.238638458458e-01       2.102306947136e+02 
       6.590669257916e-01       1.864335100380e+02 
       7.009246080454e-01       1.627253077863e+02 
       7.528593308799e-01       1.388181845030e+02 
       8.213469537518e-01       1.141885055174e+02 
       9.196980813302e-01       8.835938181439e+01 
       1.075112183810e+00       6.172636507027e+01 
       1.322697471132e+00       3.804288538560e+01 
       1.662328205042e+00       2.209807408327e+01 
       2.092692408506e+00       1.266924983438e+01 
       2.634543445090e+00       7.203360360089e+00 
       3.316693691389e+00       4.065146424580e+00 
       4.175469971226e+00       2.278609985965e+00 
       5.256605252960e+00       1.269357602606e+00 
       6.617673932723e+00       7.031407259132e-01 
       8.331157880872e+00       3.874781762532e-01 
       1.048830636590e+01       2.125104647832e-01 
       1.320399541071e+01       1.160380601144e-01 
       1.662284535976e+01       6.309901143530e-02 
       2.092692243973e+01       3.417963690027e-02 
       2.634543445002e+01       1.844625492313e-02 
       3.316693691389e+01       9.919229300956e-03 
       4.175469971226e+01       5.314631456715e-03 
       5.256605252960e+01       2.836709601798e-03 
       6.617673932723e+01       1.507693818605e-03 
