# Matter power spectrum P(k) at redshift z=99
# for k=1.04775e-05 to 66.1767 h/Mpc,
# number of wavenumbers equal to 130
#    1:k (h/Mpc)              2:P (Mpc/h)^3        
       1.047750691046e-05       7.261927681831e-03 
       1.319039970183e-05       9.069258203062e-03 
       1.660572937635e-05       1.132639106876e-02 
       2.090537469327e-05       1.414527123588e-02 
       2.631830744443e-05       1.766569584301e-02 
       3.313278603720e-05       2.206225516235e-02 
       4.171170630578e-05       2.755297766644e-02 
       5.251192703764e-05       3.441013523406e-02 
       6.610859936996e-05       4.297372173350e-02 
       8.322579568497e-05       5.366826853659e-02 
       1.047750691046e-04       6.702379873668e-02 
       1.319039970183e-04       8.370193442414e-02 
       1.660572937635e-04       1.045283355523e-01 
       2.090537469327e-04       1.305329134276e-01 
       2.631830744443e-04       1.629994506818e-01 
       3.313278603720e-04       2.035264004865e-01 
       4.171170630578e-04       2.541004744565e-01 
       5.251192703764e-04       3.171839528946e-01 
       6.610859936996e-04       3.958147256976e-01 
       8.322579568497e-04       4.937136006781e-01 
       1.047750691046e-03       6.153841636599e-01 
       1.319039970183e-03       7.661720593417e-01 
       1.660572937635e-03       9.522588016631e-01 
       2.090537469327e-03       1.180312991552e+00 
       2.631830744443e-03       1.456802683964e+00 
       3.313278603720e-03       1.786503851504e+00 
       4.171170630578e-03       2.169896218994e+00 
       5.251192703764e-03       2.599430604876e+00 
       6.610859936996e-03       3.055668619843e+00 
       8.322579568497e-03       3.505724750973e+00 
       1.047750691046e-02       3.905489805047e+00 
       1.319039970183e-02       4.200914522939e+00 
       1.660572937633e-02       4.325053046479e+00 
       2.090537453514e-02       4.210189084626e+00 
       2.631818545635e-02       3.825111244673e+00 
       3.311571692125e-02       3.228982618536e+00 
       4.113809243311e-02       2.627585051539e+00 
       4.792590854610e-02       2.280584637178e+00 
       5.284436902701e-02       2.109831303301e+00 
       5.689644391095e-02       2.003232344875e+00 
       6.051252627066e-02       1.922696855661e+00 
       6.388413457411e-02       1.852330483221e+00 
       6.711249296401e-02       1.784112104524e+00 
       7.025823437965e-02       1.713774439836e+00 
       7.336115587705e-02       1.639258729177e+00 
       7.644928796912e-02       1.560053755037e+00 
       7.954353299775e-02       1.476791557051e+00 
       8.266024078725e-02       1.390975045910e+00 
       8.581273398637e-02       1.304684686177e+00 
       8.901225918437e-02       1.220292719716e+00 
       9.226860540985e-02       1.140184636575e+00 
       9.559052048996e-02       1.066498140107e+00 
       9.898599946599e-02       1.000876284531e+00 
       1.024624891378e-01       9.443001225923e-01 
       1.060270359164e-01       8.969974747188e-01 
       1.096863943056e-01       8.583881377835e-01 
       1.134471073830e-01       8.270980799127e-01 
       1.173155669539e-01       8.010718173538e-01 
       1.212980586983e-01       7.777392130866e-01 
       1.254007961065e-01       7.543273145157e-01 
       1.296299459934e-01       7.282887209890e-01 
       1.339916477160e-01       6.977907325104e-01 
       1.384920277736e-01       6.621698276728e-01 
       1.431372111762e-01       6.221330370004e-01 
       1.479333307714e-01       5.796459741121e-01 
       1.528865355934e-01       5.374734852384e-01 
       1.580029992204e-01       4.984885460232e-01 
       1.632889290723e-01       4.649594411354e-01 
       1.687505775527e-01       4.379677753140e-01 
       1.743942559171e-01       4.171586118667e-01 
       1.802263517371e-01       4.007980224468e-01 
       1.862533508214e-01       3.863287704555e-01 
       1.924818644494e-01       3.709324134032e-01 
       1.989186627765e-01       3.524326974065e-01 
       2.055707152847e-01       3.304714613234e-01 
       2.124452391818e-01       3.065908480100e-01 
       2.195497567139e-01       2.832996197300e-01 
       2.268921624510e-01       2.628296391695e-01 
       2.344808017550e-01       2.463268874161e-01 
       2.423245618548e-01       2.334750229726e-01 
       2.504329772620e-01       2.225349508226e-01 
       2.588163516754e-01       2.113209174576e-01 
       2.674858990930e-01       1.985431875944e-01 
       2.764539076010e-01       1.844058422409e-01 
       2.857339303080e-01       1.703810509195e-01 
       2.953410092148e-01       1.581247609932e-01 
       3.052919395542e-01       1.481051157165e-01 
       3.156055844677e-01       1.394848452039e-01 
       3.263032530092e-01       1.309591819881e-01 
       3.374091587054e-01       1.217845480014e-01 
       3.489509817175e-01       1.124398445020e-01 
       3.609605657343e-01       1.038540369175e-01 
       3.734747921333e-01       9.644610200305e-02 
       3.865366902904e-01       8.968481349506e-02 
       4.001968667448e-01       8.291148637732e-02 
       4.145153713076e-01       7.609955115890e-02 
       4.295641718077e-01       6.971607657097e-02 
       4.454304922144e-01       6.391390876254e-02 
       4.622214006969e-01       5.841183853357e-02 
       4.800702491654e-01       5.296976813577e-02 
       4.991459272112e-01       4.776631463994e-02 
       5.196665217302e-01       4.291107172488e-02 
       5.419201087032e-01       3.819329165733e-02 
       5.662975451962e-01       3.362420038161e-02 
       5.933463737275e-01       2.925153753529e-02 
       6.238638458458e-01       2.497904438632e-02 
       6.590669257916e-01       2.081970613816e-02 
       7.009246080454e-01       1.672310635787e-02 
       7.528593308799e-01       1.267373849384e-02 
       8.213469537518e-01       8.660880068631e-03 
       9.196980813302e-01       4.785932929500e-03 
       1.075112183810e+00       1.537032808865e-03 
       1.322697471132e+00       3.832921472852e-05 
       1.662328205042e+00       3.125734494993e-04 
       2.092692408506e+00       5.969305735965e-04 
       2.634543445090e+00       2.196122736551e-04 
       3.316693691389e+00       1.611897438425e-07 
       4.175469971226e+00       3.881510536995e-05 
       5.256605252960e+00       8.980333521353e-07 
       6.617673932723e+00       2.734469479907e-06 
       8.331157880872e+00       1.975936248338e-07 
       1.048830636590e+01       3.892037718541e-09 
       1.320399541071e+01       5.918331561884e-10 
       1.662284535976e+01       2.565260332812e-10 
       2.092692243973e+01       1.081849124070e-12 
       2.634543445002e+01       1.000920534282e-17 
       3.316693691389e+01       4.075101885847e-14 
       4.175469971226e+01       1.905730683743e-14 
       5.256605252960e+01       6.286080641208e-15 
       6.617673932723e+01       2.033018954814e-15 
