# Matter power spectrum P(k) at redshift z=99
# for k=1.04775e-05 to 67.6233 h/Mpc,
# number of wavenumbers equal to 246
#    1:k (h/Mpc)              2:P (Mpc/h)^3        
       1.047750691046e-05       7.261928091243e-03 
       1.131335172503e-05       7.820332094342e-03 
       1.221587619537e-05       8.421676472113e-03 
       1.319039970183e-05       9.069258714514e-03 
       1.424266597921e-05       9.766638964107e-03 
       1.537887696968e-05       1.051764130136e-02 
       1.660572937635e-05       1.132639346995e-02 
       1.793045413292e-05       1.219733301632e-02 
       1.936085902198e-05       1.313524300005e-02 
       2.090537469327e-05       1.414527203336e-02 
       2.257310435294e-05       1.523296359889e-02 
       2.437387741694e-05       1.640429539068e-02 
       2.631830744443e-05       1.766569669502e-02 
       2.841785469300e-05       1.902408710295e-02 
       3.068489366414e-05       2.048693152501e-02 
       3.313278603720e-05       2.206225640416e-02 
       3.577595942169e-05       2.375871052640e-02 
       3.862999239199e-05       2.558560713062e-02 
       4.171170630578e-05       2.755297921904e-02 
       4.503926444729e-05       2.967162095996e-02 
       4.863227907969e-05       3.195316634779e-02 
       5.251192703764e-05       3.441013717263e-02 
       5.670107454120e-05       3.705601928078e-02 
       6.122441196689e-05       3.990533593676e-02 
       6.610859936996e-05       4.297372415166e-02 
       7.138242361596e-05       4.627802409201e-02 
       7.707696804727e-05       4.983636480489e-02 
       8.322579568497e-05       5.366827155297e-02 
       8.986514704559e-05       5.779476722175e-02 
       9.703415373875e-05       6.223848699971e-02 
       1.047750691046e-04       6.702380250332e-02 
       1.131335172503e-04       7.217695535480e-02 
       1.221587619537e-04       7.772619515557e-02 
       1.319039970183e-04       8.370193882722e-02 
       1.424266597921e-04       9.013693121519e-02 
       1.537887696968e-04       9.706641796378e-02 
       1.660572937635e-04       1.045283413828e-01 
       1.793045413292e-04       1.125635413058e-01 
       1.936085902198e-04       1.212159683739e-01 
       2.090537469327e-04       1.305329206587e-01 
       2.257310435294e-04       1.405652925551e-01 
       2.437387741694e-04       1.513678387693e-01 
       2.631830744443e-04       1.629994596188e-01 
       2.841785469300e-04       1.755235019127e-01 
       3.068489366414e-04       1.890080775274e-01 
       3.313278603720e-04       2.035264114618e-01 
       3.577595942169e-04       2.191571923605e-01 
       3.862999239199e-04       2.359849565409e-01 
       4.171170630578e-04       2.541004877947e-01 
       4.503926444729e-04       2.736012231733e-01 
       4.863227907969e-04       2.945916945002e-01 
       5.251192703764e-04       3.171839684006e-01 
       5.670107454121e-04       3.414980936038e-01 
       6.122441196689e-04       3.676625593931e-01 
       6.610859936996e-04       3.958147441431e-01 
       7.138242361596e-04       4.261013483052e-01 
       7.707696804727e-04       4.586787995635e-01 
       8.322579568497e-04       4.937136208350e-01 
       8.986514704559e-04       5.313827010837e-01 
       9.703415373875e-04       5.718735180286e-01 
       1.047750691046e-03       6.153841831671e-01 
       1.131335172503e-03       6.621233429553e-01 
       1.221587619537e-03       7.123098390387e-01 
       1.319039970183e-03       7.661720723680e-01 
       1.424266597921e-03       8.239546387442e-01 
       1.537887696968e-03       8.859011181485e-01 
       1.660572937635e-03       9.522587898408e-01 
       1.793045413292e-03       1.023280073747e+00 
       1.936085902198e-03       1.099216255952e+00 
       2.090537469327e-03       1.180312910546e+00 
       2.257310435294e-03       1.266803992377e+00 
       2.437387741694e-03       1.358904670044e+00 
       2.631830744443e-03       1.456802417367e+00 
       2.841785469300e-03       1.560646511195e+00 
       3.068489366414e-03       1.670535517792e+00 
       3.313278603720e-03       1.786503099710e+00 
       3.577595942169e-03       1.908501877629e+00 
       3.862999239199e-03       2.036386259082e+00 
       4.171170630578e-03       2.169894129662e+00 
       4.503926444729e-03       2.308629004346e+00 
       4.863227907969e-03       2.452043269070e+00 
       5.251192703764e-03       2.599424998690e+00 
       5.670107454120e-03       2.749889073831e+00 
       6.122441196689e-03       2.902375416444e+00 
       6.610859936996e-03       3.055653137179e+00 
       7.138242361596e-03       3.208335125666e+00 
       7.707696804727e-03       3.358894588818e+00 
       8.322579568496e-03       3.505685200509e+00 
       8.986514704559e-03       3.646953678485e+00 
       9.703415373875e-03       3.780848524306e+00 
       1.047750691046e-02       3.905388819837e+00 
       1.131335172503e-02       4.018450315644e+00 
       1.221587619537e-02       4.117717326099e+00 
       1.319039970183e-02       4.200670425973e+00 
       1.424266597920e-02       4.264614394161e+00 
       1.537887696964e-02       4.306781482513e+00 
       1.660572937560e-02       4.324484351409e+00 
       1.793045412207e-02       4.315294248496e+00 
       1.936085889642e-02       4.277231509996e+00 
       2.090537351881e-02       4.208904855778e+00 
       2.257309534705e-02       4.109735129784e+00 
       2.437382002240e-02       3.980251762354e+00 
       2.631799943729e-02       3.822409882372e+00 
       2.841644544598e-02       3.639797584173e+00 
       3.067933354524e-02       3.437832304392e+00 
       3.311368469821e-02       3.223825001740e+00 
       3.571840442514e-02       3.006869252624e+00 
       3.847720347390e-02       2.797241671760e+00 
       4.135335537314e-02       2.604787245762e+00 
       4.429361666563e-02       2.436793673806e+00 
       4.724366437916e-02       2.296068238090e+00 
       5.016480834039e-02       2.181028871060e+00 
       5.303989618930e-02       2.087283549363e+00 
       5.586870668205e-02       2.009319107021e+00 
       5.866042679206e-02       1.941861021985e+00 
       6.142798931504e-02       1.880277157652e+00 
       6.418496438662e-02       1.820675508758e+00 
       6.694418832236e-02       1.760018891097e+00 
       6.971731104453e-02       1.696082119443e+00 
       7.251476154108e-02       1.627483554887e+00 
       7.534587669814e-02       1.553704682536e+00 
       7.821907664495e-02       1.475006096762e+00 
       8.114203771084e-02       1.392415742006e+00 
       8.412184533139e-02       1.307575111856e+00 
       8.716512277352e-02       1.222552837684e+00 
       9.027813693913e-02       1.139621022984e+00 
       9.346688429613e-02       1.061010669219e+00 
       9.673716026122e-02       9.886834799840e-01 
       1.000946150608e-01       9.240941357567e-01 
       1.035447986307e-01       8.680440204816e-01 
       1.070931966524e-01       8.205873636384e-01 
       1.107452594180e-01       7.810013306823e-01 
       1.145064248899e-01       7.478221301392e-01 
       1.183821370656e-01       7.189534983358e-01 
       1.223778605591e-01       6.918756042314e-01 
       1.264990921707e-01       6.639741159257e-01 
       1.307513701078e-01       6.329811064566e-01 
       1.351402814485e-01       5.974445432089e-01 
       1.396714683894e-01       5.571183588242e-01 
       1.443506337875e-01       5.130722946114e-01 
       1.491835464900e-01       4.674772891984e-01 
       1.541760469368e-01       4.230662961974e-01 
       1.593340535209e-01       3.824339698812e-01 
       1.646635701934e-01       3.473907983578e-01 
       1.701706958081e-01       3.185274996648e-01 
       1.758616357070e-01       2.951080313371e-01 
       1.817427160581e-01       2.753052914313e-01 
       1.878204014651e-01       2.568492215598e-01 
       1.941013163855e-01       2.373642517307e-01 
       2.005922709060e-01       2.154554017786e-01 
       2.073002914514e-01       1.913760364689e-01 
       2.142326570343e-01       1.667874923535e-01 
       2.213969417044e-01       1.437748573554e-01 
       2.288010639201e-01       1.238513417083e-01 
       2.364533436625e-01       1.075151928024e-01 
       2.443625682390e-01       9.414814394433e-02 
       2.525380678946e-01       8.235399050384e-02 
       2.609898025770e-01       7.080793282933e-02 
       2.697284614969e-01       5.901974672001e-02 
       2.787655775073e-01       4.744642984381e-02 
       2.881136588192e-01       3.707082017412e-02 
       2.977863412019e-01       2.858976424574e-02 
       3.077985646248e-01       2.191571652387e-02 
       3.181667793367e-01       1.649333955711e-02 
       3.289091877084e-01       1.180228317341e-02 
       3.400460298905e-01       7.722709858919e-03 
       3.515999235695e-01       4.483466820837e-03 
       3.635962710278e-01       2.233981346968e-03 
       3.760637505499e-01       8.691927077982e-04 
       3.890349143014e-01       1.661578980051e-04 
       4.025469215929e-01       1.116214428974e-05 
       4.166424455447e-01       3.655799369652e-04 
       4.313708034899e-01       1.126721452935e-03 
       4.467893781976e-01       2.140602804566e-03 
       4.629654198623e-01       3.308535833511e-03 
       4.799783500912e-01       4.573342006091e-03 
       4.979227318246e-01       5.801896643673e-03 
       5.169121269689e-01       6.835248179750e-03 
       5.370841403262e-01       7.623504490821e-03 
       5.586070463286e-01       8.105685996383e-03 
       5.816885093582e-01       8.182811151866e-03 
       6.065870143577e-01       7.836925350256e-03 
       6.336266466978e-01       7.083370877447e-03 
       6.632156057925e-01       5.955379427729e-03 
       6.958678637575e-01       4.566836822488e-03 
       7.322247983784e-01       3.072554551881e-03 
       7.730680193171e-01       1.685800271454e-03 
       8.193049551574e-01       6.307582245101e-04 
       8.718988013754e-01       7.733113906469e-05 
       9.317218028590e-01       3.761703999437e-05 
       9.993660906273e-01       3.069671501429e-04 
       1.075037109879e+00       5.513379694479e-04 
       1.158653485387e+00       5.400163847707e-04 
       1.250099156961e+00       3.120666606594e-04 
       1.349432400897e+00       8.296071557094e-05 
       1.456947456991e+00       3.791447364829e-07 
       1.573135110893e+00       2.649056912584e-05 
       1.698621895119e+00       4.724493131454e-05 
       1.834127512423e+00       2.563811429275e-05 
       1.980444933977e+00       2.707619125506e-06 
       2.138435191130e+00       1.294962434014e-06 
       2.309029198543e+00       3.975675424230e-06 
       2.493232376993e+00       1.380607349638e-06 
       2.692130394536e+00       1.760138814450e-09 
       2.906895533764e+00       3.197181802863e-07 
       3.138793596840e+00       9.733000907458e-08 
       3.389191365541e+00       5.741233434230e-09 
       3.659564656886e+00       1.943557842071e-08 
       3.951507021438e+00       4.954160729326e-11 
       4.266739135513e+00       1.668182447026e-09 
       4.607118942658e+00       1.871691182166e-12 
       4.974652604172e+00       8.186559322724e-11 
       5.371506323193e+00       9.078626657262e-12 
       5.800019112071e+00       8.125087204290e-13 
       6.262716578240e+00       5.297487609765e-13 
       6.762325809881e+00       3.893847015421e-13 
       7.301791449077e+00       4.231879868356e-15 
       7.884293047211e+00       5.893145111005e-15 
       8.513263804891e+00       1.876553471919e-16 
       9.192410806865e+00       5.999622632823e-18 
       9.925736871166e+00       1.414690408450e-16 
       1.071756414128e+01       9.884072568347e-17 
       1.157255956041e+01       4.405959098269e-17 
       1.249576237789e+01       9.004794098922e-19 
       1.349261385000e+01       5.300293260881e-18 
       1.456898931011e+01       7.884032708486e-18 
       1.573123279727e+01       9.045355533876e-19 
       1.698619444729e+01       2.222143799921e-19 
       1.834127086665e+01       6.075216424665e-19 
       1.980444872733e+01       2.751435014884e-20 
       2.138435183937e+01       6.113231180582e-20 
       2.309029197863e+01       1.177121850054e-20 
       2.493232376942e+01       5.532799088843e-21 
       2.692130394533e+01       4.450338723723e-22 
       2.906895533764e+01       1.373454055428e-21 
       3.138793596840e+01       3.648715383989e-22 
       3.389191365541e+01       4.482808437333e-22 
       3.659564656886e+01       1.348848370939e-23 
       3.951507021438e+01       1.098926409316e-23 
       4.266739135513e+01       2.250990165328e-23 
       4.607118942658e+01       3.438999317667e-23 
       4.974652604172e+01       1.650938335601e-26 
       5.371506323193e+01       3.732466961988e-25 
       5.800019112071e+01       2.308236386349e-24 
       6.262716578240e+01       7.172817160028e-24 
       6.762325809881e+01       1.222574574951e-24 
