# Matter power spectrum P(k) at redshift z=0
# for k=1.04775e-05 to 66.1767 h/Mpc,
# number of wavenumbers equal to 130
#    1:k (h/Mpc)              2:P (Mpc/h)^3        
       1.047750691046e-05       5.020964811312e+01 
       1.319039970183e-05       6.270562594779e+01 
       1.660572937635e-05       7.831147247912e+01 
       2.090537469327e-05       9.780108069295e+01 
       2.631830744443e-05       1.221408203809e+02 
       3.313278603720e-05       1.525374501932e+02 
       4.171170630578e-05       1.904975994010e+02 
       5.251192703764e-05       2.379022224249e+02 
       6.610859936996e-05       2.970989227880e+02 
       8.322579568497e-05       3.710167318946e+02 
       1.047750691046e-04       4.633080766742e+02 
       1.319039970183e-04       5.785234129341e+02 
       1.660572937635e-04       7.223242666092e+02 
       2.090537469327e-04       9.017396271824e+02 
       2.631830744443e-04       1.125468123750e+03 
       3.313278603720e-04       1.404223053681e+03 
       4.171170630578e-04       1.751108028790e+03 
       5.251192703764e-04       2.181998448133e+03 
       6.610859936996e-04       2.715889983592e+03 
       8.322579568497e-04       3.375152337135e+03 
       1.047750691046e-03       4.185552174306e+03 
       1.319039970183e-03       5.175742743166e+03 
       1.660572937635e-03       6.376123051791e+03 
       2.090537469327e-03       7.815671866400e+03 
       2.631830744443e-03       9.517783069110e+03 
       3.313278603720e-03       1.149357460346e+04 
       4.171170630578e-03       1.373266010874e+04 
       5.251192703764e-03       1.619063614301e+04 
       6.610859936996e-03       1.877460424478e+04 
       8.322579568497e-03       2.132606914477e+04 
       1.047750691046e-02       2.360548800246e+04 
       1.319039970183e-02       2.528218646353e+04 
       1.660572937633e-02       2.595025223712e+04 
       2.090537453514e-02       2.520932257102e+04 
       2.631818545635e-02       2.287035140606e+04 
       3.311571692125e-02       1.928626234533e+04 
       4.113809243311e-02       1.568429669678e+04 
       4.792590854610e-02       1.361062034516e+04 
       5.284436902701e-02       1.259130885925e+04 
       5.689644391095e-02       1.195555427675e+04 
       6.051252627066e-02       1.147547225005e+04 
       6.388413457411e-02       1.105592528088e+04 
       6.711249296401e-02       1.064900570877e+04 
       7.025823437965e-02       1.022932435614e+04 
       7.336115587705e-02       9.784497619806e+03 
       7.644928796912e-02       9.311651463293e+03 
       7.954353299775e-02       8.814567083146e+03 
       8.266024078725e-02       8.302131883346e+03 
       8.581273398637e-02       7.786927340646e+03 
       8.901225918437e-02       7.283221084683e+03 
       9.226860540985e-02       6.805220922555e+03 
       9.559052048996e-02       6.365665907389e+03 
       9.898599946599e-02       5.974358278200e+03 
       1.024624891378e-01       5.637389485583e+03 
       1.060270359164e-01       5.355778597566e+03 
       1.096863943056e-01       5.126267878826e+03 
       1.134471073830e-01       4.940482865911e+03 
       1.173155669539e-01       4.786183968584e+03 
       1.212980586983e-01       4.647942554997e+03 
       1.254007961065e-01       4.509141216428e+03 
       1.296299459934e-01       4.354569212441e+03 
       1.339916477160e-01       4.173237658072e+03 
       1.384920277736e-01       3.961173175381e+03 
       1.431372111762e-01       3.722697856697e+03 
       1.479333307714e-01       3.469553139888e+03 
       1.528865355934e-01       3.218346759202e+03 
       1.580029992204e-01       2.986268066864e+03 
       1.632889290723e-01       2.786956772434e+03 
       1.687505775527e-01       2.626814662481e+03 
       1.743942559171e-01       2.503772275338e+03 
       1.802263517371e-01       2.407322630916e+03 
       1.862533508214e-01       2.322236171315e+03 
       1.924818644494e-01       2.231542052981e+03 
       1.989186627765e-01       2.122176843503e+03 
       2.055707152847e-01       1.992019157451e+03 
       2.124452391818e-01       1.850312946583e+03 
       2.195497567139e-01       1.712162731350e+03 
       2.268921624510e-01       1.590975100842e+03 
       2.344808017550e-01       1.493660567633e+03 
       2.423245618548e-01       1.418311099012e+03 
       2.504329772620e-01       1.354454182605e+03 
       2.588163516754e-01       1.288925303050e+03 
       2.674858990930e-01       1.213927707463e+03 
       2.764539076010e-01       1.130695703401e+03 
       2.857339303080e-01       1.048093148226e+03 
       2.953410092148e-01       9.761701399828e+02 
       3.052919395542e-01       9.178044167192e+02 
       3.156055844677e-01       8.678955495088e+02 
       3.263032530092e-01       8.185204874649e+02 
       3.374091587054e-01       7.651445596602e+02 
       3.489509817175e-01       7.106653212895e+02 
       3.609605657343e-01       6.607795479755e+02 
       3.734747921333e-01       6.180813816068e+02 
       3.865366902904e-01       5.793039168316e+02 
       4.001968667448e-01       5.403873207785e+02 
       4.145153713076e-01       5.011479755923e+02 
       4.295641718077e-01       4.644960516325e+02 
       4.454304922144e-01       4.314049210825e+02 
       4.622214006969e-01       4.001123710492e+02 
       4.800702491654e-01       3.690862559058e+02 
       4.991459272112e-01       3.394737637286e+02 
       5.196665217302e-01       3.119810906786e+02 
       5.419201087032e-01       2.852416030669e+02 
       5.662975451962e-01       2.593272561707e+02 
       5.933463737275e-01       2.345448415970e+02 
       6.238638458458e-01       2.102284459940e+02 
       6.590669257916e-01       1.864319021930e+02 
       7.009246080454e-01       1.627238137991e+02 
       7.528593308799e-01       1.388173276485e+02 
       8.213469537518e-01       1.141874873997e+02 
       9.196980813302e-01       8.835841268112e+01 
       1.075112183810e+00       6.172574942767e+01 
       1.322697471132e+00       3.804299257884e+01 
       1.662328205042e+00       2.209779304846e+01 
       2.092692408506e+00       1.266900160451e+01 
       2.634543445090e+00       7.203200394766e+00 
       3.316693691389e+00       4.065077246290e+00 
       4.175469971226e+00       2.278573531657e+00 
       5.256605252960e+00       1.269300890599e+00 
       6.617673932723e+00       7.030830273021e-01 
       8.331157880872e+00       3.874200412648e-01 
       1.048830636590e+01       2.124506686602e-01 
       1.320399541071e+01       1.159716270485e-01 
       1.662284535976e+01       6.302711876136e-02 
       2.092692243973e+01       3.410053513416e-02 
       2.634543445002e+01       1.835822682471e-02 
       3.316693691389e+01       9.821646339809e-03 
       4.175469971226e+01       5.206796144745e-03 
       5.256605252960e+01       2.719083358962e-03 
       6.617673932723e+01       1.382101629908e-03 
