# Matter power spectrum P(k) at redshift z=0
# for k=1.04775e-05 to 66.1767 h/Mpc,
# number of wavenumbers equal to 130
#    1:k (h/Mpc)              2:P (Mpc/h)^3        
       1.047750691046e-05       5.020964811307e+01 
       1.319039970183e-05       6.270562594778e+01 
       1.660572937635e-05       7.831147247912e+01 
       2.090537469327e-05       9.780108069294e+01 
       2.631830744443e-05       1.221408203809e+02 
       3.313278603720e-05       1.525374501932e+02 
       4.171170630578e-05       1.904975994010e+02 
       5.251192703764e-05       2.379022224249e+02 
       6.610859936996e-05       2.970989227882e+02 
       8.322579568497e-05       3.710167318946e+02 
       1.047750691046e-04       4.633080766742e+02 
       1.319039970183e-04       5.785234129337e+02 
       1.660572937635e-04       7.223242666092e+02 
       2.090537469327e-04       9.017396271824e+02 
       2.631830744443e-04       1.125468123750e+03 
       3.313278603720e-04       1.404223053681e+03 
       4.171170630578e-04       1.751108028790e+03 
       5.251192703764e-04       2.181998448133e+03 
       6.610859936996e-04       2.715889983592e+03 
       8.322579568497e-04       3.375152337134e+03 
       1.047750691046e-03       4.185552174305e+03 
       1.319039970183e-03       5.175742739349e+03 
       1.660572937635e-03       6.376123051776e+03 
       2.090537469327e-03       7.815671866776e+03 
       2.631830744443e-03       9.517783069107e+03 
       3.313278603720e-03       1.149357460345e+04 
       4.171170630578e-03       1.373266014591e+04 
       5.251192703764e-03       1.619063613942e+04 
       6.610859936996e-03       1.877460421180e+04 
       8.322579568497e-03       2.132607236841e+04 
       1.047750691046e-02       2.360548091531e+04 
       1.319039970183e-02       2.528218683068e+04 
       1.660572937633e-02       2.595028191485e+04 
       2.090537453514e-02       2.520936271239e+04 
       2.631818545635e-02       2.287036069972e+04 
       3.311571692125e-02       1.928622740270e+04 
       4.113809243311e-02       1.568428584959e+04 
       4.792590854610e-02       1.361065414634e+04 
       5.284436902701e-02       1.259130468330e+04 
       5.689644391095e-02       1.195556752884e+04 
       6.051252627066e-02       1.147546197039e+04 
       6.388413457411e-02       1.105590039545e+04 
       6.711249296401e-02       1.064904140549e+04 
       7.025823437965e-02       1.022933395926e+04 
       7.336115587705e-02       9.784565595702e+03 
       7.644928796912e-02       9.311699436189e+03 
       7.954353299775e-02       8.814553628308e+03 
       8.266024078725e-02       8.302158827876e+03 
       8.581273398637e-02       7.786978249603e+03 
       8.901225918437e-02       7.283253562838e+03 
       9.226860540985e-02       6.805217165602e+03 
       9.559052048996e-02       6.365678613200e+03 
       9.898599946599e-02       5.974420507790e+03 
       1.024624891378e-01       5.637368633158e+03 
       1.060270359164e-01       5.355831080924e+03 
       1.096863943056e-01       5.126263356390e+03 
       1.134471073830e-01       4.940496523225e+03 
       1.173155669539e-01       4.786165093998e+03 
       1.212980586983e-01       4.647936897947e+03 
       1.254007961065e-01       4.509165555776e+03 
       1.296299459934e-01       4.354569320786e+03 
       1.339916477160e-01       4.173207634428e+03 
       1.384920277736e-01       3.961171657077e+03 
       1.431372111762e-01       3.722682909509e+03 
       1.479333307714e-01       3.469552208249e+03 
       1.528865355934e-01       3.218326037501e+03 
       1.580029992204e-01       2.986260800061e+03 
       1.632889290723e-01       2.786951854861e+03 
       1.687505775527e-01       2.626815680464e+03 
       1.743942559171e-01       2.503773096512e+03 
       1.802263517371e-01       2.407319519115e+03 
       1.862533508214e-01       2.322231927774e+03 
       1.924818644494e-01       2.231533160360e+03 
       1.989186627765e-01       2.122173446450e+03 
       2.055707152847e-01       1.992023989570e+03 
       2.124452391818e-01       1.850326255260e+03 
       2.195497567139e-01       1.712156873157e+03 
       2.268921624510e-01       1.590972681630e+03 
       2.344808017550e-01       1.493659421626e+03 
       2.423245618548e-01       1.418310636772e+03 
       2.504329772620e-01       1.354448104360e+03 
       2.588163516754e-01       1.288941502219e+03 
       2.674858990930e-01       1.213936399368e+03 
       2.764539076010e-01       1.130682180857e+03 
       2.857339303080e-01       1.048093831167e+03 
       2.953410092148e-01       9.761733126920e+02 
       3.052919395542e-01       9.178046819206e+02 
       3.156055844677e-01       8.678859984054e+02 
       3.263032530092e-01       8.185203180642e+02 
       3.374091587054e-01       7.651384714143e+02 
       3.489509817175e-01       7.106645254766e+02 
       3.609605657343e-01       6.607780224206e+02 
       3.734747921333e-01       6.180833508159e+02 
       3.865366902904e-01       5.793044571962e+02 
       4.001968667448e-01       5.403876744642e+02 
       4.145153713076e-01       5.011437656272e+02 
       4.295641718077e-01       4.644951115810e+02 
       4.454304922144e-01       4.313998247392e+02 
       4.622214006969e-01       4.001104206234e+02 
       4.800702491654e-01       3.690823446638e+02 
       4.991459272112e-01       3.394706954726e+02 
       5.196665217302e-01       3.119797326098e+02 
       5.419201087032e-01       2.852429418895e+02 
       5.662975451962e-01       2.593260356209e+02 
       5.933463737275e-01       2.345447715501e+02 
       6.238638458458e-01       2.102287360014e+02 
       6.590669257916e-01       1.864324273073e+02 
       7.009246080454e-01       1.627236582171e+02 
       7.528593308799e-01       1.388172724408e+02 
       8.213469537518e-01       1.141874954502e+02 
       9.196980813302e-01       8.835838462621e+01 
       1.075112183810e+00       6.172549270662e+01 
       1.322697471132e+00       3.804276812905e+01 
       1.662328205042e+00       2.209780459193e+01 
       2.092692408506e+00       1.266902129518e+01 
       2.634543445090e+00       7.203145927524e+00 
       3.316693691389e+00       4.065051864996e+00 
       4.175469971226e+00       2.278523729694e+00 
       5.256605252960e+00       1.269281361740e+00 
       6.617673932723e+00       7.030661900322e-01 
       8.331157880872e+00       3.874165337077e-01 
       1.048830636590e+01       2.124517885859e-01 
       1.320399541071e+01       1.159821939057e-01 
       1.662284535976e+01       6.304809443819e-02 
       2.092692243973e+01       3.413234194786e-02 
       2.634543445002e+01       1.840233875504e-02 
       3.316693691389e+01       9.878475990128e-03 
       4.175469971226e+01       5.276875778353e-03 
       5.256605252960e+01       2.801536860897e-03 
       6.617673932723e+01       1.474877157417e-03 
