# Matter power spectrum P(k) at redshift z=99
# for k=1.04775e-05 to 66.1767 h/Mpc,
# number of wavenumbers equal to 130
#    1:k (h/Mpc)              2:P (Mpc/h)^3        
       1.047750691046e-05       7.261927681643e-03 
       1.319039970183e-05       9.069258202825e-03 
       1.660572937635e-05       1.132639106847e-02 
       2.090537469327e-05       1.414527123551e-02 
       2.631830744443e-05       1.766569584248e-02 
       3.313278603720e-05       2.206225516180e-02 
       4.171170630578e-05       2.755297766573e-02 
       5.251192703764e-05       3.441013523317e-02 
       6.610859936996e-05       4.297372173239e-02 
       8.322579568497e-05       5.366826853520e-02 
       1.047750691046e-04       6.702379873492e-02 
       1.319039970183e-04       8.370193442180e-02 
       1.660572937635e-04       1.045283355495e-01 
       2.090537469327e-04       1.305329134242e-01 
       2.631830744443e-04       1.629994506776e-01 
       3.313278603720e-04       2.035264004810e-01 
       4.171170630578e-04       2.541004744496e-01 
       5.251192703764e-04       3.171839528859e-01 
       6.610859936996e-04       3.958147256861e-01 
       8.322579568497e-04       4.937136006693e-01 
       1.047750691046e-03       6.153841636398e-01 
       1.319039970183e-03       7.661720592470e-01 
       1.660572937635e-03       9.522588016168e-01 
       2.090537469327e-03       1.180312991549e+00 
       2.631830744443e-03       1.456802684260e+00 
       3.313278603720e-03       1.786503853033e+00 
       4.171170630578e-03       2.169896189647e+00 
       5.251192703764e-03       2.599430626118e+00 
       6.610859936996e-03       3.055668696074e+00 
       8.322579568497e-03       3.505725094286e+00 
       1.047750691046e-02       3.905491448397e+00 
       1.319039970183e-02       4.200915124738e+00 
       1.660572937633e-02       4.325065343295e+00 
       2.090537453514e-02       4.210200521942e+00 
       2.631818545635e-02       3.825144987253e+00 
       3.311571692125e-02       3.229061038182e+00 
       4.113809243311e-02       2.627726778793e+00 
       4.792590854610e-02       2.280789107867e+00 
       5.284436902701e-02       2.110083156986e+00 
       5.689644391095e-02       2.003533196464e+00 
       6.051252627066e-02       1.923058872097e+00 
       6.388413457411e-02       1.852728883934e+00 
       6.711249296401e-02       1.784560306256e+00 
       7.025823437965e-02       1.714267801131e+00 
       7.336115587705e-02       1.639806682042e+00 
       7.644928796912e-02       1.560649502831e+00 
       7.954353299775e-02       1.477445919090e+00 
       8.266024078725e-02       1.391685623006e+00 
       8.581273398637e-02       1.305450133918e+00 
       8.901225918437e-02       1.221112801630e+00 
       9.226860540985e-02       1.141069335884e+00 
       9.559052048996e-02       1.067440035765e+00 
       9.898599946599e-02       1.001874761093e+00 
       1.024624891378e-01       9.453675226508e-01 
       1.060270359164e-01       8.981317072577e-01 
       1.096863943056e-01       8.595947462655e-01 
       1.134471073830e-01       8.283870652368e-01 
       1.173155669539e-01       8.024469960942e-01 
       1.212980586983e-01       7.792079325256e-01 
       1.254007961065e-01       7.558938460234e-01 
       1.296299459934e-01       7.299588684879e-01 
       1.339916477160e-01       6.995650520824e-01 
       1.384920277736e-01       6.640482533197e-01 
       1.431372111762e-01       6.241162173359e-01 
       1.479333307714e-01       5.817329895531e-01 
       1.528865355934e-01       5.396566611919e-01 
       1.580029992204e-01       5.007774359303e-01 
       1.632889290723e-01       4.673610100312e-01 
       1.687505775527e-01       4.404945234877e-01 
       1.743942559171e-01       4.198233384357e-01 
       1.802263517371e-01       4.036152178612e-01 
       1.862533508214e-01       3.893125063365e-01 
       1.924818644494e-01       3.740856609564e-01 
       1.989186627765e-01       3.557490682158e-01 
       2.055707152847e-01       3.339430283338e-01 
       2.124452391818e-01       3.102072933971e-01 
       2.195497567139e-01       2.870608747592e-01 
       2.268921624510e-01       2.667433854702e-01 
       2.344808017550e-01       2.504155432359e-01 
       2.423245618548e-01       2.377623615367e-01 
       2.504329772620e-01       2.270365250969e-01 
       2.588163516754e-01       2.160388874322e-01 
       2.674858990930e-01       2.034619137072e-01 
       2.764539076010e-01       1.895107183389e-01 
       2.857339303080e-01       1.756655083817e-01 
       2.953410092148e-01       1.636037681370e-01 
       3.052919395542e-01       1.538063837472e-01 
       3.156055844677e-01       1.454257481843e-01 
       3.263032530092e-01       1.371392844295e-01 
       3.374091587054e-01       1.281862348381e-01 
       3.489509817175e-01       1.190505466499e-01 
       3.609605657343e-01       1.106809299805e-01 
       3.734747921333e-01       1.035129033230e-01 
       3.865366902904e-01       9.700290586153e-02 
       4.001968667448e-01       9.047069547067e-02 
       4.145153713076e-01       8.388540802076e-02 
       4.295641718077e-01       7.773287534355e-02 
       4.454304922144e-01       7.217556638275e-02 
       4.622214006969e-01       6.691971417361e-02 
       4.800702491654e-01       6.170978238001e-02 
       4.991459272112e-01       5.673565763784e-02 
       5.196665217302e-01       5.211600216249e-02 
       5.419201087032e-01       4.762235048738e-02 
       5.662975451962e-01       4.326585590474e-02 
       5.933463737275e-01       3.909789656040e-02 
       6.238638458458e-01       3.500685542531e-02 
       6.590669257916e-01       3.100099327941e-02 
       7.009246080454e-01       2.700776844192e-02 
       7.528593308799e-01       2.297744357836e-02 
       8.213469537518e-01       1.881993428707e-02 
       9.196980813302e-01       1.445182903294e-02 
       1.075112183810e+00       9.932584591177e-03 
       1.322697471132e+00       5.890656010415e-03 
       1.662328205042e+00       3.148273225462e-03 
       2.092692408506e+00       1.524431764456e-03 
       2.634543445090e+00       6.142817671718e-04 
       3.316693691389e+00       1.642725493042e-04 
       4.175469971226e+00       1.020425957545e-05 
       5.256605252960e+00       1.162274379998e-05 
       6.617673932723e+00       3.656890376331e-05 
       8.331157880872e+00       2.064122890600e-05 
       1.048830636590e+01       6.713856949801e-07 
       1.320399541071e+01       2.147964759968e-06 
       1.662284535976e+01       4.338499478510e-07 
       2.092692243973e+01       1.611089963663e-07 
       2.634543445002e+01       1.689142417791e-10 
       3.316693691389e+01       6.428028364180e-10 
       4.175469971226e+01       2.347574442891e-11 
       5.256605252960e+01       1.501761931392e-12 
       6.617673932723e+01       8.266769962411e-16 
