# Matter power spectrum P(k) at redshift z=99
# for k=1.04775e-05 to 66.1767 h/Mpc,
# number of wavenumbers equal to 130
#    1:k (h/Mpc)              2:P (Mpc/h)^3        
       1.047750691046e-05       7.261927684519e-03 
       1.319039970183e-05       9.069258206418e-03 
       1.660572937635e-05       1.132639107295e-02 
       2.090537469327e-05       1.414527124112e-02 
       2.631830744443e-05       1.766569584956e-02 
       3.313278603720e-05       2.206225517052e-02 
       4.171170630578e-05       2.755297767664e-02 
       5.251192703764e-05       3.441013524679e-02 
       6.610859936996e-05       4.297372174938e-02 
       8.322579568497e-05       5.366826855639e-02 
       1.047750691046e-04       6.702379876137e-02 
       1.319039970183e-04       8.370193445492e-02 
       1.660572937635e-04       1.045283355905e-01 
       2.090537469327e-04       1.305329134750e-01 
       2.631830744443e-04       1.629994507404e-01 
       3.313278603720e-04       2.035264005581e-01 
       4.171170630578e-04       2.541004745433e-01 
       5.251192703764e-04       3.171839529974e-01 
       6.610859936996e-04       3.958147258158e-01 
       8.322579568497e-04       4.937136008079e-01 
       1.047750691046e-03       6.153841637771e-01 
       1.319039970183e-03       7.661720593388e-01 
       1.660572937635e-03       9.522588015372e-01 
       2.090537469327e-03       1.180312990981e+00 
       2.631830744443e-03       1.456802682377e+00 
       3.313278603720e-03       1.786503847678e+00 
       4.171170630578e-03       2.169896210659e+00 
       5.251192703764e-03       2.599430584204e+00 
       6.610859936996e-03       3.055668564551e+00 
       8.322579568497e-03       3.505725027717e+00 
       1.047750691046e-02       3.905490162070e+00 
       1.319039970183e-02       4.200914968755e+00 
       1.660572937633e-02       4.325050232833e+00 
       2.090537453514e-02       4.210179064966e+00 
       2.631818545635e-02       3.825097522490e+00 
       3.311571692125e-02       3.228955958682e+00 
       4.113809243311e-02       2.627533528130e+00 
       4.792590854610e-02       2.280502352988e+00 
       5.284436902701e-02       2.109721868449e+00 
       5.689644391095e-02       2.003107216637e+00 
       6.051252627066e-02       1.922557915332e+00 
       6.388413457411e-02       1.852167340158e+00 
       6.711249296401e-02       1.783924573436e+00 
       7.025823437965e-02       1.713564492272e+00 
       7.336115587705e-02       1.639031304950e+00 
       7.644928796912e-02       1.559804143002e+00 
       7.954353299775e-02       1.476518704267e+00 
       8.266024078725e-02       1.390677559005e+00 
       8.581273398637e-02       1.304356735490e+00 
       8.901225918437e-02       1.219939459702e+00 
       9.226860540985e-02       1.139807254711e+00 
       9.559052048996e-02       1.066095630412e+00 
       9.898599946599e-02       1.000444343714e+00 
       1.024624891378e-01       9.438417076895e-01 
       1.060270359164e-01       8.965110684545e-01 
       1.096863943056e-01       8.578679058925e-01 
       1.134471073830e-01       8.265418466766e-01 
       1.173155669539e-01       8.004774198403e-01 
       1.212980586983e-01       7.771008902968e-01 
       1.254007961065e-01       7.536477416535e-01 
       1.296299459934e-01       7.275636301285e-01 
       1.339916477160e-01       6.970202854736e-01 
       1.384920277736e-01       6.613516145694e-01 
       1.431372111762e-01       6.212674018397e-01 
       1.479333307714e-01       5.787349875290e-01 
       1.528865355934e-01       5.365141698863e-01 
       1.580029992204e-01       4.974804853499e-01 
       1.632889290723e-01       4.639017072887e-01 
       1.687505775527e-01       4.368553956490e-01 
       1.743942559171e-01       4.159828861949e-01 
       1.802263517371e-01       3.995518082060e-01 
       1.862533508214e-01       3.850117106145e-01 
       1.924818644494e-01       3.695390132064e-01 
       1.989186627765e-01       3.509655322651e-01 
       2.055707152847e-01       3.289348262166e-01 
       2.124452391818e-01       3.049887702759e-01 
       2.195497567139e-01       2.816343656587e-01 
       2.268921624510e-01       2.610938712766e-01 
       2.344808017550e-01       2.445136262689e-01 
       2.423245618548e-01       2.315749753698e-01 
       2.504329772620e-01       2.205409602605e-01 
       2.588163516754e-01       2.092334365231e-01 
       2.674858990930e-01       1.963687645911e-01 
       2.764539076010e-01       1.821528177627e-01 
       2.857339303080e-01       1.680525048060e-01 
       2.953410092148e-01       1.557149965871e-01 
       3.052919395542e-01       1.456030425839e-01 
       3.156055844677e-01       1.368828401176e-01 
       3.263032530092e-01       1.282609235709e-01 
       3.374091587054e-01       1.189990555411e-01 
       3.489509817175e-01       1.095750783393e-01 
       3.609605657343e-01       1.009071113096e-01 
       3.734747921333e-01       9.341041048578e-02 
       3.865366902904e-01       8.655801538995e-02 
       4.001968667448e-01       7.970217367935e-02 
       4.145153713076e-01       7.281687109608e-02 
       4.295641718077e-01       6.636197021227e-02 
       4.454304922144e-01       6.048762302348e-02 
       4.622214006969e-01       5.491867629020e-02 
       4.800702491654e-01       4.942151709238e-02 
       4.991459272112e-01       4.417244306795e-02 
       5.196665217302e-01       3.927731897936e-02 
       5.419201087032e-01       3.453575407819e-02 
       5.662975451962e-01       2.996093923385e-02 
       5.933463737275e-01       2.560194434197e-02 
       6.238638458458e-01       2.137384030068e-02 
       6.590669257916e-01       1.729785802942e-02 
       7.009246080454e-01       1.334314814229e-02 
       7.528593308799e-01       9.523618858443e-03 
       8.213469537518e-01       5.886189273994e-03 
       9.196980813302e-01       2.638390668344e-03 
       1.075112183810e+00       4.128514946102e-04 
       1.322697471132e+00       1.268411362213e-04 
       1.662328205042e+00       8.120156621099e-04 
       2.092692408506e+00       6.015057512902e-04 
       2.634543445090e+00       4.296881634285e-05 
       3.316693691389e+00       4.987075016842e-05 
       4.175469971226e+00       1.957661479157e-05 
       5.256605252960e+00       4.706245359357e-06 
       6.617673932723e+00       3.998234453962e-08 
       8.331157880872e+00       1.134710336865e-07 
       1.048830636590e+01       1.326523416153e-08 
       1.320399541071e+01       4.296417688088e-11 
       1.662284535976e+01       5.133419425020e-11 
       2.092692243973e+01       8.564902072890e-15 
       2.634543445002e+01       1.005906065511e-14 
       3.316693691389e+01       3.911689079936e-15 
       4.175469971226e+01       3.097873524138e-16 
       5.256605252960e+01       1.052836211188e-18 
       6.617673932723e+01       1.282997003460e-18 
