# Matter power spectrum P(k) at redshift z=0
# for k=1.04775e-05 to 66.1767 h/Mpc,
# number of wavenumbers equal to 130
#    1:k (h/Mpc)              2:P (Mpc/h)^3        
       1.047750691046e-05       5.020964811307e+01 
       1.319039970183e-05       6.270562594783e+01 
       1.660572937635e-05       7.831147247912e+01 
       2.090537469327e-05       9.780108069296e+01 
       2.631830744443e-05       1.221408203809e+02 
       3.313278603720e-05       1.525374501932e+02 
       4.171170630578e-05       1.904975994010e+02 
       5.251192703764e-05       2.379022224249e+02 
       6.610859936996e-05       2.970989227881e+02 
       8.322579568497e-05       3.710167318945e+02 
       1.047750691046e-04       4.633080766742e+02 
       1.319039970183e-04       5.785234129341e+02 
       1.660572937635e-04       7.223242666092e+02 
       2.090537469327e-04       9.017396271824e+02 
       2.631830744443e-04       1.125468123750e+03 
       3.313278603720e-04       1.404223053681e+03 
       4.171170630578e-04       1.751108028790e+03 
       5.251192703764e-04       2.181998448133e+03 
       6.610859936996e-04       2.715889983592e+03 
       8.322579568497e-04       3.375152337135e+03 
       1.047750691046e-03       4.185552174306e+03 
       1.319039970183e-03       5.175742741969e+03 
       1.660572937635e-03       6.376123051776e+03 
       2.090537469327e-03       7.815671866092e+03 
       2.631830744443e-03       9.517783069112e+03 
       3.313278603720e-03       1.149357460344e+04 
       4.171170630578e-03       1.373266013883e+04 
       5.251192703764e-03       1.619063614555e+04 
       6.610859936996e-03       1.877460373209e+04 
       8.322579568497e-03       2.132606702572e+04 
       1.047750691046e-02       2.360548859542e+04 
       1.319039970183e-02       2.528218701139e+04 
       1.660572937633e-02       2.595027968568e+04 
       2.090537453514e-02       2.520932286785e+04 
       2.631818545635e-02       2.287034164133e+04 
       3.311571692125e-02       1.928622929704e+04 
       4.113809243311e-02       1.568430462333e+04 
       4.792590854610e-02       1.361063223848e+04 
       5.284436902701e-02       1.259130803509e+04 
       5.689644391095e-02       1.195554435975e+04 
       6.051252627066e-02       1.147546958709e+04 
       6.388413457411e-02       1.105590442670e+04 
       6.711249296401e-02       1.064897778561e+04 
       7.025823437965e-02       1.022928253322e+04 
       7.336115587705e-02       9.784524097054e+03 
       7.644928796912e-02       9.311655988800e+03 
       7.954353299775e-02       8.814542684309e+03 
       8.266024078725e-02       8.302116745038e+03 
       8.581273398637e-02       7.786951527192e+03 
       8.901225918437e-02       7.283180476640e+03 
       9.226860540985e-02       6.805169257912e+03 
       9.559052048996e-02       6.365646807305e+03 
       9.898599946599e-02       5.974386466245e+03 
       1.024624891378e-01       5.637329215950e+03 
       1.060270359164e-01       5.355770773643e+03 
       1.096863943056e-01       5.126219641294e+03 
       1.134471073830e-01       4.940477117003e+03 
       1.173155669539e-01       4.786160260037e+03 
       1.212980586983e-01       4.647946877194e+03 
       1.254007961065e-01       4.509122255818e+03 
       1.296299459934e-01       4.354546064472e+03 
       1.339916477160e-01       4.173214445760e+03 
       1.384920277736e-01       3.961167169379e+03 
       1.431372111762e-01       3.722687863907e+03 
       1.479333307714e-01       3.469548637004e+03 
       1.528865355934e-01       3.218342401822e+03 
       1.580029992204e-01       2.986286691302e+03 
       1.632889290723e-01       2.786969846647e+03 
       1.687505775527e-01       2.626834082015e+03 
       1.743942559171e-01       2.503751021619e+03 
       1.802263517371e-01       2.407339635203e+03 
       1.862533508214e-01       2.322250866671e+03 
       1.924818644494e-01       2.231553388499e+03 
       1.989186627765e-01       2.122191523436e+03 
       2.055707152847e-01       1.992027993700e+03 
       2.124452391818e-01       1.850323211297e+03 
       2.195497567139e-01       1.712182127122e+03 
       2.268921624510e-01       1.590990371520e+03 
       2.344808017550e-01       1.493666983793e+03 
       2.423245618548e-01       1.418306636393e+03 
       2.504329772620e-01       1.354469252822e+03 
       2.588163516754e-01       1.288935026870e+03 
       2.674858990930e-01       1.213936945594e+03 
       2.764539076010e-01       1.130689244177e+03 
       2.857339303080e-01       1.048100225199e+03 
       2.953410092148e-01       9.761855688275e+02 
       3.052919395542e-01       9.178118594142e+02 
       3.156055844677e-01       8.678964780521e+02 
       3.263032530092e-01       8.185263163768e+02 
       3.374091587054e-01       7.651447308573e+02 
       3.489509817175e-01       7.106716729865e+02 
       3.609605657343e-01       6.607855233680e+02 
       3.734747921333e-01       6.180845515235e+02 
       3.865366902904e-01       5.793098842360e+02 
       4.001968667448e-01       5.403903493786e+02 
       4.145153713076e-01       5.011508872239e+02 
       4.295641718077e-01       4.644989679532e+02 
       4.454304922144e-01       4.314080317789e+02 
       4.622214006969e-01       4.001135010453e+02 
       4.800702491654e-01       3.690893855486e+02 
       4.991459272112e-01       3.394755601734e+02 
       5.196665217302e-01       3.119846946811e+02 
       5.419201087032e-01       2.852470721411e+02 
       5.662975451962e-01       2.593306449587e+02 
       5.933463737275e-01       2.345472323332e+02 
       6.238638458458e-01       2.102310203273e+02 
       6.590669257916e-01       1.864329436356e+02 
       7.009246080454e-01       1.627249401220e+02 
       7.528593308799e-01       1.388182319895e+02 
       8.213469537518e-01       1.141880892659e+02 
       9.196980813302e-01       8.835924191408e+01 
       1.075112183810e+00       6.172648881106e+01 
       1.322697471132e+00       3.804267602606e+01 
       1.662328205042e+00       2.209793050015e+01 
       2.092692408506e+00       1.266915204531e+01 
       2.634543445090e+00       7.203266632189e+00 
       3.316693691389e+00       4.065068378560e+00 
       4.175469971226e+00       2.278528069030e+00 
       5.256605252960e+00       1.269263513387e+00 
       6.617673932723e+00       7.030470510318e-01 
       8.331157880872e+00       3.873854478427e-01 
       1.048830636590e+01       2.124210632571e-01 
       1.320399541071e+01       1.159475328066e-01 
       1.662284535976e+01       6.300898645219e-02 
       2.092692243973e+01       3.409108451778e-02 
       2.634543445002e+01       1.835861302772e-02 
       3.316693691389e+01       9.833280954922e-03 
       4.175469971226e+01       5.230587463940e-03 
       5.256605252960e+01       2.755149976173e-03 
       6.617673932723e+01       1.429414996208e-03 
