# Matter power spectrum P(k) at redshift z=0
# for k=1.04775e-05 to 66.1767 h/Mpc,
# number of wavenumbers equal to 130
#    1:k (h/Mpc)              2:P (Mpc/h)^3        
       1.047750691046e-05       5.020964811312e+01 
       1.319039970183e-05       6.270562594776e+01 
       1.660572937635e-05       7.831147247912e+01 
       2.090537469327e-05       9.780108069295e+01 
       2.631830744443e-05       1.221408203810e+02 
       3.313278603720e-05       1.525374501932e+02 
       4.171170630578e-05       1.904975994010e+02 
       5.251192703764e-05       2.379022224249e+02 
       6.610859936996e-05       2.970989227881e+02 
       8.322579568497e-05       3.710167318945e+02 
       1.047750691046e-04       4.633080766742e+02 
       1.319039970183e-04       5.785234129335e+02 
       1.660572937635e-04       7.223242666092e+02 
       2.090537469327e-04       9.017396271824e+02 
       2.631830744443e-04       1.125468123750e+03 
       3.313278603720e-04       1.404223053681e+03 
       4.171170630578e-04       1.751108028790e+03 
       5.251192703764e-04       2.181998448133e+03 
       6.610859936996e-04       2.715889983592e+03 
       8.322579568497e-04       3.375152337134e+03 
       1.047750691046e-03       4.185552174309e+03 
       1.319039970183e-03       5.175742744058e+03 
       1.660572937635e-03       6.376123051779e+03 
       2.090537469327e-03       7.815671866310e+03 
       2.631830744443e-03       9.517783069112e+03 
       3.313278603720e-03       1.149357460345e+04 
       4.171170630578e-03       1.373266011719e+04 
       5.251192703764e-03       1.619063614560e+04 
       6.610859936996e-03       1.877460424125e+04 
       8.322579568497e-03       2.132606600156e+04 
       1.047750691046e-02       2.360548304652e+04 
       1.319039970183e-02       2.528218940871e+04 
       1.660572937633e-02       2.595028382921e+04 
       2.090537453514e-02       2.520933774761e+04 
       2.631818545635e-02       2.287038248159e+04 
       3.311571692125e-02       1.928622930391e+04 
       4.113809243311e-02       1.568428213340e+04 
       4.792590854610e-02       1.361062341279e+04 
       5.284436902701e-02       1.259132573090e+04 
       5.689644391095e-02       1.195556481284e+04 
       6.051252627066e-02       1.147547439605e+04 
       6.388413457411e-02       1.105590046288e+04 
       6.711249296401e-02       1.064898687036e+04 
       7.025823437965e-02       1.022927645497e+04 
       7.336115587705e-02       9.784524405470e+03 
       7.644928796912e-02       9.311651643182e+03 
       7.954353299775e-02       8.814544846625e+03 
       8.266024078725e-02       8.302097522050e+03 
       8.581273398637e-02       7.786965683868e+03 
       8.901225918437e-02       7.283168673628e+03 
       9.226860540985e-02       6.805168405843e+03 
       9.559052048996e-02       6.365634645093e+03 
       9.898599946599e-02       5.974398952098e+03 
       1.024624891378e-01       5.637311842457e+03 
       1.060270359164e-01       5.355763807904e+03 
       1.096863943056e-01       5.126251770406e+03 
       1.134471073830e-01       4.940478607278e+03 
       1.173155669539e-01       4.786165439541e+03 
       1.212980586983e-01       4.647933482213e+03 
       1.254007961065e-01       4.509150948084e+03 
       1.296299459934e-01       4.354549583827e+03 
       1.339916477160e-01       4.173209886902e+03 
       1.384920277736e-01       3.961164227057e+03 
       1.431372111762e-01       3.722688582683e+03 
       1.479333307714e-01       3.469546785828e+03 
       1.528865355934e-01       3.218345771191e+03 
       1.580029992204e-01       2.986288330619e+03 
       1.632889290723e-01       2.786966903067e+03 
       1.687505775527e-01       2.626826732864e+03 
       1.743942559171e-01       2.503757431449e+03 
       1.802263517371e-01       2.407343053347e+03 
       1.862533508214e-01       2.322253940250e+03 
       1.924818644494e-01       2.231551210696e+03 
       1.989186627765e-01       2.122192369612e+03 
       2.055707152847e-01       1.992028738453e+03 
       2.124452391818e-01       1.850325951579e+03 
       2.195497567139e-01       1.712184079016e+03 
       2.268921624510e-01       1.590989119272e+03 
       2.344808017550e-01       1.493667560451e+03 
       2.423245618548e-01       1.418312585082e+03 
       2.504329772620e-01       1.354463297652e+03 
       2.588163516754e-01       1.288934729664e+03 
       2.674858990930e-01       1.213939362033e+03 
       2.764539076010e-01       1.130691965386e+03 
       2.857339303080e-01       1.048100265894e+03 
       2.953410092148e-01       9.761824583071e+02 
       3.052919395542e-01       9.178091002875e+02 
       3.156055844677e-01       8.678987604274e+02 
       3.263032530092e-01       8.185284754644e+02 
       3.374091587054e-01       7.651442921159e+02 
       3.489509817175e-01       7.106705186249e+02 
       3.609605657343e-01       6.607880858472e+02 
       3.734747921333e-01       6.180865923278e+02 
       3.865366902904e-01       5.793104941850e+02 
       4.001968667448e-01       5.403920206003e+02 
       4.145153713076e-01       5.011508859294e+02 
       4.295641718077e-01       4.644990377816e+02 
       4.454304922144e-01       4.314096743839e+02 
       4.622214006969e-01       4.001140782669e+02 
       4.800702491654e-01       3.690895879793e+02 
       4.991459272112e-01       3.394769580750e+02 
       5.196665217302e-01       3.119862339660e+02 
       5.419201087032e-01       2.852462391299e+02 
       5.662975451962e-01       2.593302745884e+02 
       5.933463737275e-01       2.345477761219e+02 
       6.238638458458e-01       2.102303426207e+02 
       6.590669257916e-01       1.864334097069e+02 
       7.009246080454e-01       1.627257567678e+02 
       7.528593308799e-01       1.388187552648e+02 
       8.213469537518e-01       1.141882446465e+02 
       9.196980813302e-01       8.835908628351e+01 
       1.075112183810e+00       6.172637790853e+01 
       1.322697471132e+00       3.804270090601e+01 
       1.662328205042e+00       2.209806920222e+01 
       2.092692408506e+00       1.266920141613e+01 
       2.634543445090e+00       7.203343734111e+00 
       3.316693691389e+00       4.065138741466e+00 
       4.175469971226e+00       2.278611620820e+00 
       5.256605252960e+00       1.269354501023e+00 
       6.617673932723e+00       7.031399384567e-01 
       8.331157880872e+00       3.874790634017e-01 
       1.048830636590e+01       2.125106337345e-01 
       1.320399541071e+01       1.160364059180e-01 
       1.662284535976e+01       6.309893492340e-02 
       2.092692243973e+01       3.417984159241e-02 
       2.634543445002e+01       1.844597727895e-02 
       3.316693691389e+01       9.919154992091e-03 
       4.175469971226e+01       5.314600261922e-03 
       5.256605252960e+01       2.836690120621e-03 
       6.617673932723e+01       1.507695372782e-03 
