# Matter power spectrum P(k) at redshift z=99
# for k=1.04775e-05 to 67.6233 h/Mpc,
# number of wavenumbers equal to 246
#    1:k (h/Mpc)              2:P (Mpc/h)^3        
       1.047750691046e-05       7.261927680863e-03 
       1.131335172503e-05       7.820331652432e-03 
       1.221587619537e-05       8.421675995454e-03 
       1.319039970183e-05       9.069258201850e-03 
       1.424266597921e-05       9.766638412134e-03 
       1.537887696968e-05       1.051764070801e-02 
       1.660572937635e-05       1.132639106725e-02 
       1.793045413292e-05       1.219733232715e-02 
       1.936085902198e-05       1.313524225779e-02 
       2.090537469327e-05       1.414527123399e-02 
       2.257310435294e-05       1.523296273823e-02 
       2.437387741694e-05       1.640429446288e-02 
       2.631830744443e-05       1.766569584058e-02 
       2.841785469300e-05       1.902408737005e-02 
       3.068489366414e-05       2.048692972773e-02 
       3.313278603720e-05       2.206225515943e-02 
       3.577595942169e-05       2.375870707438e-02 
       3.862999239199e-05       2.558560730203e-02 
       4.171170630578e-05       2.755297766277e-02 
       4.503926444729e-05       2.967161930473e-02 
       4.863227907969e-05       3.195316454234e-02 
       5.251192703764e-05       3.441013522948e-02 
       5.670107454120e-05       3.705601726471e-02 
       6.122441196689e-05       3.990533417797e-02 
       6.610859936996e-05       4.297372172778e-02 
       7.138242361596e-05       4.627802146615e-02 
       7.707696804727e-05       4.983636199465e-02 
       8.322579568497e-05       5.366826852945e-02 
       8.986514704559e-05       5.779476400721e-02 
       9.703415373875e-05       6.223848250511e-02 
       1.047750691046e-04       6.702379872775e-02 
       1.131335172503e-04       7.217695161065e-02 
       1.221587619537e-04       7.772619081846e-02 
       1.319039970183e-04       8.370193441286e-02 
       1.424266597921e-04       9.013692517145e-02 
       1.537887696968e-04       9.706641252904e-02 
       1.660572937635e-04       1.045283355384e-01 
       1.793045413292e-04       1.125635350267e-01 
       1.936085902198e-04       1.212159616259e-01 
       2.090537469327e-04       1.305329134104e-01 
       2.257310435294e-04       1.405652847711e-01 
       2.437387741694e-04       1.513678304151e-01 
       2.631830744443e-04       1.629994506606e-01 
       2.841785469300e-04       1.755234923093e-01 
       3.068489366414e-04       1.890080672425e-01 
       3.313278603720e-04       2.035264004602e-01 
       3.577595942169e-04       2.191571806014e-01 
       3.862999239199e-04       2.359849440103e-01 
       4.171170630578e-04       2.541004744243e-01 
       4.503926444729e-04       2.736012083189e-01 
       4.863227907969e-04       2.945916794100e-01 
       5.251192703764e-04       3.171839528557e-01 
       5.670107454121e-04       3.414980767635e-01 
       6.122441196689e-04       3.676625417012e-01 
       6.610859936996e-04       3.958147256514e-01 
       7.138242361596e-04       4.261013289355e-01 
       7.707696804727e-04       4.586787797353e-01 
       8.322579568497e-04       4.937136006287e-01 
       8.986514704559e-04       5.313826807049e-01 
       9.703415373875e-04       5.718734978234e-01 
       1.047750691046e-03       6.153841636041e-01 
       1.131335172503e-03       6.621233246496e-01 
       1.221587619537e-03       7.123098227991e-01 
       1.319039970183e-03       7.661720592803e-01 
       1.424266597921e-03       8.239546306464e-01 
       1.537887696968e-03       8.859011182852e-01 
       1.660572937635e-03       9.522588016486e-01 
       1.793045413292e-03       1.023280100902e+00 
       1.936085902198e-03       1.099216305740e+00 
       2.090537469327e-03       1.180312991699e+00 
       2.257310435294e-03       1.266804117184e+00 
       2.437387741694e-03       1.358904854833e+00 
       2.631830744443e-03       1.456802684685e+00 
       2.841785469300e-03       1.560646892156e+00 
       3.068489366414e-03       1.670536064244e+00 
       3.313278603720e-03       1.786503854040e+00 
       3.577595942169e-03       1.908502932768e+00 
       3.862999239199e-03       2.036387732812e+00 
       4.171170630578e-03       2.169896193530e+00 
       4.503926444729e-03       2.308631881353e+00 
       4.863227907969e-03       2.452047293451e+00 
       5.251192703764e-03       2.599430630709e+00 
       5.670107454120e-03       2.749896934599e+00 
       6.122441196689e-03       2.902386516250e+00 
       6.610859936996e-03       3.055668701726e+00 
       7.138242361596e-03       3.208356464617e+00 
       7.707696804727e-03       3.358923895512e+00 
       8.322579568496e-03       3.505725598438e+00 
       8.986514704559e-03       3.647009257255e+00 
       9.703415373875e-03       3.780923307641e+00 
       1.047750691046e-02       3.905490356076e+00 
       1.131335172503e-02       4.018588043352e+00 
       1.221587619537e-02       4.117901697591e+00 
       1.319039970183e-02       4.200915406581e+00 
       1.424266597920e-02       4.264942529550e+00 
       1.537887696964e-02       4.307217389646e+00 
       1.660572937560e-02       4.325062865551e+00 
       1.793045412207e-02       4.316057043264e+00 
       1.936085889642e-02       4.278230747684e+00 
       2.090537351881e-02       4.210200373169e+00 
       2.257309534705e-02       4.111417436382e+00 
       2.437382002240e-02       3.982418133291e+00 
       2.631799943729e-02       3.825169746394e+00 
       2.841644544598e-02       3.643279745951e+00 
       3.067933354524e-02       3.442195744655e+00 
       3.311368469821e-02       3.229239656732e+00 
       3.571840442514e-02       3.013515407640e+00 
       3.847720347390e-02       2.805293341617e+00 
       4.135335537314e-02       2.614417206077e+00 
       4.429361666563e-02       2.448137478640e+00 
       4.724366437916e-02       2.309238138515e+00 
       5.016480834039e-02       2.196114394050e+00 
       5.303989618930e-02       2.104367258797e+00 
       5.586870668205e-02       2.028462646267e+00 
       5.866042679206e-02       1.963152073681e+00 
       6.142798931504e-02       1.903782094964e+00 
       6.418496438662e-02       1.846479667873e+00 
       6.694418832236e-02       1.788201045502e+00 
       6.971731104453e-02       1.726717906510e+00 
       7.251476154108e-02       1.660652625392e+00 
       7.534587669814e-02       1.589470473208e+00 
       7.821907664495e-02       1.513435279594e+00 
       8.114203771084e-02       1.433566935761e+00 
       8.412184533139e-02       1.351495582471e+00 
       8.716512277352e-02       1.269274393450e+00 
       9.027813693913e-02       1.189192433568e+00 
       9.346688429613e-02       1.113498837639e+00 
       9.673716026122e-02       1.044175554324e+00 
       1.000946150608e-01       9.827078817325e-01 
       1.035447986307e-01       9.299373781886e-01 
       1.070931966524e-01       8.859603422374e-01 
       1.107452594180e-01       8.500708606401e-01 
       1.145064248899e-01       8.208031948816e-01 
       1.183821370656e-01       7.960270102258e-01 
       1.223778605591e-01       7.731465323603e-01 
       1.264990921707e-01       7.494512039560e-01 
       1.307513701078e-01       7.225582066360e-01 
       1.351402814485e-01       6.909087926048e-01 
       1.396714683894e-01       6.541811068334e-01 
       1.443506337875e-01       6.134272752640e-01 
       1.491835464900e-01       5.708682808959e-01 
       1.541760469368e-01       5.293638386098e-01 
       1.593340535209e-01       4.917101780933e-01 
       1.646635701934e-01       4.599204988056e-01 
       1.701706958081e-01       4.347291143135e-01 
       1.758616357070e-01       4.154083036059e-01 
       1.817427160581e-01       3.999371412026e-01 
       1.878204014651e-01       3.856827164012e-01 
       1.941013163855e-01       3.698094274691e-01 
       2.005922709060e-01       3.505461751912e-01 
       2.073002914514e-01       3.280437382168e-01 
       2.142326570343e-01       3.042134551048e-01 
       2.213969417044e-01       2.816120042888e-01 
       2.288010639201e-01       2.622565949615e-01 
       2.364533436625e-01       2.469619478684e-01 
       2.443625682390e-01       2.350130978557e-01 
       2.525380678946e-01       2.244174891818e-01 
       2.609898025770e-01       2.130933209528e-01 
       2.697284614969e-01       2.001017138617e-01 
       2.787655775073e-01       1.860195915260e-01 
       2.881136588192e-01       1.725164736049e-01 
       2.977863412019e-01       1.610658221682e-01 
       3.077985646248e-01       1.517605458537e-01 
       3.181667793367e-01       1.435587898564e-01 
       3.289091877084e-01       1.351812539822e-01 
       3.400460298905e-01       1.261638558346e-01 
       3.515999235695e-01       1.172015846287e-01 
       3.635962710278e-01       1.091762342115e-01 
       3.760637505499e-01       1.023090810592e-01 
       3.890349143014e-01       9.593742255823e-02 
       4.025469215929e-01       8.950730122967e-02 
       4.166424455447e-01       8.311151272687e-02 
       4.313708034899e-01       7.721512488848e-02 
       4.467893781976e-01       7.190007451696e-02 
       4.629654198623e-01       6.686863928101e-02 
       4.799783500912e-01       6.191709782840e-02 
       4.979227318246e-01       5.722183012267e-02 
       5.169121269689e-01       5.290249565532e-02 
       5.370841403262e-01       4.876928581422e-02 
       5.586070463286e-01       4.479037598387e-02 
       5.816885093582e-01       4.105130587255e-02 
       6.065870143577e-01       3.748935979148e-02 
       6.336266466978e-01       3.407575854852e-02 
       6.632156057925e-01       3.083408164897e-02 
       6.958678637575e-01       2.772777568868e-02 
       7.322247983784e-01       2.476651519515e-02 
       7.730680193171e-01       2.193898750738e-02 
       8.193049551574e-01       1.925554843132e-02 
       8.718988013754e-01       1.672864202389e-02 
       9.317218028590e-01       1.438365911261e-02 
       9.993660906273e-01       1.224999234549e-02 
       1.075037109879e+00       1.035193214465e-02 
       1.158653485387e+00       8.699044135680e-03 
       1.250099156961e+00       7.283890055019e-03 
       1.349432400897e+00       6.084736448066e-03 
       1.456947456991e+00       5.074999520604e-03 
       1.573135110893e+00       4.227557340615e-03 
       1.698621895119e+00       3.517801864058e-03 
       1.834127512423e+00       2.924213569870e-03 
       1.980444933977e+00       2.428374338623e-03 
       2.138435191130e+00       2.014708734989e-03 
       2.309029198543e+00       1.669964985261e-03 
       2.493232376993e+00       1.382979838277e-03 
       2.692130394536e+00       1.144302236045e-03 
       2.906895533764e+00       9.460138267679e-04 
       3.138793596840e+00       7.814429150187e-04 
       3.389191365541e+00       6.449680218752e-04 
       3.659564656886e+00       5.319023460860e-04 
       3.951507021438e+00       4.383115319481e-04 
       4.266739135513e+00       3.609092911725e-04 
       4.607118942658e+00       2.969399748324e-04 
       4.974652604172e+00       2.441215201162e-04 
       5.371506323193e+00       2.005370684986e-04 
       5.800019112071e+00       1.646034786876e-04 
       6.262716578240e+00       1.349954248251e-04 
       6.762325809881e+00       1.106182909117e-04 
       7.301791449077e+00       9.056006746759e-05 
       7.884293047211e+00       7.406893119909e-05 
       8.513263804891e+00       6.051728539129e-05 
       9.192410806865e+00       4.938865231101e-05 
       9.925736871166e+00       4.025572139301e-05 
       1.071756414128e+01       3.276534823147e-05 
       1.157255956041e+01       2.662590320065e-05 
       1.249576237789e+01       2.159710152004e-05 
       1.349261385000e+01       1.748122444156e-05 
       1.456898931011e+01       1.411477413338e-05 
       1.573123279727e+01       1.136359796232e-05 
       1.698619444729e+01       9.117500608403e-06 
       1.834127086665e+01       7.285739864342e-06 
       1.980444872733e+01       5.793992449592e-06 
       2.138435183937e+01       4.581216839696e-06 
       2.309029197863e+01       3.597318625709e-06 
       2.493232376942e+01       2.801334996295e-06 
       2.692130394533e+01       2.159631037962e-06 
       2.906895533764e+01       1.644740150767e-06 
       3.138793596840e+01       1.234070022813e-06 
       3.389191365541e+01       9.091147069816e-07 
       3.659564656886e+01       6.546695374967e-07 
       3.951507021438e+01       4.581260609255e-07 
       4.266739135513e+01       3.090418626128e-07 
       4.607118942658e+01       1.986775123796e-07 
       4.974652604172e+01       1.196260213569e-07 
       5.371506323193e+01       6.555468417355e-08 
       5.800019112071e+01       3.100349678304e-08 
       6.262716578240e+01       1.122321038895e-08 
       6.762325809881e+01       2.081503197299e-09 
