# Matter power spectrum P(k) at redshift z=0
# for k=1.04775e-05 to 66.1767 h/Mpc,
# number of wavenumbers equal to 130
#    1:k (h/Mpc)              2:P (Mpc/h)^3        
       1.047750691046e-05       5.020964811313e+01 
       1.319039970183e-05       6.270562594827e+01 
       1.660572937635e-05       7.831147247912e+01 
       2.090537469327e-05       9.780108069322e+01 
       2.631830744443e-05       1.221408203810e+02 
       3.313278603720e-05       1.525374501932e+02 
       4.171170630578e-05       1.904975994007e+02 
       5.251192703764e-05       2.379022224247e+02 
       6.610859936996e-05       2.970989227885e+02 
       8.322579568497e-05       3.710167318946e+02 
       1.047750691046e-04       4.633080766742e+02 
       1.319039970183e-04       5.785234129343e+02 
       1.660572937635e-04       7.223242666092e+02 
       2.090537469327e-04       9.017396271824e+02 
       2.631830744443e-04       1.125468123750e+03 
       3.313278603720e-04       1.404223053681e+03 
       4.171170630578e-04       1.751108028790e+03 
       5.251192703764e-04       2.181998448133e+03 
       6.610859936996e-04       2.715889983593e+03 
       8.322579568497e-04       3.375152337133e+03 
       1.047750691046e-03       4.185552174301e+03 
       1.319039970183e-03       5.175742738796e+03 
       1.660572937635e-03       6.376123051756e+03 
       2.090537469327e-03       7.815671865437e+03 
       2.631830744443e-03       9.517783068738e+03 
       3.313278603720e-03       1.149357460231e+04 
       4.171170630578e-03       1.373266008207e+04 
       5.251192703764e-03       1.619063613426e+04 
       6.610859936996e-03       1.877460315507e+04 
       8.322579568497e-03       2.132607226530e+04 
       1.047750691046e-02       2.360548458159e+04 
       1.319039970183e-02       2.528218669297e+04 
       1.660572937633e-02       2.595028705056e+04 
       2.090537453514e-02       2.520935104041e+04 
       2.631818545635e-02       2.287032769371e+04 
       3.311571692125e-02       1.928621489512e+04 
       4.113809243311e-02       1.568424025462e+04 
       4.792590854610e-02       1.361056317101e+04 
       5.284436902701e-02       1.259126910254e+04 
       5.689644391095e-02       1.195551400350e+04 
       6.051252627066e-02       1.147543241495e+04 
       6.388413457411e-02       1.105588417031e+04 
       6.711249296401e-02       1.064894353223e+04 
       7.025823437965e-02       1.022925445159e+04 
       7.336115587705e-02       9.784461256114e+03 
       7.644928796912e-02       9.311581724725e+03 
       7.954353299775e-02       8.814480998943e+03 
       8.266024078725e-02       8.302042492867e+03 
       8.581273398637e-02       7.786873691235e+03 
       8.901225918437e-02       7.283080355258e+03 
       9.226860540985e-02       6.805085225048e+03 
       9.559052048996e-02       6.365556660940e+03 
       9.898599946599e-02       5.974277247547e+03 
       1.024624891378e-01       5.637253197758e+03 
       1.060270359164e-01       5.355681848268e+03 
       1.096863943056e-01       5.126134272843e+03 
       1.134471073830e-01       4.940380551344e+03 
       1.173155669539e-01       4.786055601820e+03 
       1.212980586983e-01       4.647804645008e+03 
       1.254007961065e-01       4.508991172250e+03 
       1.296299459934e-01       4.354417099517e+03 
       1.339916477160e-01       4.173078997090e+03 
       1.384920277736e-01       3.961021361281e+03 
       1.431372111762e-01       3.722543137978e+03 
       1.479333307714e-01       3.469400596139e+03 
       1.528865355934e-01       3.218182998649e+03 
       1.580029992204e-01       2.986126856201e+03 
       1.632889290723e-01       2.786801348263e+03 
       1.687505775527e-01       2.626651548367e+03 
       1.743942559171e-01       2.503574608706e+03 
       1.802263517371e-01       2.407156759031e+03 
       1.862533508214e-01       2.322054339000e+03 
       1.924818644494e-01       2.231346603244e+03 
       1.989186627765e-01       2.121973441408e+03 
       2.055707152847e-01       1.991801266295e+03 
       2.124452391818e-01       1.850097268596e+03 
       2.195497567139e-01       1.711953629357e+03 
       2.268921624510e-01       1.590746435932e+03 
       2.344808017550e-01       1.493419600397e+03 
       2.423245618548e-01       1.418053712044e+03 
       2.504329772620e-01       1.354202144929e+03 
       2.588163516754e-01       1.288661831039e+03 
       2.674858990930e-01       1.213655526835e+03 
       2.764539076010e-01       1.130405840909e+03 
       2.857339303080e-01       1.047807243503e+03 
       2.953410092148e-01       9.758819171692e+02 
       3.052919395542e-01       9.175018955686e+02 
       3.156055844677e-01       8.675768746497e+02 
       3.263032530092e-01       8.181944498815e+02 
       3.374091587054e-01       7.648110913261e+02 
       3.489509817175e-01       7.103254912534e+02 
       3.609605657343e-01       6.604329430213e+02 
       3.734747921333e-01       6.177250272536e+02 
       3.865366902904e-01       5.789378853020e+02 
       4.001968667448e-01       5.400097936986e+02 
       4.145153713076e-01       5.007619775362e+02 
       4.295641718077e-01       4.641025910933e+02 
       4.454304922144e-01       4.310027517524e+02 
       4.622214006969e-01       3.996964736793e+02 
       4.800702491654e-01       3.686620090184e+02 
       4.991459272112e-01       3.390407193692e+02 
       5.196665217302e-01       3.115389630895e+02 
       5.419201087032e-01       2.847889598667e+02 
       5.662975451962e-01       2.588624477040e+02 
       5.933463737275e-01       2.340676120919e+02 
       6.238638458458e-01       2.097374617872e+02 
       6.590669257916e-01       1.859259190226e+02 
       7.009246080454e-01       1.622025862029e+02 
       7.528593308799e-01       1.382779390102e+02 
       8.213469537518e-01       1.136269073679e+02 
       9.196980813302e-01       8.777124681686e+01 
       1.075112183810e+00       6.110317188363e+01 
       1.322697471132e+00       3.737757946068e+01 
       1.662328205042e+00       2.139457585588e+01 
       2.092692408506e+00       1.193936069822e+01 
       2.634543445090e+00       6.464115872929e+00 
       3.316693691389e+00       3.339815224122e+00 
       4.175469971226e+00       1.597284137896e+00 
       5.256605252960e+00       6.674930459269e-01 
       6.617673932723e+00       2.159034537151e-01 
       8.331157880872e+00       3.847827390738e-02 
       1.048830636590e+01       1.135267754604e-04 
       1.320399541071e+01       7.891430966960e-03 
       1.662284535976e+01       1.131898311273e-02 
       2.092692243973e+01       4.288432733787e-03 
       2.634543445002e+01       1.068640457886e-04 
       3.316693691389e+01       2.774151856970e-04 
       4.175469971226e+01       8.812258909578e-05 
       5.256605252960e+01       5.678522011412e-06 
       6.617673932723e+01       1.890761140550e-06 
