# Matter power spectrum P(k) at redshift z=99
# for k=1.04775e-05 to 66.1767 h/Mpc,
# number of wavenumbers equal to 130
#    1:k (h/Mpc)              2:P (Mpc/h)^3        
       1.047750691046e-05       7.261927680861e-03 
       1.319039970183e-05       9.069258201848e-03 
       1.660572937635e-05       1.132639106725e-02 
       2.090537469327e-05       1.414527123399e-02 
       2.631830744443e-05       1.766569584058e-02 
       3.313278603720e-05       2.206225515942e-02 
       4.171170630578e-05       2.755297766277e-02 
       5.251192703764e-05       3.441013522947e-02 
       6.610859936996e-05       4.297372172777e-02 
       8.322579568497e-05       5.366826852944e-02 
       1.047750691046e-04       6.702379872774e-02 
       1.319039970183e-04       8.370193441285e-02 
       1.660572937635e-04       1.045283355384e-01 
       2.090537469327e-04       1.305329134104e-01 
       2.631830744443e-04       1.629994506605e-01 
       3.313278603720e-04       2.035264004601e-01 
       4.171170630578e-04       2.541004744243e-01 
       5.251192703764e-04       3.171839528557e-01 
       6.610859936996e-04       3.958147256513e-01 
       8.322579568497e-04       4.937136006265e-01 
       1.047750691046e-03       6.153841636042e-01 
       1.319039970183e-03       7.661720592360e-01 
       1.660572937635e-03       9.522588016468e-01 
       2.090537469327e-03       1.180312991699e+00 
       2.631830744443e-03       1.456802684686e+00 
       3.313278603720e-03       1.786503854038e+00 
       4.171170630578e-03       2.169896191639e+00 
       5.251192703764e-03       2.599430630723e+00 
       6.610859936996e-03       3.055668711116e+00 
       8.322579568497e-03       3.505725598690e+00 
       1.047750691046e-02       3.905490938269e+00 
       1.319039970183e-02       4.200915385995e+00 
       1.660572937633e-02       4.325061633387e+00 
       2.090537453514e-02       4.210194909773e+00 
       2.631818545635e-02       3.825145859162e+00 
       3.311571692125e-02       3.229071940168e+00 
       4.113809243311e-02       2.627729537483e+00 
       4.792590854610e-02       2.280790383115e+00 
       5.284436902701e-02       2.110080150785e+00 
       5.689644391095e-02       2.003537873707e+00 
       6.051252627066e-02       1.923054409473e+00 
       6.388413457411e-02       1.852734249217e+00 
       6.711249296401e-02       1.784563801296e+00 
       7.025823437965e-02       1.714276993676e+00 
       7.336115587705e-02       1.639815824664e+00 
       7.644928796912e-02       1.560662588703e+00 
       7.954353299775e-02       1.477457611212e+00 
       8.266024078725e-02       1.391696670725e+00 
       8.581273398637e-02       1.305463710716e+00 
       8.901225918437e-02       1.221126929909e+00 
       9.226860540985e-02       1.141079841934e+00 
       9.559052048996e-02       1.067456059277e+00 
       9.898599946599e-02       1.001889978788e+00 
       1.024624891378e-01       9.453813247154e-01 
       1.060270359164e-01       8.981500401354e-01 
       1.096863943056e-01       8.596130183915e-01 
       1.134471073830e-01       8.284050355720e-01 
       1.173155669539e-01       8.024668168965e-01 
       1.212980586983e-01       7.792290965300e-01 
       1.254007961065e-01       7.559185003969e-01 
       1.296299459934e-01       7.299829276635e-01 
       1.339916477160e-01       6.995919915483e-01 
       1.384920277736e-01       6.640783450235e-01 
       1.431372111762e-01       6.241462399783e-01 
       1.479333307714e-01       5.817634438814e-01 
       1.528865355934e-01       5.396931187330e-01 
       1.580029992204e-01       5.008135428922e-01 
       1.632889290723e-01       4.673979606065e-01 
       1.687505775527e-01       4.405339202027e-01 
       1.743942559171e-01       4.198649370927e-01 
       1.802263517371e-01       4.036610463646e-01 
       1.862533508214e-01       3.893598122849e-01 
       1.924818644494e-01       3.741351803171e-01 
       1.989186627765e-01       3.558024468050e-01 
       2.055707152847e-01       3.339986789888e-01 
       2.124452391818e-01       3.102659866621e-01 
       2.195497567139e-01       2.871234109999e-01 
       2.268921624510e-01       2.668084337069e-01 
       2.344808017550e-01       2.504838493430e-01 
       2.423245618548e-01       2.378331981286e-01 
       2.504329772620e-01       2.271121941057e-01 
       2.588163516754e-01       2.161170180418e-01 
       2.674858990930e-01       2.035455954063e-01 
       2.764539076010e-01       1.895975565358e-01 
       2.857339303080e-01       1.757568676089e-01 
       2.953410092148e-01       1.636999758782e-01 
       3.052919395542e-01       1.539064451725e-01 
       3.156055844677e-01       1.455308589045e-01 
       3.263032530092e-01       1.372501101940e-01 
       3.374091587054e-01       1.283018186575e-01 
       3.489509817175e-01       1.191712935301e-01 
       3.609605657343e-01       1.108074281998e-01 
       3.734747921333e-01       1.036453165011e-01 
       3.865366902904e-01       9.714155889926e-02 
       4.001968667448e-01       9.061563564063e-02 
       4.145153713076e-01       8.403719523611e-02 
       4.295641718077e-01       7.789145187460e-02 
       4.454304922144e-01       7.234176538542e-02 
       4.622214006969e-01       6.709355291083e-02 
       4.800702491654e-01       6.189194345486e-02 
       4.991459272112e-01       5.692629230022e-02 
       5.196665217302e-01       5.231612014663e-02 
       5.419201087032e-01       4.783260316602e-02 
       5.662975451962e-01       4.348698112384e-02 
       5.933463737275e-01       3.933111500581e-02 
       6.238638458458e-01       3.525337467080e-02 
       6.590669257916e-01       3.126298288899e-02 
       7.009246080454e-01       2.728746922566e-02 
       7.528593308799e-01       2.327849550614e-02 
       8.213469537518e-01       1.914825030534e-02 
       9.196980813302e-01       1.481705393335e-02 
       1.075112183810e+00       1.035094987080e-02 
       1.322697471132e+00       6.379457254827e-03 
       1.662328205042e+00       3.705667936800e-03 
       2.092692408506e+00       2.124549013469e-03 
       2.634543445090e+00       1.207969060151e-03 
       3.316693691389e+00       6.817130327828e-04 
       4.175469971226e+00       3.821250759187e-04 
       5.256605252960e+00       2.128757817462e-04 
       6.617673932723e+00       1.179233799327e-04 
       8.331157880872e+00       6.498779494613e-05 
       1.048830636590e+01       3.564541570167e-05 
       1.320399541071e+01       1.946623488355e-05 
       1.662284535976e+01       1.058771624578e-05 
       2.092692243973e+01       5.737179910354e-06 
       2.634543445002e+01       3.097898863739e-06 
       3.316693691389e+01       1.667257133843e-06 
       4.175469971226e+01       8.944616192317e-07 
       5.256605252960e+01       4.783613428856e-07 
       6.617673932723e+01       2.550090268008e-07 
