# Matter power spectrum P(k) at redshift z=99
# for k=1.04775e-05 to 66.1767 h/Mpc,
# number of wavenumbers equal to 130
#    1:k (h/Mpc)              2:P (Mpc/h)^3        
       1.047750691046e-05       7.261927680876e-03 
       1.319039970183e-05       9.069258201867e-03 
       1.660572937635e-05       1.132639106728e-02 
       2.090537469327e-05       1.414527123402e-02 
       2.631830744443e-05       1.766569584062e-02 
       3.313278603720e-05       2.206225515947e-02 
       4.171170630578e-05       2.755297766282e-02 
       5.251192703764e-05       3.441013522954e-02 
       6.610859936996e-05       4.297372172786e-02 
       8.322579568497e-05       5.366826852955e-02 
       1.047750691046e-04       6.702379872788e-02 
       1.319039970183e-04       8.370193441303e-02 
       1.660572937635e-04       1.045283355386e-01 
       2.090537469327e-04       1.305329134106e-01 
       2.631830744443e-04       1.629994506609e-01 
       3.313278603720e-04       2.035264004605e-01 
       4.171170630578e-04       2.541004744248e-01 
       5.251192703764e-04       3.171839528563e-01 
       6.610859936996e-04       3.958147256520e-01 
       8.322579568497e-04       4.937136006271e-01 
       1.047750691046e-03       6.153841636049e-01 
       1.319039970183e-03       7.661720592555e-01 
       1.660572937635e-03       9.522588016422e-01 
       2.090537469327e-03       1.180312991697e+00 
       2.631830744443e-03       1.456802684678e+00 
       3.313278603720e-03       1.786503854015e+00 
       4.171170630578e-03       2.169896193349e+00 
       5.251192703764e-03       2.599430630636e+00 
       6.610859936996e-03       3.055668699845e+00 
       8.322579568497e-03       3.505725598363e+00 
       1.047750691046e-02       3.905489977426e+00 
       1.319039970183e-02       4.200915258306e+00 
       1.660572937633e-02       4.325066017177e+00 
       2.090537453514e-02       4.210199581285e+00 
       2.631818545635e-02       3.825146789187e+00 
       3.311571692125e-02       3.229063572968e+00 
       4.113809243311e-02       2.627734035189e+00 
       4.792590854610e-02       2.280791001163e+00 
       5.284436902701e-02       2.110090353416e+00 
       5.689644391095e-02       2.003543084305e+00 
       6.051252627066e-02       1.923058033073e+00 
       6.388413457411e-02       1.852734440987e+00 
       6.711249296401e-02       1.784565794167e+00 
       7.025823437965e-02       1.714278182746e+00 
       7.336115587705e-02       1.639814238971e+00 
       7.644928796912e-02       1.560661182199e+00 
       7.954353299775e-02       1.477456248093e+00 
       8.266024078725e-02       1.391699810498e+00 
       8.581273398637e-02       1.305461334996e+00 
       8.901225918437e-02       1.221126081020e+00 
       9.226860540985e-02       1.141078325843e+00 
       9.559052048996e-02       1.067449120191e+00 
       9.898599946599e-02       1.001889324056e+00 
       1.024624891378e-01       9.453821582963e-01 
       1.060270359164e-01       8.981496330606e-01 
       1.096863943056e-01       8.596130788640e-01 
       1.134471073830e-01       8.284047900479e-01 
       1.173155669539e-01       8.024672389964e-01 
       1.212980586983e-01       7.792303750792e-01 
       1.254007961065e-01       7.559177443750e-01 
       1.296299459934e-01       7.299828710723e-01 
       1.339916477160e-01       6.995939713538e-01 
       1.384920277736e-01       6.640803047985e-01 
       1.431372111762e-01       6.241486281191e-01 
       1.479333307714e-01       5.817649094679e-01 
       1.528865355934e-01       5.396901855374e-01 
       1.580029992204e-01       5.008137639624e-01 
       1.632889290723e-01       4.673987394931e-01 
       1.687505775527e-01       4.405342785100e-01 
       1.743942559171e-01       4.198646637723e-01 
       1.802263517371e-01       4.036594806993e-01 
       1.862533508214e-01       3.893615576274e-01 
       1.924818644494e-01       3.741399828033e-01 
       1.989186627765e-01       3.558071157132e-01 
       2.055707152847e-01       3.340037228333e-01 
       2.124452391818e-01       3.102656881026e-01 
       2.195497567139e-01       2.871218161756e-01 
       2.268921624510e-01       2.668084670287e-01 
       2.344808017550e-01       2.504827931473e-01 
       2.423245618548e-01       2.378326596722e-01 
       2.504329772620e-01       2.271113822844e-01 
       2.588163516754e-01       2.161196114121e-01 
       2.674858990930e-01       2.035468540905e-01 
       2.764539076010e-01       1.895974157932e-01 
       2.857339303080e-01       1.757568700124e-01 
       2.953410092148e-01       1.636988846988e-01 
       3.052919395542e-01       1.539061143021e-01 
       3.156055844677e-01       1.455306141394e-01 
       3.263032530092e-01       1.372502818478e-01 
       3.374091587054e-01       1.283015445944e-01 
       3.489509817175e-01       1.191713855363e-01 
       3.609605657343e-01       1.108073065604e-01 
       3.734747921333e-01       1.036448806672e-01 
       3.865366902904e-01       9.714111496226e-02 
       4.001968667448e-01       9.061521057162e-02 
       4.145153713076e-01       8.403708130596e-02 
       4.295641718077e-01       7.789100277555e-02 
       4.454304922144e-01       7.234144548637e-02 
       4.622214006969e-01       6.709357923454e-02 
       4.800702491654e-01       6.189167569909e-02 
       4.991459272112e-01       5.692625377127e-02 
       5.196665217302e-01       5.231612733444e-02 
       5.419201087032e-01       4.783252661302e-02 
       5.662975451962e-01       4.348684584841e-02 
       5.933463737275e-01       3.933094179268e-02 
       6.238638458458e-01       3.525320298581e-02 
       6.590669257916e-01       3.126273881488e-02 
       7.009246080454e-01       2.728716014591e-02 
       7.528593308799e-01       2.327825499761e-02 
       8.213469537518e-01       1.914807763381e-02 
       9.196980813302e-01       1.481684456032e-02 
       1.075112183810e+00       1.035074320321e-02 
       1.322697471132e+00       6.379278082448e-03 
       1.662328205042e+00       3.705484269654e-03 
       2.092692408506e+00       2.124377635360e-03 
       2.634543445090e+00       1.207800183174e-03 
       3.316693691389e+00       6.815535757076e-04 
       4.175469971226e+00       3.819661900950e-04 
       5.256605252960e+00       2.127217684404e-04 
       6.617673932723e+00       1.177779566306e-04 
       8.331157880872e+00       6.485011366064e-05 
       1.048830636590e+01       3.551624907082e-05 
       1.320399541071e+01       1.934503105298e-05 
       1.662284535976e+01       1.047452172065e-05 
       2.092692243973e+01       5.631623613285e-06 
       2.634543445002e+01       2.999772332774e-06 
       3.316693691389e+01       1.576343686009e-06 
       4.175469971226e+01       8.107456852737e-07 
       5.256605252960e+01       4.022232670206e-07 
       6.617673932723e+01       1.873464887154e-07 
