# Matter power spectrum P(k) at redshift z=0
# for k=1.04775e-05 to 66.1767 h/Mpc,
# number of wavenumbers equal to 130
#    1:k (h/Mpc)              2:P (Mpc/h)^3        
       1.047750691046e-05       5.020964811306e+01 
       1.319039970183e-05       6.270562594779e+01 
       1.660572937635e-05       7.831147247912e+01 
       2.090537469327e-05       9.780108069294e+01 
       2.631830744443e-05       1.221408203809e+02 
       3.313278603720e-05       1.525374501932e+02 
       4.171170630578e-05       1.904975994009e+02 
       5.251192703764e-05       2.379022224249e+02 
       6.610859936996e-05       2.970989227881e+02 
       8.322579568497e-05       3.710167318945e+02 
       1.047750691046e-04       4.633080766742e+02 
       1.319039970183e-04       5.785234129338e+02 
       1.660572937635e-04       7.223242666092e+02 
       2.090537469327e-04       9.017396271824e+02 
       2.631830744443e-04       1.125468123750e+03 
       3.313278603720e-04       1.404223053681e+03 
       4.171170630578e-04       1.751108028790e+03 
       5.251192703764e-04       2.181998448133e+03 
       6.610859936996e-04       2.715889983593e+03 
       8.322579568497e-04       3.375152337135e+03 
       1.047750691046e-03       4.185552174305e+03 
       1.319039970183e-03       5.175742738954e+03 
       1.660572937635e-03       6.376123051776e+03 
       2.090537469327e-03       7.815671865634e+03 
       2.631830744443e-03       9.517783069112e+03 
       3.313278603720e-03       1.149357460344e+04 
       4.171170630578e-03       1.373266012793e+04 
       5.251192703764e-03       1.619063614524e+04 
       6.610859936996e-03       1.877460419007e+04 
       8.322579568497e-03       2.132607231932e+04 
       1.047750691046e-02       2.360548091955e+04 
       1.319039970183e-02       2.528218895602e+04 
       1.660572937633e-02       2.595026808443e+04 
       2.090537453514e-02       2.520934455432e+04 
       2.631818545635e-02       2.287031299497e+04 
       3.311571692125e-02       1.928625853122e+04 
       4.113809243311e-02       1.568428351493e+04 
       4.792590854610e-02       1.361062525685e+04 
       5.284436902701e-02       1.259133146185e+04 
       5.689644391095e-02       1.195555227654e+04 
       6.051252627066e-02       1.147548733425e+04 
       6.388413457411e-02       1.105588910260e+04 
       6.711249296401e-02       1.064897573374e+04 
       7.025823437965e-02       1.022931310441e+04 
       7.336115587705e-02       9.784531477538e+03 
       7.644928796912e-02       9.311638005654e+03 
       7.954353299775e-02       8.814535604846e+03 
       8.266024078725e-02       8.302111719767e+03 
       8.581273398637e-02       7.786972563912e+03 
       8.901225918437e-02       7.283202384388e+03 
       9.226860540985e-02       6.805139985112e+03 
       9.559052048996e-02       6.365519427339e+03 
       9.898599946599e-02       5.974398458925e+03 
       1.024624891378e-01       5.637331883527e+03 
       1.060270359164e-01       5.355784452351e+03 
       1.096863943056e-01       5.126238491617e+03 
       1.134471073830e-01       4.940489195605e+03 
       1.173155669539e-01       4.786154905752e+03 
       1.212980586983e-01       4.647924376999e+03 
       1.254007961065e-01       4.509147102419e+03 
       1.296299459934e-01       4.354542389648e+03 
       1.339916477160e-01       4.173225894012e+03 
       1.384920277736e-01       3.961158371048e+03 
       1.431372111762e-01       3.722675583529e+03 
       1.479333307714e-01       3.469556724946e+03 
       1.528865355934e-01       3.218349366604e+03 
       1.580029992204e-01       2.986298847902e+03 
       1.632889290723e-01       2.786965193518e+03 
       1.687505775527e-01       2.626825378319e+03 
       1.743942559171e-01       2.503750848614e+03 
       1.802263517371e-01       2.407332005305e+03 
       1.862533508214e-01       2.322255202128e+03 
       1.924818644494e-01       2.231557433691e+03 
       1.989186627765e-01       2.122184025100e+03 
       2.055707152847e-01       1.992025331561e+03 
       2.124452391818e-01       1.850320749664e+03 
       2.195497567139e-01       1.712166386585e+03 
       2.268921624510e-01       1.590984948096e+03 
       2.344808017550e-01       1.493663899267e+03 
       2.423245618548e-01       1.418306231324e+03 
       2.504329772620e-01       1.354466389901e+03 
       2.588163516754e-01       1.288931713687e+03 
       2.674858990930e-01       1.213926641817e+03 
       2.764539076010e-01       1.130694449833e+03 
       2.857339303080e-01       1.048098335594e+03 
       2.953410092148e-01       9.761814330311e+02 
       3.052919395542e-01       9.178082031463e+02 
       3.156055844677e-01       8.678943958796e+02 
       3.263032530092e-01       8.185259344955e+02 
       3.374091587054e-01       7.651444333503e+02 
       3.489509817175e-01       7.106702299627e+02 
       3.609605657343e-01       6.607840347760e+02 
       3.734747921333e-01       6.180856137416e+02 
       3.865366902904e-01       5.793089153315e+02 
       4.001968667448e-01       5.403893778359e+02 
       4.145153713076e-01       5.011491328457e+02 
       4.295641718077e-01       4.644969116075e+02 
       4.454304922144e-01       4.314069018128e+02 
       4.622214006969e-01       4.001127323229e+02 
       4.800702491654e-01       3.690882202629e+02 
       4.991459272112e-01       3.394755617972e+02 
       5.196665217302e-01       3.119835307672e+02 
       5.419201087032e-01       2.852452260958e+02 
       5.662975451962e-01       2.593299966809e+02 
       5.933463737275e-01       2.345463320091e+02 
       6.238638458458e-01       2.102300628695e+02 
       6.590669257916e-01       1.864329343977e+02 
       7.009246080454e-01       1.627243946096e+02 
       7.528593308799e-01       1.388178832571e+02 
       8.213469537518e-01       1.141878504422e+02 
       9.196980813302e-01       8.835897220119e+01 
       1.075112183810e+00       6.172589251898e+01 
       1.322697471132e+00       3.804253404281e+01 
       1.662328205042e+00       2.209788316289e+01 
       2.092692408506e+00       1.266906981719e+01 
       2.634543445090e+00       7.203277816838e+00 
       3.316693691389e+00       4.065113505871e+00 
       4.175469971226e+00       2.278578772532e+00 
       5.256605252960e+00       1.269302420316e+00 
       6.617673932723e+00       7.030984316666e-01 
       8.331157880872e+00       3.874406128764e-01 
       1.048830636590e+01       2.124697247797e-01 
       1.320399541071e+01       1.159926935632e-01 
       1.662284535976e+01       6.305189993612e-02 
       2.092692243973e+01       3.412869867768e-02 
       2.634543445002e+01       1.839131449235e-02 
       3.316693691389e+01       9.860047442279e-03 
       4.175469971226e+01       5.250979547283e-03 
       5.256605252960e+01       2.768893086951e-03 
       6.617673932723e+01       1.436328508226e-03 
