# Matter power spectrum P(k) at redshift z=99
# for k=1.04775e-05 to 67.6233 h/Mpc,
# number of wavenumbers equal to 246
#    1:k (h/Mpc)              2:P (Mpc/h)^3        
       1.047750691046e-05       7.261927747616e-03 
       1.131335172503e-05       7.820331724311e-03 
       1.221587619537e-05       8.421676073071e-03 
       1.319039970183e-05       9.069258285272e-03 
       1.424266597921e-05       9.766638501931e-03 
       1.537887696968e-05       1.051764080442e-02 
       1.660572937635e-05       1.132639202551e-02 
       1.793045413292e-05       1.219733243925e-02 
       1.936085902198e-05       1.313524237854e-02 
       2.090537469327e-05       1.414527136404e-02 
       2.257310435294e-05       1.523296287822e-02 
       2.437387741694e-05       1.640429461394e-02 
       2.631830744443e-05       1.766569585128e-02 
       2.841785469300e-05       1.902408751022e-02 
       3.068489366414e-05       2.048692991658e-02 
       3.313278603720e-05       2.206225536169e-02 
       3.577595942169e-05       2.375870729116e-02 
       3.862999239199e-05       2.558560753703e-02 
       4.171170630578e-05       2.755297791598e-02 
       4.503926444729e-05       2.967161957441e-02 
       4.863227907969e-05       3.195316483628e-02 
       5.251192703764e-05       3.441013554546e-02 
       5.670107454120e-05       3.705601750102e-02 
       6.122441196689e-05       3.990533465678e-02 
       6.610859936996e-05       4.297372212202e-02 
       7.138242361596e-05       4.627802187674e-02 
       7.707696804727e-05       4.983636245190e-02 
       8.322579568497e-05       5.366826902138e-02 
       8.986514704559e-05       5.779476450140e-02 
       9.703415373875e-05       6.223848423504e-02 
       1.047750691046e-04       6.702379934228e-02 
       1.131335172503e-04       7.217695227568e-02 
       1.221587619537e-04       7.772619154456e-02 
       1.319039970183e-04       8.370193528090e-02 
       1.424266597921e-04       9.013692598549e-02 
       1.537887696968e-04       9.706641341360e-02 
       1.660572937635e-04       1.045283364899e-01 
       1.793045413292e-04       1.125635360486e-01 
       1.936085902198e-04       1.212159627244e-01 
       2.090537469327e-04       1.305329145904e-01 
       2.257310435294e-04       1.405652860388e-01 
       2.437387741694e-04       1.513678317760e-01 
       2.631830744443e-04       1.629994521196e-01 
       2.841785469300e-04       1.755234938744e-01 
       3.068489366414e-04       1.890080689192e-01 
       3.313278603720e-04       2.035264022542e-01 
       3.577595942169e-04       2.191571825199e-01 
       3.862999239199e-04       2.359849460625e-01 
       4.171170630578e-04       2.541004766080e-01 
       4.503926444729e-04       2.736012112991e-01 
       4.863227907969e-04       2.945916818785e-01 
       5.251192703764e-04       3.171839554563e-01 
       5.670107454121e-04       3.414980795242e-01 
       6.122441196689e-04       3.676625446060e-01 
       6.610859936996e-04       3.958147286928e-01 
       7.138242361596e-04       4.261013320793e-01 
       7.707696804727e-04       4.586787830131e-01 
       8.322579568497e-04       4.937136039813e-01 
       8.986514704559e-04       5.313826840972e-01 
       9.703415373875e-04       5.718735012094e-01 
       1.047750691046e-03       6.153841669092e-01 
       1.131335172503e-03       6.621233277787e-01 
       1.221587619537e-03       7.123098256251e-01 
       1.319039970183e-03       7.661720615888e-01 
       1.424266597921e-03       8.239546323030e-01 
       1.537887696968e-03       8.859011187166e-01 
       1.660572937635e-03       9.522587992596e-01 
       1.793045413292e-03       1.023280096968e+00 
       1.936085902198e-03       1.099216297893e+00 
       2.090537469327e-03       1.180312978203e+00 
       2.257310435294e-03       1.266804095498e+00 
       2.437387741694e-03       1.358904821409e+00 
       2.631830744443e-03       1.456802634516e+00 
       2.841785469300e-03       1.560646818050e+00 
       3.068489366414e-03       1.670535959470e+00 
       3.313278603720e-03       1.786503696557e+00 
       3.577595942169e-03       1.908502704630e+00 
       3.862999239199e-03       2.036387402757e+00 
       4.171170630578e-03       2.169895731755e+00 
       4.503926444729e-03       2.308631189941e+00 
       4.863227907969e-03       2.452046291429e+00 
       5.251192703764e-03       2.599429177411e+00 
       5.670107454120e-03       2.749894901602e+00 
       6.122441196689e-03       2.902383122925e+00 
       6.610859936996e-03       3.055664169990e+00 
       7.138242361596e-03       3.208350149359e+00 
       7.707696804727e-03       3.358914666069e+00 
       8.322579568496e-03       3.505712455461e+00 
       8.986514704559e-03       3.646990918730e+00 
       9.703415373875e-03       3.780897980307e+00 
       1.047750691046e-02       3.905455800784e+00 
       1.131335172503e-02       4.018537068531e+00 
       1.221587619537e-02       4.117832568417e+00 
       1.319039970183e-02       4.200822734114e+00 
       1.424266597920e-02       4.264817414669e+00 
       1.537887696964e-02       4.307049815774e+00 
       1.660572937560e-02       4.324835441264e+00 
       1.793045412207e-02       4.315758541012e+00 
       1.936085889642e-02       4.277833087838e+00 
       2.090537351881e-02       4.209686537365e+00 
       2.257309534705e-02       4.110746075164e+00 
       2.437382002240e-02       3.981553348592e+00 
       2.631799943729e-02       3.824052024515e+00 
       2.841644544598e-02       3.641865734283e+00 
       3.067933354524e-02       3.440414344586e+00 
       3.311368469821e-02       3.227008091096e+00 
       3.571840442514e-02       3.010786272063e+00 
       3.847720347390e-02       2.801985920111e+00 
       4.135335537314e-02       2.610441442145e+00 
       4.429361666563e-02       2.443443237745e+00 
       4.724366437916e-02       2.303786499632e+00 
       5.016480834039e-02       2.189848130559e+00 
       5.303989618930e-02       2.097251441804e+00 
       5.586870668205e-02       2.020467796860e+00 
       5.866042679206e-02       1.954231585221e+00 
       6.142798931504e-02       1.893893025830e+00 
       6.418496438662e-02       1.835587510731e+00 
       6.694418832236e-02       1.776251863049e+00 
       6.971731104453e-02       1.713678102716e+00 
       7.251476154108e-02       1.646480116504e+00 
       7.534587669814e-02       1.574114881514e+00 
       7.821907664495e-02       1.496870041281e+00 
       8.114203771084e-02       1.415751811282e+00 
       8.412184533139e-02       1.332397935648e+00 
       8.716512277352e-02       1.248876454429e+00 
       9.027813693913e-02       1.167468933559e+00 
       9.346688429613e-02       1.090414715221e+00 
       9.673716026122e-02       1.019681922018e+00 
       1.000946150608e-01       9.567497013901e-01 
       1.035447986307e-01       9.024346313043e-01 
       1.070931966524e-01       8.568134891186e-01 
       1.107452594180e-01       8.191658139301e-01 
       1.145064248899e-01       7.880242717040e-01 
       1.183821370656e-01       7.612618371102e-01 
       1.223778605591e-01       7.363161613708e-01 
       1.264990921707e-01       7.105044309273e-01 
       1.307513701078e-01       6.814939389740e-01 
       1.351402814485e-01       6.477713805754e-01 
       1.396714683894e-01       6.090484234970e-01 
       1.443506337875e-01       5.663931446256e-01 
       1.491835464900e-01       5.220071039478e-01 
       1.541760469368e-01       4.786955360008e-01 
       1.593340535209e-01       4.391737667784e-01 
       1.646635701934e-01       4.053505786638e-01 
       1.701706958081e-01       3.778894565235e-01 
       1.758616357070e-01       3.560542287925e-01 
       1.817427160581e-01       3.378857519395e-01 
       1.878204014651e-01       3.209116899852e-01 
       1.941013163855e-01       3.024978180061e-01 
       2.005922709060e-01       2.810483657023e-01 
       2.073002914514e-01       2.567695478463e-01 
       2.142326570343e-01       2.314673757257e-01 
       2.213969417044e-01       2.074850519913e-01 
       2.288010639201e-01       1.866035077636e-01 
       2.364533436625e-01       1.694804482037e-01 
       2.443625682390e-01       1.554441500154e-01 
       2.525380678946e-01       1.427887556549e-01 
       2.609898025770e-01       1.298070643945e-01 
       2.697284614969e-01       1.157924936175e-01 
       2.787655775073e-01       1.012773897799e-01 
       2.881136588192e-01       8.760287365990e-02 
       2.977863412019e-01       7.585883160665e-02 
       3.077985646248e-01       6.606219446541e-02 
       3.181667793367e-01       5.744713410577e-02 
       3.289091877084e-01       4.916276262627e-02 
       3.400460298905e-01       4.095928994895e-02 
       3.515999235695e-01       3.330350003581e-02 
       3.635962710278e-01       2.670070716381e-02 
       3.760637505499e-01       2.122542772733e-02 
       3.890349143014e-01       1.651331662902e-02 
       4.025469215929e-01       1.231213440245e-02 
       4.166424455447e-01       8.676322801901e-03 
       4.313708034899e-01       5.762871574678e-03 
       4.467893781976e-01       3.550447828450e-03 
       4.629654198623e-01       1.915211275982e-03 
       4.799783500912e-01       7.895542825944e-04 
       4.979227318246e-01       1.687265550427e-04 
       5.169121269689e-01       1.312843171766e-06 
       5.370841403262e-01       2.113665434570e-04 
       5.586070463286e-01       7.371308175288e-04 
       5.816885093582e-01       1.489724799859e-03 
       6.065870143577e-01       2.380525382852e-03 
       6.336266466978e-01       3.313998294207e-03 
       6.632156057925e-01       4.167907005810e-03 
       6.958678637575e-01       4.830808214454e-03 
       7.322247983784e-01       5.178454324993e-03 
       7.730680193171e-01       5.113435954783e-03 
       8.193049551574e-01       4.580611580203e-03 
       8.718988013754e-01       3.619494490703e-03 
       9.317218028590e-01       2.399188937442e-03 
       9.993660906273e-01       1.210725980385e-03 
       1.075037109879e+00       3.628816770473e-04 
       1.158653485387e+00       1.445748064329e-05 
       1.250099156961e+00       7.668189979868e-05 
       1.349432400897e+00       2.846590268030e-04 
       1.456947456991e+00       3.873826933181e-04 
       1.573135110893e+00       3.051001125489e-04 
       1.698621895119e+00       1.353239785266e-04 
       1.834127512423e+00       1.924144363397e-05 
       1.980444933977e+00       3.579188975336e-06 
       2.138435191130e+00       2.937463879952e-05 
       2.309029198543e+00       3.185779383408e-05 
       2.493232376993e+00       1.157524398703e-05 
       2.692130394536e+00       1.969336199123e-07 
       2.906895533764e+00       2.327592472157e-06 
       3.138793596840e+00       3.113642974379e-06 
       3.389191365541e+00       6.017353014597e-07 
       3.659564656886e+00       7.912460918415e-08 
       3.951507021438e+00       3.503170062159e-07 
       4.266739135513e+00       5.903726483016e-08 
       4.607118942658e+00       1.800246683003e-08 
       4.974652604172e+00       2.494732838555e-08 
       5.371506323193e+00       1.894764438373e-11 
       5.800019112071e+00       3.609365663328e-09 
       6.262716578240e+00       2.767260596865e-11 
       6.762325809881e+00       3.062227734917e-10 
       7.301791449077e+00       3.764471603898e-12 
       7.884293047211e+00       2.468159619530e-11 
       8.513263804891e+00       1.451332537916e-12 
       9.192410806865e+00       5.914809221422e-14 
       9.925736871166e+00       4.245104818679e-13 
       1.071756414128e+01       3.895155508723e-15 
       1.157255956041e+01       4.478696724212e-14 
       1.249576237789e+01       1.016071341267e-14 
       1.349261385000e+01       6.305718238690e-15 
       1.456898931011e+01       2.054017659558e-15 
       1.573123279727e+01       6.934387759886e-16 
       1.698619444729e+01       1.606422872273e-16 
       1.834127086665e+01       2.208339443303e-17 
       1.980444872733e+01       1.559664009118e-19 
       2.138435183937e+01       2.022307584132e-18 
       2.309029197863e+01       2.506456333790e-18 
       2.493232376942e+01       1.710368441055e-18 
       2.692130394533e+01       6.767844565499e-19 
       2.906895533764e+01       6.691299613439e-20 
       3.138793596840e+01       1.950758480765e-20 
       3.389191365541e+01       6.421465682072e-20 
       3.659564656886e+01       3.469139014833e-20 
       3.951507021438e+01       6.158113627361e-21 
       4.266739135513e+01       1.869082667686e-22 
       4.607118942658e+01       3.928763947672e-22 
       4.974652604172e+01       6.969168278105e-23 
       5.371506323193e+01       4.412630060008e-22 
       5.800019112071e+01       6.286501866326e-24 
       6.262716578240e+01       1.398436354040e-22 
       6.762325809881e+01       6.635723952652e-25 
