# Matter power spectrum P(k) at redshift z=99
# for k=1.04775e-05 to 66.1767 h/Mpc,
# number of wavenumbers equal to 130
#    1:k (h/Mpc)              2:P (Mpc/h)^3        
       1.047750691046e-05       7.261927680861e-03 
       1.319039970183e-05       9.069258201848e-03 
       1.660572937635e-05       1.132639106725e-02 
       2.090537469327e-05       1.414527123399e-02 
       2.631830744443e-05       1.766569584058e-02 
       3.313278603720e-05       2.206225515942e-02 
       4.171170630578e-05       2.755297766277e-02 
       5.251192703764e-05       3.441013522947e-02 
       6.610859936996e-05       4.297372172778e-02 
       8.322579568497e-05       5.366826852944e-02 
       1.047750691046e-04       6.702379872774e-02 
       1.319039970183e-04       8.370193441285e-02 
       1.660572937635e-04       1.045283355384e-01 
       2.090537469327e-04       1.305329134104e-01 
       2.631830744443e-04       1.629994506605e-01 
       3.313278603720e-04       2.035264004601e-01 
       4.171170630578e-04       2.541004744243e-01 
       5.251192703764e-04       3.171839528558e-01 
       6.610859936996e-04       3.958147256513e-01 
       8.322579568497e-04       4.937136006269e-01 
       1.047750691046e-03       6.153841636042e-01 
       1.319039970183e-03       7.661720592261e-01 
       1.660572937635e-03       9.522588016474e-01 
       2.090537469327e-03       1.180312991699e+00 
       2.631830744443e-03       1.456802684686e+00 
       3.313278603720e-03       1.786503854046e+00 
       4.171170630578e-03       2.169896193765e+00 
       5.251192703764e-03       2.599430630722e+00 
       6.610859936996e-03       3.055668715652e+00 
       8.322579568497e-03       3.505724925649e+00 
       1.047750691046e-02       3.905490376878e+00 
       1.319039970183e-02       4.200915406747e+00 
       1.660572937633e-02       4.325061060203e+00 
       2.090537453514e-02       4.210203820632e+00 
       2.631818545635e-02       3.825155090098e+00 
       3.311571692125e-02       3.229060547463e+00 
       4.113809243311e-02       2.627722563601e+00 
       4.792590854610e-02       2.280791090882e+00 
       5.284436902701e-02       2.110085374764e+00 
       5.689644391095e-02       2.003534912775e+00 
       6.051252627066e-02       1.923053690364e+00 
       6.388413457411e-02       1.852734837190e+00 
       6.711249296401e-02       1.784564188336e+00 
       7.025823437965e-02       1.714277062540e+00 
       7.336115587705e-02       1.639815029581e+00 
       7.644928796912e-02       1.560663224349e+00 
       7.954353299775e-02       1.477459612427e+00 
       8.266024078725e-02       1.391696097782e+00 
       8.581273398637e-02       1.305461225789e+00 
       8.901225918437e-02       1.221128181733e+00 
       9.226860540985e-02       1.141077988188e+00 
       9.559052048996e-02       1.067450073180e+00 
       9.898599946599e-02       1.001893658960e+00 
       1.024624891378e-01       9.453840875219e-01 
       1.060270359164e-01       8.981487246051e-01 
       1.096863943056e-01       8.596158078210e-01 
       1.134471073830e-01       8.284062741499e-01 
       1.173155669539e-01       8.024689795021e-01 
       1.212980586983e-01       7.792291197912e-01 
       1.254007961065e-01       7.559180440120e-01 
       1.296299459934e-01       7.299826696820e-01 
       1.339916477160e-01       6.995919646787e-01 
       1.384920277736e-01       6.640772291986e-01 
       1.431372111762e-01       6.241463251427e-01 
       1.479333307714e-01       5.817638584679e-01 
       1.528865355934e-01       5.396940357631e-01 
       1.580029992204e-01       5.008136248982e-01 
       1.632889290723e-01       4.673987874309e-01 
       1.687505775527e-01       4.405336919085e-01 
       1.743942559171e-01       4.198653669478e-01 
       1.802263517371e-01       4.036588068867e-01 
       1.862533508214e-01       3.893601476603e-01 
       1.924818644494e-01       3.741346047418e-01 
       1.989186627765e-01       3.558021712236e-01 
       2.055707152847e-01       3.339982980707e-01 
       2.124452391818e-01       3.102658282629e-01 
       2.195497567139e-01       2.871231579305e-01 
       2.268921624510e-01       2.668087235763e-01 
       2.344808017550e-01       2.504835686592e-01 
       2.423245618548e-01       2.378334228368e-01 
       2.504329772620e-01       2.271117539908e-01 
       2.588163516754e-01       2.161176114431e-01 
       2.674858990930e-01       2.035455647457e-01 
       2.764539076010e-01       1.895977995072e-01 
       2.857339303080e-01       1.757571055198e-01 
       2.953410092148e-01       1.636997473553e-01 
       3.052919395542e-01       1.539062253547e-01 
       3.156055844677e-01       1.455312757453e-01 
       3.263032530092e-01       1.372500842144e-01 
       3.374091587054e-01       1.283019613949e-01 
       3.489509817175e-01       1.191714268798e-01 
       3.609605657343e-01       1.108070857371e-01 
       3.734747921333e-01       1.036451130310e-01 
       3.865366902904e-01       9.714145530693e-02 
       4.001968667448e-01       9.061568228750e-02 
       4.145153713076e-01       8.403744312380e-02 
       4.295641718077e-01       7.789117152346e-02 
       4.454304922144e-01       7.234179100790e-02 
       4.622214006969e-01       6.709373200275e-02 
       4.800702491654e-01       6.189183388461e-02 
       4.991459272112e-01       5.692637476762e-02 
       5.196665217302e-01       5.231616015306e-02 
       5.419201087032e-01       4.783273879337e-02 
       5.662975451962e-01       4.348701293536e-02 
       5.933463737275e-01       3.933113195725e-02 
       6.238638458458e-01       3.525342843901e-02 
       6.590669257916e-01       3.126288454053e-02 
       7.009246080454e-01       2.728735892813e-02 
       7.528593308799e-01       2.327847668059e-02 
       8.213469537518e-01       1.914826455275e-02 
       9.196980813302e-01       1.481706370797e-02 
       1.075112183810e+00       1.035092210425e-02 
       1.322697471132e+00       6.379460903766e-03 
       1.662328205042e+00       3.705678485522e-03 
       2.092692408506e+00       2.124544704591e-03 
       2.634543445090e+00       1.207961842047e-03 
       3.316693691389e+00       6.817128779399e-04 
       4.175469971226e+00       3.821217688361e-04 
       5.256605252960e+00       2.128750934977e-04 
       6.617673932723e+00       1.179233782688e-04 
       8.331157880872e+00       6.498710689032e-05 
       1.048830636590e+01       3.564492826721e-05 
       1.320399541071e+01       1.946581386935e-05 
       1.662284535976e+01       1.058747414909e-05 
       2.092692243973e+01       5.736830648683e-06 
       2.634543445002e+01       3.097648579644e-06 
       3.316693691389e+01       1.667066082766e-06 
       4.175469971226e+01       8.942965843432e-07 
       5.256605252960e+01       4.782533934290e-07 
       6.617673932723e+01       2.549345583174e-07 
