# Matter power spectrum P(k) at redshift z=0
# for k=1.04775e-05 to 67.6233 h/Mpc,
# number of wavenumbers equal to 246
#    1:k (h/Mpc)              2:P (Mpc/h)^3        
       1.047750691046e-05       5.020964811313e+01 
       1.131335172503e-05       5.407050701925e+01 
       1.221587619537e-05       5.822819068609e+01 
       1.319039970183e-05       6.270562594779e+01 
       1.424266597921e-05       6.752732240880e+01 
       1.537887696968e-05       7.271977206173e+01 
       1.660572937635e-05       7.831147247912e+01 
       1.793045413292e-05       8.433311821988e+01 
       1.936085902198e-05       9.081778249833e+01 
       2.090537469327e-05       9.780108069296e+01 
       2.257310435294e-05       1.053213197893e+02 
       2.437387741694e-05       1.134197377890e+02 
       2.631830744443e-05       1.221408203809e+02 
       2.841785469300e-05       1.315324642473e+02 
       3.068489366414e-05       1.416462094881e+02 
       3.313278603720e-05       1.525374501932e+02 
       3.577595942169e-05       1.642660688414e+02 
       3.862999239199e-05       1.768963506307e+02 
       4.171170630578e-05       1.904975994009e+02 
       4.503926444729e-05       2.051444491973e+02 
       4.863227907969e-05       2.209171465549e+02 
       5.251192703764e-05       2.379022224249e+02 
       5.670107454120e-05       2.561927927503e+02 
       6.122441196689e-05       2.758890444041e+02 
       6.610859936996e-05       2.970989227881e+02 
       7.138242361596e-05       3.199385560802e+02 
       7.707696804727e-05       3.445329783680e+02 
       8.322579568497e-05       3.710167318945e+02 
       8.986514704559e-05       3.995346444203e+02 
       9.703415373875e-05       4.302425407383e+02 
       1.047750691046e-04       4.633080766742e+02 
       1.131335172503e-04       4.989116271564e+02 
       1.221587619537e-04       5.372471950930e+02 
       1.319039970183e-04       5.785234129339e+02 
       1.424266597921e-04       6.229645936045e+02 
       1.537887696968e-04       6.708118490405e+02 
       1.660572937635e-04       7.223242666092e+02 
       1.793045413292e-04       7.777801559200e+02 
       1.936085902198e-04       8.374783614140e+02 
       2.090537469327e-04       9.017396271824e+02 
       2.257310435294e-04       9.709080268041e+02 
       2.437387741694e-04       1.045352449493e+03 
       2.631830744443e-04       1.125468123750e+03 
       2.841785469300e-04       1.211678180495e+03 
       3.068489366414e-04       1.304435250150e+03 
       3.313278603720e-04       1.404223053681e+03 
       3.577595942169e-04       1.511558014616e+03 
       3.862999239199e-04       1.626990837697e+03 
       4.171170630578e-04       1.751108028790e+03 
       4.503926444729e-04       1.884533382872e+03 
       4.863227907969e-04       2.027929378112e+03 
       5.251192703764e-04       2.181998448133e+03 
       5.670107454121e-04       2.347484102755e+03 
       6.122441196689e-04       2.525171871365e+03 
       6.610859936996e-04       2.715889983592e+03 
       7.138242361596e-04       2.920509688382e+03 
       7.707696804727e-04       3.139945100279e+03 
       8.322579568497e-04       3.375152337579e+03 
       8.986514704559e-04       3.627127831140e+03 
       9.703415373875e-04       3.896905453136e+03 
       1.047750691046e-03       4.185552174298e+03 
       1.131335172503e-03       4.494162430373e+03 
       1.221587619537e-03       4.823850706493e+03 
       1.319039970183e-03       5.175742743388e+03 
       1.424266597921e-03       5.551019596906e+03 
       1.537887696968e-03       5.950788340553e+03 
       1.660572937635e-03       6.376123051788e+03 
       1.793045413292e-03       6.828073901448e+03 
       1.936085902198e-03       7.307625381067e+03 
       2.090537469327e-03       7.815671866279e+03 
       2.257310435294e-03       8.352990375818e+03 
       2.437387741694e-03       8.920211064344e+03 
       2.631830744443e-03       9.517783069113e+03 
       2.841785469300e-03       1.014593704435e+04 
       3.068489366414e-03       1.080464502803e+04 
       3.313278603720e-03       1.149357460345e+04 
       3.577595942169e-03       1.221203621722e+04 
       3.862999239199e-03       1.295892539446e+04 
       4.171170630578e-03       1.373266012886e+04 
       4.503926444729e-03       1.453111835625e+04 
       4.863227907969e-03       1.535154985300e+04 
       5.251192703764e-03       1.619063614558e+04 
       5.670107454120e-03       1.704431257732e+04 
       6.122441196689e-03       1.790755939648e+04 
       6.610859936996e-03       1.877460424096e+04 
       7.138242361596e-03       1.963872430355e+04 
       7.707696804727e-03       2.049215714541e+04 
       8.322579568496e-03       2.132606853132e+04 
       8.986514704559e-03       2.213054682549e+04 
       9.703415373875e-03       2.289445472129e+04 
       1.047750691046e-02       2.360548400080e+04 
       1.131335172503e-02       2.425023109162e+04 
       1.221587619537e-02       2.481423925647e+04 
       1.319039970183e-02       2.528218552883e+04 
       1.424266597920e-02       2.563814297250e+04 
       1.537887696964e-02       2.586606930737e+04 
       1.660572937560e-02       2.595026431616e+04 
       1.793045412207e-02       2.587634123430e+04 
       1.936085889642e-02       2.563218664062e+04 
       2.090537351881e-02       2.520937420775e+04 
       2.257309534705e-02       2.460445299783e+04 
       2.437382002240e-02       2.382089888430e+04 
       2.631799943729e-02       2.287044867868e+04 
       2.841644544598e-02       2.177448519832e+04 
       3.067933354524e-02       2.056554629827e+04 
       3.311368469821e-02       1.928726424320e+04 
       3.571840442514e-02       1.799401761123e+04 
       3.847720347390e-02       1.674687267539e+04 
       4.135335537314e-02       1.560463942536e+04 
       4.429361666563e-02       1.461035871576e+04 
       4.724366437916e-02       1.378054803718e+04 
       5.016480834039e-02       1.310511438542e+04 
       5.303989618930e-02       1.255714994840e+04 
       5.586870668205e-02       1.210425181767e+04 
       5.866042679206e-02       1.171465089906e+04 
       6.142798931504e-02       1.136048352525e+04 
       6.418496438662e-02       1.101856024319e+04 
       6.694418832236e-02       1.067067751656e+04 
       6.971731104453e-02       1.030360546622e+04 
       7.251476154108e-02       9.909002909816e+03 
       7.534587669814e-02       9.483788987034e+03 
       7.821907664495e-02       9.029496490318e+03 
       8.114203771084e-02       8.552337025129e+03 
       8.412184533139e-02       8.061952531263e+03 
       8.716512277352e-02       7.570790963562e+03 
       9.027813693913e-02       7.092509419853e+03 
       9.346688429613e-02       6.640541273206e+03 
       9.673716026122e-02       6.226694560089e+03 
       1.000946150608e-01       5.859932053735e+03 
       1.035447986307e-01       5.545228282748e+03 
       1.070931966524e-01       5.283136391668e+03 
       1.107452594180e-01       5.069428488027e+03 
       1.145064248899e-01       4.895249707827e+03 
       1.183821370656e-01       4.747838067494e+03 
       1.223778605591e-01       4.611738955733e+03 
       1.264990921707e-01       4.470619130352e+03 
       1.307513701078e-01       4.310274164507e+03 
       1.351402814485e-01       4.121389260728e+03 
       1.396714683894e-01       3.902078423558e+03 
       1.443506337875e-01       3.658639741593e+03 
       1.491835464900e-01       3.404480316898e+03 
       1.541760469368e-01       3.156669668113e+03 
       1.593340535209e-01       2.931975282033e+03 
       1.646635701934e-01       2.742370859579e+03 
       1.701706958081e-01       2.592264393816e+03 
       1.758616357070e-01       2.477236848791e+03 
       1.817427160581e-01       2.385186405763e+03 
       1.878204014651e-01       2.300359792587e+03 
       1.941013163855e-01       2.205761556091e+03 
       2.005922709060e-01       2.090817863692e+03 
       2.073002914514e-01       1.956465603279e+03 
       2.142326570343e-01       1.814191971937e+03 
       2.213969417044e-01       1.679300097395e+03 
       2.288010639201e-01       1.563850355587e+03 
       2.364533436625e-01       1.472687616773e+03 
       2.443625682390e-01       1.401513394354e+03 
       2.525380678946e-01       1.338413759975e+03 
       2.609898025770e-01       1.270900202432e+03 
       2.697284614969e-01       1.193381692248e+03 
       2.787655775073e-01       1.109338427852e+03 
       2.881136588192e-01       1.028771604941e+03 
       2.977863412019e-01       9.604804117842e+02 
       3.077985646248e-01       9.050267113972e+02 
       3.181667793367e-01       8.561454408416e+02 
       3.289091877084e-01       8.061887552352e+02 
       3.400460298905e-01       7.523909518802e+02 
       3.515999235695e-01       6.989232570884e+02 
       3.635962710278e-01       6.510644396749e+02 
       3.760637505499e-01       6.101236517099e+02 
       3.890349143014e-01       5.721325090206e+02 
       4.025469215929e-01       5.337825850349e+02 
       4.166424455447e-01       4.956310338916e+02 
       4.313708034899e-01       4.604690908042e+02 
       4.467893781976e-01       4.287792568842e+02 
       4.629654198623e-01       3.987738188160e+02 
       4.799783500912e-01       3.692421182960e+02 
       4.979227318246e-01       3.412406044977e+02 
       5.169121269689e-01       3.154844346281e+02 
       5.370841403262e-01       2.908361821984e+02 
       5.586070463286e-01       2.671063557781e+02 
       5.816885093582e-01       2.448094448367e+02 
       6.065870143577e-01       2.235685174767e+02 
       6.336266466978e-01       2.032108898788e+02 
       6.632156057925e-01       1.838791657498e+02 
       6.958678637575e-01       1.653546543871e+02 
       7.322247983784e-01       1.476958878522e+02 
       7.730680193171e-01       1.308336477292e+02 
       8.193049551574e-01       1.148314582069e+02 
       8.718988013754e-01       9.976289158148e+01 
       9.317218028590e-01       8.577823285856e+01 
       9.993660906273e-01       7.305523054369e+01 
       1.075037109879e+00       6.173628563560e+01 
       1.158653485387e+00       5.187938872118e+01 
       1.250099156961e+00       4.344049957213e+01 
       1.349432400897e+00       3.628951873957e+01 
       1.456947456991e+00       3.026817110706e+01 
       1.573135110893e+00       2.521465144085e+01 
       1.698621895119e+00       2.098209653085e+01 
       1.834127512423e+00       1.744239545600e+01 
       1.980444933977e+00       1.448578333724e+01 
       2.138435191130e+00       1.201903340061e+01 
       2.309029198543e+00       9.963191655325e+00 
       2.493232376993e+00       8.251919193427e+00 
       2.692130394536e+00       6.828653625573e+00 
       2.906895533764e+00       5.646281479273e+00 
       3.138793596840e+00       4.664921736216e+00 
       3.389191365541e+00       3.851143609585e+00 
       3.659564656886e+00       3.176940467770e+00 
       3.951507021438e+00       2.618893471354e+00 
       4.266739135513e+00       2.157356473751e+00 
       4.607118942658e+00       1.775941213377e+00 
       4.974652604172e+00       1.460995492642e+00 
       5.371506323193e+00       1.201139539444e+00 
       5.800019112071e+00       9.868852203787e-01 
       6.262716578240e+00       8.103600777416e-01 
       6.762325809881e+00       6.650099004738e-01 
       7.301791449077e+00       5.454259873036e-01 
       7.884293047211e+00       4.470965502822e-01 
       8.513263804891e+00       3.662992337235e-01 
       9.192410806865e+00       2.999396171002e-01 
       9.925736871166e+00       2.454798519490e-01 
       1.071756414128e+01       2.008063333105e-01 
       1.157255956041e+01       1.641815485594e-01 
       1.249576237789e+01       1.341743237006e-01 
       1.349261385000e+01       1.096004120240e-01 
       1.456898931011e+01       8.948640939117e-02 
       1.573123279727e+01       7.303112509362e-02 
       1.698619444729e+01       5.957485562059e-02 
       1.834127086665e+01       4.857816069788e-02 
       1.980444872733e+01       3.959403978527e-02 
       2.138435183937e+01       3.225798602621e-02 
       2.309029197863e+01       2.627045690352e-02 
       2.493232376942e+01       2.138555562032e-02 
       2.692130394533e+01       1.740173454028e-02 
       2.906895533764e+01       1.415442855352e-02 
       3.138793596840e+01       1.150822567160e-02 
       3.389191365541e+01       9.353082485216e-03 
       3.659564656886e+01       7.598317369664e-03 
       3.951507021438e+01       6.170182363918e-03 
       4.266739135513e+01       5.008299344225e-03 
       4.607118942658e+01       4.063380372713e-03 
       4.974652604172e+01       3.295209344282e-03 
       5.371506323193e+01       2.670899570197e-03 
       5.800019112071e+01       2.163856336747e-03 
       6.262716578240e+01       1.752067999169e-03 
       6.762325809881e+01       1.417826655923e-03 
