# Matter power spectrum P(k) at redshift z=99
# for k=1.04775e-05 to 66.1767 h/Mpc,
# number of wavenumbers equal to 130
#    1:k (h/Mpc)              2:P (Mpc/h)^3        
       1.047750691046e-05       7.261927680889e-03 
       1.319039970183e-05       9.069258201882e-03 
       1.660572937635e-05       1.132639106729e-02 
       2.090537469327e-05       1.414527123404e-02 
       2.631830744443e-05       1.766569584065e-02 
       3.313278603720e-05       2.206225515951e-02 
       4.171170630578e-05       2.755297766287e-02 
       5.251192703764e-05       3.441013522960e-02 
       6.610859936996e-05       4.297372172794e-02 
       8.322579568497e-05       5.366826852964e-02 
       1.047750691046e-04       6.702379872799e-02 
       1.319039970183e-04       8.370193441316e-02 
       1.660572937635e-04       1.045283355388e-01 
       2.090537469327e-04       1.305329134109e-01 
       2.631830744443e-04       1.629994506611e-01 
       3.313278603720e-04       2.035264004609e-01 
       4.171170630578e-04       2.541004744252e-01 
       5.251192703764e-04       3.171839528568e-01 
       6.610859936996e-04       3.958147256526e-01 
       8.322579568497e-04       4.937136006290e-01 
       1.047750691046e-03       6.153841636055e-01 
       1.319039970183e-03       7.661720592941e-01 
       1.660572937635e-03       9.522588016429e-01 
       2.090537469327e-03       1.180312991695e+00 
       2.631830744443e-03       1.456802684671e+00 
       3.313278603720e-03       1.786503854001e+00 
       4.171170630578e-03       2.169896196719e+00 
       5.251192703764e-03       2.599430630472e+00 
       6.610859936996e-03       3.055668710185e+00 
       8.322579568497e-03       3.505725597042e+00 
       1.047750691046e-02       3.905491990003e+00 
       1.319039970183e-02       4.200915258978e+00 
       1.660572937633e-02       4.325062841968e+00 
       2.090537453514e-02       4.210194131062e+00 
       2.631818545635e-02       3.825150884778e+00 
       3.311571692125e-02       3.229059806172e+00 
       4.113809243311e-02       2.627724710584e+00 
       4.792590854610e-02       2.280792154513e+00 
       5.284436902701e-02       2.110081561777e+00 
       5.689644391095e-02       2.003536866445e+00 
       6.051252627066e-02       1.923054363058e+00 
       6.388413457411e-02       1.852730474722e+00 
       6.711249296401e-02       1.784563411203e+00 
       7.025823437965e-02       1.714274858633e+00 
       7.336115587705e-02       1.639813222844e+00 
       7.644928796912e-02       1.560658893673e+00 
       7.954353299775e-02       1.477454336992e+00 
       8.266024078725e-02       1.391691696632e+00 
       8.581273398637e-02       1.305458423246e+00 
       8.901225918437e-02       1.221122476402e+00 
       9.226860540985e-02       1.141075213479e+00 
       9.559052048996e-02       1.067446055061e+00 
       9.898599946599e-02       1.001883902534e+00 
       1.024624891378e-01       9.453757468538e-01 
       1.060270359164e-01       8.981370633432e-01 
       1.096863943056e-01       8.596055814305e-01 
       1.134471073830e-01       8.283988218697e-01 
       1.173155669539e-01       8.024583554335e-01 
       1.212980586983e-01       7.792208335558e-01 
       1.254007961065e-01       7.559089021441e-01 
       1.296299459934e-01       7.299721234852e-01 
       1.339916477160e-01       6.995846462598e-01 
       1.384920277736e-01       6.640682918630e-01 
       1.431372111762e-01       6.241350333366e-01 
       1.479333307714e-01       5.817513437547e-01 
       1.528865355934e-01       5.396811115519e-01 
       1.580029992204e-01       5.007992993364e-01 
       1.632889290723e-01       4.673839940366e-01 
       1.687505775527e-01       4.405188953854e-01 
       1.743942559171e-01       4.198496853529e-01 
       1.802263517371e-01       4.036425254586e-01 
       1.862533508214e-01       3.893411415797e-01 
       1.924818644494e-01       3.741152527668e-01 
       1.989186627765e-01       3.557803389117e-01 
       2.055707152847e-01       3.339761181159e-01 
       2.124452391818e-01       3.102420012407e-01 
       2.195497567139e-01       2.870988569611e-01 
       2.268921624510e-01       2.667831771463e-01 
       2.344808017550e-01       2.504572095924e-01 
       2.423245618548e-01       2.378052579020e-01 
       2.504329772620e-01       2.270815992672e-01 
       2.588163516754e-01       2.160854991711e-01 
       2.674858990930e-01       2.035127554839e-01 
       2.764539076010e-01       1.895627646460e-01 
       2.857339303080e-01       1.757209069477e-01 
       2.953410092148e-01       1.636623071553e-01 
       3.052919395542e-01       1.538675693097e-01 
       3.156055844677e-01       1.454896315059e-01 
       3.263032530092e-01       1.372063286772e-01 
       3.374091587054e-01       1.282561773004e-01 
       3.489509817175e-01       1.191237804609e-01 
       3.609605657343e-01       1.107576049070e-01 
       3.734747921333e-01       1.035933294448e-01 
       3.865366902904e-01       9.708681248247e-02 
       4.001968667448e-01       9.055849005561e-02 
       4.145153713076e-01       8.397750505083e-02 
       4.295641718077e-01       7.782899602093e-02 
       4.454304922144e-01       7.227643853973e-02 
       4.622214006969e-01       6.702525054207e-02 
       4.800702491654e-01       6.182038460640e-02 
       4.991459272112e-01       5.685119858579e-02 
       5.196665217302e-01       5.223715949650e-02 
       5.419201087032e-01       4.774965402010e-02 
       5.662975451962e-01       4.339965522505e-02 
       5.933463737275e-01       3.923899795843e-02 
       6.238638458458e-01       3.515602248059e-02 
       6.590669257916e-01       3.115925292842e-02 
       7.009246080454e-01       2.717659538891e-02 
       7.528593308799e-01       2.315897088869e-02 
       8.213469537518e-01       1.901748496018e-02 
       9.196980813302e-01       1.467081229629e-02 
       1.075112183810e+00       1.018182171619e-02 
       1.322697471132e+00       6.178092934333e-03 
       1.662328205042e+00       3.468261982999e-03 
       2.092692408506e+00       1.854764719374e-03 
       2.634543445090e+00       9.169544957359e-04 
       3.316693691389e+00       3.903518734659e-04 
       4.175469971226e+00       1.210478015442e-04 
       5.256605252960e+00       1.516793496454e-05 
       6.617673932723e+00       1.596825429820e-06 
       8.331157880872e+00       1.513622358253e-05 
       1.048830636590e+01       1.344324087799e-05 
       1.320399541071e+01       1.957333730820e-06 
       1.662284535976e+01       5.124263109443e-07 
       2.092692243973e+01       6.697981509114e-07 
       2.634543445002e+01       2.137770627934e-08 
       3.316693691389e+01       2.275218606864e-08 
       4.175469971226e+01       6.546718458735e-09 
       5.256605252960e+01       6.639687884707e-10 
       6.617673932723e+01       5.218337645949e-11 
