# Matter power spectrum P(k) at redshift z=0
# for k=1.04775e-05 to 66.1767 h/Mpc,
# number of wavenumbers equal to 130
#    1:k (h/Mpc)              2:P (Mpc/h)^3        
       1.047750691046e-05       5.020964811306e+01 
       1.319039970183e-05       6.270562594782e+01 
       1.660572937635e-05       7.831147247912e+01 
       2.090537469327e-05       9.780108069295e+01 
       2.631830744443e-05       1.221408203809e+02 
       3.313278603720e-05       1.525374501932e+02 
       4.171170630578e-05       1.904975994010e+02 
       5.251192703764e-05       2.379022224249e+02 
       6.610859936996e-05       2.970989227882e+02 
       8.322579568497e-05       3.710167318946e+02 
       1.047750691046e-04       4.633080766742e+02 
       1.319039970183e-04       5.785234129327e+02 
       1.660572937635e-04       7.223242666092e+02 
       2.090537469327e-04       9.017396271824e+02 
       2.631830744443e-04       1.125468123750e+03 
       3.313278603720e-04       1.404223053681e+03 
       4.171170630578e-04       1.751108028790e+03 
       5.251192703764e-04       2.181998448133e+03 
       6.610859936996e-04       2.715889983592e+03 
       8.322579568497e-04       3.375152337134e+03 
       1.047750691046e-03       4.185552174307e+03 
       1.319039970183e-03       5.175742741764e+03 
       1.660572937635e-03       6.376123051774e+03 
       2.090537469327e-03       7.815671868425e+03 
       2.631830744443e-03       9.517783069112e+03 
       3.313278603720e-03       1.149357460344e+04 
       4.171170630578e-03       1.373266011801e+04 
       5.251192703764e-03       1.619063614559e+04 
       6.610859936996e-03       1.877460422163e+04 
       8.322579568497e-03       2.132607231937e+04 
       1.047750691046e-02       2.360548504516e+04 
       1.319039970183e-02       2.528218544515e+04 
       1.660572937633e-02       2.595027318940e+04 
       2.090537453514e-02       2.520933757274e+04 
       2.631818545635e-02       2.287034279762e+04 
       3.311571692125e-02       1.928625353826e+04 
       4.113809243311e-02       1.568427844605e+04 
       4.792590854610e-02       1.361062223750e+04 
       5.284436902701e-02       1.259129374885e+04 
       5.689644391095e-02       1.195554615646e+04 
       6.051252627066e-02       1.147547024931e+04 
       6.388413457411e-02       1.105587999223e+04 
       6.711249296401e-02       1.064899917375e+04 
       7.025823437965e-02       1.022930664273e+04 
       7.336115587705e-02       9.784511317810e+03 
       7.644928796912e-02       9.311677394089e+03 
       7.954353299775e-02       8.814543489284e+03 
       8.266024078725e-02       8.302112231498e+03 
       8.581273398637e-02       7.786949397745e+03 
       8.901225918437e-02       7.283177058350e+03 
       9.226860540985e-02       6.805160087215e+03 
       9.559052048996e-02       6.365651550001e+03 
       9.898599946599e-02       5.974387261939e+03 
       1.024624891378e-01       5.637312855585e+03 
       1.060270359164e-01       5.355777967164e+03 
       1.096863943056e-01       5.126238015794e+03 
       1.134471073830e-01       4.940480870399e+03 
       1.173155669539e-01       4.786167465281e+03 
       1.212980586983e-01       4.647936608704e+03 
       1.254007961065e-01       4.509157112874e+03 
       1.296299459934e-01       4.354550031005e+03 
       1.339916477160e-01       4.173213039165e+03 
       1.384920277736e-01       3.961170427698e+03 
       1.431372111762e-01       3.722685026374e+03 
       1.479333307714e-01       3.469559641336e+03 
       1.528865355934e-01       3.218346240344e+03 
       1.580029992204e-01       2.986294237577e+03 
       1.632889290723e-01       2.786968412537e+03 
       1.687505775527e-01       2.626826867464e+03 
       1.743942559171e-01       2.503753736375e+03 
       1.802263517371e-01       2.407344718576e+03 
       1.862533508214e-01       2.322253367485e+03 
       1.924818644494e-01       2.231546079868e+03 
       1.989186627765e-01       2.122189923065e+03 
       2.055707152847e-01       1.992026174601e+03 
       2.124452391818e-01       1.850320401772e+03 
       2.195497567139e-01       1.712184114390e+03 
       2.268921624510e-01       1.590987317226e+03 
       2.344808017550e-01       1.493671614624e+03 
       2.423245618548e-01       1.418312944264e+03 
       2.504329772620e-01       1.354463104299e+03 
       2.588163516754e-01       1.288934105817e+03 
       2.674858990930e-01       1.213936303652e+03 
       2.764539076010e-01       1.130690030438e+03 
       2.857339303080e-01       1.048101617891e+03 
       2.953410092148e-01       9.761843971641e+02 
       3.052919395542e-01       9.178097588813e+02 
       3.156055844677e-01       8.678977138653e+02 
       3.263032530092e-01       8.185252951859e+02 
       3.374091587054e-01       7.651458467791e+02 
       3.489509817175e-01       7.106697369080e+02 
       3.609605657343e-01       6.607876919442e+02 
       3.734747921333e-01       6.180865943009e+02 
       3.865366902904e-01       5.793126828708e+02 
       4.001968667448e-01       5.403899528445e+02 
       4.145153713076e-01       5.011513276605e+02 
       4.295641718077e-01       4.645003098097e+02 
       4.454304922144e-01       4.314079774028e+02 
       4.622214006969e-01       4.001137957378e+02 
       4.800702491654e-01       3.690887951101e+02 
       4.991459272112e-01       3.394757040544e+02 
       5.196665217302e-01       3.119852383391e+02 
       5.419201087032e-01       2.852464485409e+02 
       5.662975451962e-01       2.593308438774e+02 
       5.933463737275e-01       2.345480670698e+02 
       6.238638458458e-01       2.102306028254e+02 
       6.590669257916e-01       1.864335068040e+02 
       7.009246080454e-01       1.627252414967e+02 
       7.528593308799e-01       1.388183119883e+02 
       8.213469537518e-01       1.141880221573e+02 
       9.196980813302e-01       8.835922102729e+01 
       1.075112183810e+00       6.172609558801e+01 
       1.322697471132e+00       3.804273540128e+01 
       1.662328205042e+00       2.209795771193e+01 
       2.092692408506e+00       1.266918043585e+01 
       2.634543445090e+00       7.203357301020e+00 
       3.316693691389e+00       4.065141929107e+00 
       4.175469971226e+00       2.278610384544e+00 
       5.256605252960e+00       1.269346273175e+00 
       6.617673932723e+00       7.031302198059e-01 
       8.331157880872e+00       3.874750842761e-01 
       1.048830636590e+01       2.125081214453e-01 
       1.320399541071e+01       1.160335291646e-01 
       1.662284535976e+01       6.309694884570e-02 
       2.092692243973e+01       3.417781702986e-02 
       2.634543445002e+01       1.844429402888e-02 
       3.316693691389e+01       9.917298274057e-03 
       4.175469971226e+01       5.312820781856e-03 
       5.256605252960e+01       2.834959719716e-03 
       6.617673932723e+01       1.506006083752e-03 
