# Matter power spectrum P(k) at redshift z=0
# for k=1.04775e-05 to 66.1767 h/Mpc,
# number of wavenumbers equal to 130
#    1:k (h/Mpc)              2:P (Mpc/h)^3        
       1.047750691046e-05       5.020964811308e+01 
       1.319039970183e-05       6.270562594781e+01 
       1.660572937635e-05       7.831147247912e+01 
       2.090537469327e-05       9.780108069296e+01 
       2.631830744443e-05       1.221408203809e+02 
       3.313278603720e-05       1.525374501932e+02 
       4.171170630578e-05       1.904975994010e+02 
       5.251192703764e-05       2.379022224249e+02 
       6.610859936996e-05       2.970989227881e+02 
       8.322579568497e-05       3.710167318946e+02 
       1.047750691046e-04       4.633080766742e+02 
       1.319039970183e-04       5.785234129342e+02 
       1.660572937635e-04       7.223242666092e+02 
       2.090537469327e-04       9.017396271824e+02 
       2.631830744443e-04       1.125468123750e+03 
       3.313278603720e-04       1.404223053681e+03 
       4.171170630578e-04       1.751108028790e+03 
       5.251192703764e-04       2.181998448133e+03 
       6.610859936996e-04       2.715889983592e+03 
       8.322579568497e-04       3.375152337134e+03 
       1.047750691046e-03       4.185552174307e+03 
       1.319039970183e-03       5.175742741979e+03 
       1.660572937635e-03       6.376123051779e+03 
       2.090537469327e-03       7.815671866093e+03 
       2.631830744443e-03       9.517783069112e+03 
       3.313278603720e-03       1.149357460346e+04 
       4.171170630578e-03       1.373265989479e+04 
       5.251192703764e-03       1.619063614560e+04 
       6.610859936996e-03       1.877460423274e+04 
       8.322579568497e-03       2.132607231786e+04 
       1.047750691046e-02       2.360549124332e+04 
       1.319039970183e-02       2.528218646737e+04 
       1.660572937633e-02       2.595027575946e+04 
       2.090537453514e-02       2.520935099563e+04 
       2.631818545635e-02       2.287034007913e+04 
       3.311571692125e-02       1.928626008547e+04 
       4.113809243311e-02       1.568429701014e+04 
       4.792590854610e-02       1.361061922019e+04 
       5.284436902701e-02       1.259130577145e+04 
       5.689644391095e-02       1.195557361015e+04 
       6.051252627066e-02       1.147548634913e+04 
       6.388413457411e-02       1.105590161338e+04 
       6.711249296401e-02       1.064901368654e+04 
       7.025823437965e-02       1.022929275206e+04 
       7.336115587705e-02       9.784532861521e+03 
       7.644928796912e-02       9.311655627686e+03 
       7.954353299775e-02       8.814530541837e+03 
       8.266024078725e-02       8.302104742326e+03 
       8.581273398637e-02       7.786952066452e+03 
       8.901225918437e-02       7.283164265446e+03 
       9.226860540985e-02       6.805161097690e+03 
       9.559052048996e-02       6.365614620044e+03 
       9.898599946599e-02       5.974401334951e+03 
       1.024624891378e-01       5.637320087818e+03 
       1.060270359164e-01       5.355774695854e+03 
       1.096863943056e-01       5.126238647059e+03 
       1.134471073830e-01       4.940476925978e+03 
       1.173155669539e-01       4.786170117232e+03 
       1.212980586983e-01       4.647937404089e+03 
       1.254007961065e-01       4.509150042338e+03 
       1.296299459934e-01       4.354560692999e+03 
       1.339916477160e-01       4.173219485316e+03 
       1.384920277736e-01       3.961161066402e+03 
       1.431372111762e-01       3.722686053932e+03 
       1.479333307714e-01       3.469571610381e+03 
       1.528865355934e-01       3.218331836165e+03 
       1.580029992204e-01       2.986294561403e+03 
       1.632889290723e-01       2.786966053903e+03 
       1.687505775527e-01       2.626827080807e+03 
       1.743942559171e-01       2.503756354055e+03 
       1.802263517371e-01       2.407339671369e+03 
       1.862533508214e-01       2.322255283216e+03 
       1.924818644494e-01       2.231551789224e+03 
       1.989186627765e-01       2.122188698296e+03 
       2.055707152847e-01       1.992032638490e+03 
       2.124452391818e-01       1.850322148594e+03 
       2.195497567139e-01       1.712183267865e+03 
       2.268921624510e-01       1.590989447218e+03 
       2.344808017550e-01       1.493670613515e+03 
       2.423245618548e-01       1.418309286118e+03 
       2.504329772620e-01       1.354466028470e+03 
       2.588163516754e-01       1.288932320684e+03 
       2.674858990930e-01       1.213937481210e+03 
       2.764539076010e-01       1.130694844014e+03 
       2.857339303080e-01       1.048097205270e+03 
       2.953410092148e-01       9.761830397500e+02 
       3.052919395542e-01       9.178110980965e+02 
       3.156055844677e-01       8.678980391585e+02 
       3.263032530092e-01       8.185286161498e+02 
       3.374091587054e-01       7.651469835116e+02 
       3.489509817175e-01       7.106718472025e+02 
       3.609605657343e-01       6.607867336644e+02 
       3.734747921333e-01       6.180865657783e+02 
       3.865366902904e-01       5.793118067082e+02 
       4.001968667448e-01       5.403911113580e+02 
       4.145153713076e-01       5.011514067168e+02 
       4.295641718077e-01       4.644993641495e+02 
       4.454304922144e-01       4.314093583024e+02 
       4.622214006969e-01       4.001132650246e+02 
       4.800702491654e-01       3.690896951413e+02 
       4.991459272112e-01       3.394770423660e+02 
       5.196665217302e-01       3.119868533340e+02 
       5.419201087032e-01       2.852468500818e+02 
       5.662975451962e-01       2.593316590267e+02 
       5.933463737275e-01       2.345492665365e+02 
       6.238638458458e-01       2.102310616016e+02 
       6.590669257916e-01       1.864334447575e+02 
       7.009246080454e-01       1.627250094728e+02 
       7.528593308799e-01       1.388187515206e+02 
       8.213469537518e-01       1.141879580047e+02 
       9.196980813302e-01       8.835944358143e+01 
       1.075112183810e+00       6.172628222799e+01 
       1.322697471132e+00       3.804278610345e+01 
       1.662328205042e+00       2.209809323065e+01 
       2.092692408506e+00       1.266924105492e+01 
       2.634543445090e+00       7.203405064752e+00 
       3.316693691389e+00       4.065152341102e+00 
       4.175469971226e+00       2.278642258722e+00 
       5.256605252960e+00       1.269350895000e+00 
       6.617673932723e+00       7.031417647486e-01 
       8.331157880872e+00       3.874789681453e-01 
       1.048830636590e+01       2.125104668690e-01 
       1.320399541071e+01       1.160370213675e-01 
       1.662284535976e+01       6.309936268706e-02 
       2.092692243973e+01       3.417980177804e-02 
       2.634543445002e+01       1.844622333767e-02 
       3.316693691389e+01       9.919321668520e-03 
       4.175469971226e+01       5.314609832946e-03 
       5.256605252960e+01       2.836706433867e-03 
       6.617673932723e+01       1.507712426945e-03 
