# Matter power spectrum P(k) at redshift z=99
# for k=1.04775e-05 to 66.1767 h/Mpc,
# number of wavenumbers equal to 130
#    1:k (h/Mpc)              2:P (Mpc/h)^3        
       1.047750691046e-05       7.261927682292e-03 
       1.319039970183e-05       9.069258203635e-03 
       1.660572937635e-05       1.132639106948e-02 
       2.090537469327e-05       1.414527123678e-02 
       2.631830744443e-05       1.766569584406e-02 
       3.313278603720e-05       2.206225516377e-02 
       4.171170630578e-05       2.755297766819e-02 
       5.251192703764e-05       3.441013523625e-02 
       6.610859936996e-05       4.297372173623e-02 
       8.322579568497e-05       5.366826853998e-02 
       1.047750691046e-04       6.702379874089e-02 
       1.319039970183e-04       8.370193442923e-02 
       1.660572937635e-04       1.045283355588e-01 
       2.090537469327e-04       1.305329134356e-01 
       2.631830744443e-04       1.629994506917e-01 
       3.313278603720e-04       2.035264004984e-01 
       4.171170630578e-04       2.541004744707e-01 
       5.251192703764e-04       3.171839529110e-01 
       6.610859936996e-04       3.958147257150e-01 
       8.322579568497e-04       4.937136006967e-01 
       1.047750691046e-03       6.153841636695e-01 
       1.319039970183e-03       7.661720592759e-01 
       1.660572937635e-03       9.522588015931e-01 
       2.090537469327e-03       1.180312991423e+00 
       2.631830744443e-03       1.456802683909e+00 
       3.313278603720e-03       1.786503852214e+00 
       4.171170630578e-03       2.169896191255e+00 
       5.251192703764e-03       2.599430622474e+00 
       6.610859936996e-03       3.055668693575e+00 
       8.322579568497e-03       3.505725566473e+00 
       1.047750691046e-02       3.905491796581e+00 
       1.319039970183e-02       4.200915192060e+00 
       1.660572937633e-02       4.325063690359e+00 
       2.090537453514e-02       4.210200781167e+00 
       2.631818545635e-02       3.825149590653e+00 
       3.311571692125e-02       3.229066287304e+00 
       4.113809243311e-02       2.627726179542e+00 
       4.792590854610e-02       2.280796108089e+00 
       5.284436902701e-02       2.110086178953e+00 
       5.689644391095e-02       2.003533268079e+00 
       6.051252627066e-02       1.923056761948e+00 
       6.388413457411e-02       1.852733802830e+00 
       6.711249296401e-02       1.784562180423e+00 
       7.025823437965e-02       1.714273977144e+00 
       7.336115587705e-02       1.639811250517e+00 
       7.644928796912e-02       1.560659113026e+00 
       7.954353299775e-02       1.477448278793e+00 
       8.266024078725e-02       1.391694734571e+00 
       8.581273398637e-02       1.305456072402e+00 
       8.901225918437e-02       1.221120405033e+00 
       9.226860540985e-02       1.141075811135e+00 
       9.559052048996e-02       1.067446434725e+00 
       9.898599946599e-02       1.001887112316e+00 
       1.024624891378e-01       9.453778673361e-01 
       1.060270359164e-01       8.981453095246e-01 
       1.096863943056e-01       8.596087770013e-01 
       1.134471073830e-01       8.284003413273e-01 
       1.173155669539e-01       8.024631687408e-01 
       1.212980586983e-01       7.792241951419e-01 
       1.254007961065e-01       7.559125505803e-01 
       1.296299459934e-01       7.299771123979e-01 
       1.339916477160e-01       6.995888411932e-01 
       1.384920277736e-01       6.640734692093e-01 
       1.431372111762e-01       6.241409918305e-01 
       1.479333307714e-01       5.817598558995e-01 
       1.528865355934e-01       5.396832807320e-01 
       1.580029992204e-01       5.008066586426e-01 
       1.632889290723e-01       4.673908447788e-01 
       1.687505775527e-01       4.405261982297e-01 
       1.743942559171e-01       4.198583000891e-01 
       1.802263517371e-01       4.036512376619e-01 
       1.862533508214e-01       3.893539358260e-01 
       1.924818644494e-01       3.741307755782e-01 
       1.989186627765e-01       3.557981639594e-01 
       2.055707152847e-01       3.339932768617e-01 
       2.124452391818e-01       3.102563403050e-01 
       2.195497567139e-01       2.871124252302e-01 
       2.268921624510e-01       2.667984472287e-01 
       2.344808017550e-01       2.504732506024e-01 
       2.423245618548e-01       2.378228662268e-01 
       2.504329772620e-01       2.271008435201e-01 
       2.588163516754e-01       2.161075345006e-01 
       2.674858990930e-01       2.035357042858e-01 
       2.764539076010e-01       1.895850456137e-01 
       2.857339303080e-01       1.757445446688e-01 
       2.953410092148e-01       1.636872226829e-01 
       3.052919395542e-01       1.538939263066e-01 
       3.156055844677e-01       1.455181972816e-01 
       3.263032530092e-01       1.372368742391e-01 
       3.374091587054e-01       1.282877628096e-01 
       3.489509817175e-01       1.191572045581e-01 
       3.609605657343e-01       1.107932909024e-01 
       3.734747921333e-01       1.036305740311e-01 
       3.865366902904e-01       9.712621693821e-02 
       4.001968667448e-01       9.060009175709e-02 
       4.145153713076e-01       8.402133286401e-02 
       4.295641718077e-01       7.787512102106e-02 
       4.454304922144e-01       7.232532624305e-02 
       4.622214006969e-01       6.707702077829e-02 
       4.800702491654e-01       6.187471219570e-02 
       4.991459272112e-01       5.690885529213e-02 
       5.196665217302e-01       5.229830580689e-02 
       5.419201087032e-01       4.781425969033e-02 
       5.662975451962e-01       4.346815855440e-02 
       5.933463737275e-01       3.931190129215e-02 
       6.238638458458e-01       3.523349330520e-02 
       6.590669257916e-01       3.124251178964e-02 
       7.009246080454e-01       2.726628435005e-02 
       7.528593308799e-01       2.325664396400e-02 
       8.213469537518e-01       1.912540320975e-02 
       9.196980813302e-01       1.479279209252e-02 
       1.075112183810e+00       1.032478034700e-02 
       1.322697471132e+00       6.350536076993e-03 
       1.662328205042e+00       3.673437402964e-03 
       2.092692408506e+00       2.088713031606e-03 
       2.634543445090e+00       1.168392229679e-03 
       3.316693691389e+00       6.385492517533e-04 
       4.175469971226e+00       3.360397930079e-04 
       5.256605252960e+00       1.654109566822e-04 
       6.617673932723e+00       7.181609783422e-05 
       8.331157880872e+00       2.419716197480e-05 
       1.048830636590e+01       4.414501816657e-06 
       1.320399541071e+01       9.861563674708e-09 
       1.662284535976e+01       8.182919248478e-07 
       2.092692243973e+01       7.689797346589e-07 
       2.634543445002e+01       7.616208989050e-08 
       3.316693691389e+01       6.196930481332e-09 
       4.175469971226e+01       1.885982658107e-10 
       5.256605252960e+01       1.575552686042e-10 
       6.617673932723e+01       1.491500768313e-11 
