# Matter power spectrum P(k) at redshift z=0
# for k=1.04775e-05 to 67.6233 h/Mpc,
# number of wavenumbers equal to 246
#    1:k (h/Mpc)              2:P (Mpc/h)^3        
       1.047750691046e-05       5.020964811313e+01 
       1.131335172503e-05       5.407050701925e+01 
       1.221587619537e-05       5.822819068605e+01 
       1.319039970183e-05       6.270562594770e+01 
       1.424266597921e-05       6.752732240880e+01 
       1.537887696968e-05       7.271977206173e+01 
       1.660572937635e-05       7.831147247912e+01 
       1.793045413292e-05       8.433311821988e+01 
       1.936085902198e-05       9.081778249833e+01 
       2.090537469327e-05       9.780108069296e+01 
       2.257310435294e-05       1.053213197893e+02 
       2.437387741694e-05       1.134197377890e+02 
       2.631830744443e-05       1.221408203809e+02 
       2.841785469300e-05       1.315324642465e+02 
       3.068489366414e-05       1.416462094882e+02 
       3.313278603720e-05       1.525374501932e+02 
       3.577595942169e-05       1.642660688414e+02 
       3.862999239199e-05       1.768963506307e+02 
       4.171170630578e-05       1.904975994008e+02 
       4.503926444729e-05       2.051444491973e+02 
       4.863227907969e-05       2.209171465549e+02 
       5.251192703764e-05       2.379022224249e+02 
       5.670107454120e-05       2.561927927862e+02 
       6.122441196689e-05       2.758890444040e+02 
       6.610859936996e-05       2.970989227883e+02 
       7.138242361596e-05       3.199385560802e+02 
       7.707696804727e-05       3.445329783680e+02 
       8.322579568497e-05       3.710167318946e+02 
       8.986514704559e-05       3.995346444203e+02 
       9.703415373875e-05       4.302425407383e+02 
       1.047750691046e-04       4.633080766742e+02 
       1.131335172503e-04       4.989116271564e+02 
       1.221587619537e-04       5.372471950929e+02 
       1.319039970183e-04       5.785234129331e+02 
       1.424266597921e-04       6.229645936045e+02 
       1.537887696968e-04       6.708118490405e+02 
       1.660572937635e-04       7.223242666092e+02 
       1.793045413292e-04       7.777801569381e+02 
       1.936085902198e-04       8.374783614141e+02 
       2.090537469327e-04       9.017396271824e+02 
       2.257310435294e-04       9.709080268041e+02 
       2.437387741694e-04       1.045352449493e+03 
       2.631830744443e-04       1.125468123750e+03 
       2.841785469300e-04       1.211678180495e+03 
       3.068489366414e-04       1.304435250150e+03 
       3.313278603720e-04       1.404223053681e+03 
       3.577595942169e-04       1.511558014616e+03 
       3.862999239199e-04       1.626990837937e+03 
       4.171170630578e-04       1.751108028791e+03 
       4.503926444729e-04       1.884533382872e+03 
       4.863227907969e-04       2.027929378111e+03 
       5.251192703764e-04       2.181998448133e+03 
       5.670107454121e-04       2.347484102755e+03 
       6.122441196689e-04       2.525171871367e+03 
       6.610859936996e-04       2.715889983592e+03 
       7.138242361596e-04       2.920509688379e+03 
       7.707696804727e-04       3.139945100279e+03 
       8.322579568497e-04       3.375152337586e+03 
       8.986514704559e-04       3.627127831141e+03 
       9.703415373875e-04       3.896905453136e+03 
       1.047750691046e-03       4.185552174299e+03 
       1.131335172503e-03       4.494162430373e+03 
       1.221587619537e-03       4.823850706488e+03 
       1.319039970183e-03       5.175742744056e+03 
       1.424266597921e-03       5.551019596913e+03 
       1.537887696968e-03       5.950788340552e+03 
       1.660572937635e-03       6.376123051787e+03 
       1.793045413292e-03       6.828073901454e+03 
       1.936085902198e-03       7.307625381065e+03 
       2.090537469327e-03       7.815671858928e+03 
       2.257310435294e-03       8.352990375809e+03 
       2.437387741694e-03       8.920211064325e+03 
       2.631830744443e-03       9.517783069104e+03 
       2.841785469300e-03       1.014593704434e+04 
       3.068489366414e-03       1.080464502797e+04 
       3.313278603720e-03       1.149357460342e+04 
       3.577595942169e-03       1.221203621718e+04 
       3.862999239199e-03       1.295892539441e+04 
       4.171170630578e-03       1.373266010866e+04 
       4.503926444729e-03       1.453111835614e+04 
       4.863227907969e-03       1.535154985285e+04 
       5.251192703764e-03       1.619063614534e+04 
       5.670107454120e-03       1.704431257704e+04 
       6.122441196689e-03       1.790755939614e+04 
       6.610859936996e-03       1.877460425189e+04 
       7.138242361596e-03       1.963872430286e+04 
       7.707696804727e-03       2.049215714861e+04 
       8.322579568496e-03       2.132607231818e+04 
       8.986514704559e-03       2.213055022311e+04 
       9.703415373875e-03       2.289445471869e+04 
       1.047750691046e-02       2.360548312487e+04 
       1.131335172503e-02       2.425023096005e+04 
       1.221587619537e-02       2.481423922484e+04 
       1.319039970183e-02       2.528218786977e+04 
       1.424266597920e-02       2.563813581843e+04 
       1.537887696964e-02       2.586606572774e+04 
       1.660572937560e-02       2.595026810942e+04 
       1.793045412207e-02       2.587635287518e+04 
       1.936085889642e-02       2.563218538819e+04 
       2.090537351881e-02       2.520932869141e+04 
       2.257309534705e-02       2.460446678467e+04 
       2.437382002240e-02       2.382088277658e+04 
       2.631799943729e-02       2.287045294209e+04 
       2.841644544598e-02       2.177453183499e+04 
       3.067933354524e-02       2.056556646240e+04 
       3.311368469821e-02       1.928734754302e+04 
       3.571840442514e-02       1.799402744233e+04 
       3.847720347390e-02       1.674683907779e+04 
       4.135335537314e-02       1.560462670469e+04 
       4.429361666563e-02       1.461040558440e+04 
       4.724366437916e-02       1.378055015158e+04 
       5.016480834039e-02       1.310506769312e+04 
       5.303989618930e-02       1.255717067613e+04 
       5.586870668205e-02       1.210423547310e+04 
       5.866042679206e-02       1.171464924958e+04 
       6.142798931504e-02       1.136047648102e+04 
       6.418496438662e-02       1.101856630386e+04 
       6.694418832236e-02       1.067072900211e+04 
       6.971731104453e-02       1.030356747917e+04 
       7.251476154108e-02       9.908996888938e+03 
       7.534587669814e-02       9.483791423723e+03 
       7.821907664495e-02       9.029500956978e+03 
       8.114203771084e-02       8.552319815051e+03 
       8.412184533139e-02       8.061912233492e+03 
       8.716512277352e-02       7.570769192557e+03 
       9.027813693913e-02       7.092525242543e+03 
       9.346688429613e-02       6.640527873421e+03 
       9.673716026122e-02       6.226725064282e+03 
       1.000946150608e-01       5.859913584896e+03 
       1.035447986307e-01       5.545252753064e+03 
       1.070931966524e-01       5.283143725750e+03 
       1.107452594180e-01       5.069412725279e+03 
       1.145064248899e-01       4.895245755711e+03 
       1.183821370656e-01       4.747869634916e+03 
       1.223778605591e-01       4.611735866634e+03 
       1.264990921707e-01       4.470616595440e+03 
       1.307513701078e-01       4.310239507038e+03 
       1.351402814485e-01       4.121396048822e+03 
       1.396714683894e-01       3.902048258206e+03 
       1.443506337875e-01       3.658638689137e+03 
       1.491835464900e-01       3.404490466184e+03 
       1.541760469368e-01       3.156675109174e+03 
       1.593340535209e-01       2.931984323162e+03 
       1.646635701934e-01       2.742376002146e+03 
       1.701706958081e-01       2.592251710876e+03 
       1.758616357070e-01       2.477242356112e+03 
       1.817427160581e-01       2.385181303113e+03 
       1.878204014651e-01       2.300355405638e+03 
       1.941013163855e-01       2.205761723418e+03 
       2.005922709060e-01       2.090812725314e+03 
       2.073002914514e-01       1.956457949518e+03 
       2.142326570343e-01       1.814185554335e+03 
       2.213969417044e-01       1.679290570004e+03 
       2.288010639201e-01       1.563845060832e+03 
       2.364533436625e-01       1.472682394415e+03 
       2.443625682390e-01       1.401507883382e+03 
       2.525380678946e-01       1.338410257218e+03 
       2.609898025770e-01       1.270897482405e+03 
       2.697284614969e-01       1.193376015701e+03 
       2.787655775073e-01       1.109334150981e+03 
       2.881136588192e-01       1.028763947011e+03 
       2.977863412019e-01       9.604769305494e+02 
       3.077985646248e-01       9.050182276409e+02 
       3.181667793367e-01       8.561423144641e+02 
       3.289091877084e-01       8.061813371457e+02 
       3.400460298905e-01       7.523836480795e+02 
       3.515999235695e-01       6.989204644337e+02 
       3.635962710278e-01       6.510562552158e+02 
       3.760637505499e-01       6.101166982634e+02 
       3.890349143014e-01       5.721266944464e+02 
       4.025469215929e-01       5.337744815096e+02 
       4.166424455447e-01       4.956239325023e+02 
       4.313708034899e-01       4.604624301225e+02 
       4.467893781976e-01       4.287717846961e+02 
       4.629654198623e-01       3.987658351758e+02 
       4.799783500912e-01       3.692344917316e+02 
       4.979227318246e-01       3.412335365085e+02 
       5.169121269689e-01       3.154762528695e+02 
       5.370841403262e-01       2.908278541289e+02 
       5.586070463286e-01       2.670985023938e+02 
       5.816885093582e-01       2.448010785405e+02 
       6.065870143577e-01       2.235589609024e+02 
       6.336266466978e-01       2.032012911139e+02 
       6.632156057925e-01       1.838701791394e+02 
       6.958678637575e-01       1.653451851911e+02 
       7.322247983784e-01       1.476855596055e+02 
       7.730680193171e-01       1.308241595965e+02 
       8.193049551574e-01       1.148212699218e+02 
       8.718988013754e-01       9.975231708114e+01 
       9.317218028590e-01       8.576751827897e+01 
       9.993660906273e-01       7.304444307127e+01 
       1.075037109879e+00       6.172525945803e+01 
       1.158653485387e+00       5.186807932145e+01 
       1.250099156961e+00       4.342924724592e+01 
       1.349432400897e+00       3.627815192753e+01 
       1.456947456991e+00       3.025654268166e+01 
       1.573135110893e+00       2.520269967503e+01 
       1.698621895119e+00       2.097008468409e+01 
       1.834127512423e+00       1.743030072230e+01 
       1.980444933977e+00       1.447341616623e+01 
       2.138435191130e+00       1.200659865355e+01 
       2.309029198543e+00       9.950709477484e+00 
       2.493232376993e+00       8.239264103830e+00 
       2.692130394536e+00       6.815993777091e+00 
       2.906895533764e+00       5.633568242663e+00 
       3.138793596840e+00       4.652193426579e+00 
       3.389191365541e+00       3.838349462309e+00 
       3.659564656886e+00       3.164172960738e+00 
       3.951507021438e+00       2.606107778467e+00 
       4.266739135513e+00       2.144590789596e+00 
       4.607118942658e+00       1.763210134163e+00 
       4.974652604172e+00       1.448299984849e+00 
       5.371506323193e+00       1.188490195964e+00 
       5.800019112071e+00       9.743128903225e-01 
       6.262716578240e+00       7.978712877696e-01 
       6.762325809881e+00       6.526298317838e-01 
       7.301791449077e+00       5.331643067521e-01 
       7.884293047211e+00       4.349695858062e-01 
       8.513263804891e+00       3.543186145644e-01 
       9.192410806865e+00       2.881321223477e-01 
       9.925736871166e+00       2.338572040177e-01 
       1.071756414128e+01       1.893894603981e-01 
       1.157255956041e+01       1.529910306780e-01 
       1.249576237789e+01       1.232287712079e-01 
       1.349261385000e+01       9.892014285238e-02 
       1.456898931011e+01       7.909402249840e-02 
       1.573123279727e+01       6.294863189219e-02 
       1.698619444729e+01       4.982738464053e-02 
       1.834127086665e+01       3.918815913765e-02 
       1.980444872733e+01       3.058700153040e-02 
       2.138435183937e+01       2.365806948734e-02 
       2.309029197863e+01       1.810155898515e-02 
       2.493232376942e+01       1.367158801740e-02 
       2.692130394533e+01       1.016494951390e-02 
       2.906895533764e+01       7.414705110980e-03 
       3.138793596840e+01       5.282898168125e-03 
       3.389191365541e+01       3.655250927429e-03 
       3.659564656886e+01       2.436601321110e-03 
       3.951507021438e+01       1.547191204551e-03 
       4.266739135513e+01       9.198544349439e-04 
       4.607118942658e+01       4.977463844615e-04 
       4.974652604172e+01       2.326712078038e-04 
       5.371506323193e+01       8.345483778680e-05 
       5.800019112071e+01       1.552596558479e-05 
       6.262716578240e+01       1.218048969620e-07 
       6.762325809881e+01       1.408447780312e-05 
