# Matter power spectrum P(k) at redshift z=0
# for k=1.04775e-05 to 67.6233 h/Mpc,
# number of wavenumbers equal to 246
#    1:k (h/Mpc)              2:P (Mpc/h)^3        
       1.047750691046e-05       5.020964811311e+01 
       1.131335172503e-05       5.407050701925e+01 
       1.221587619537e-05       5.822819068652e+01 
       1.319039970183e-05       6.270562594785e+01 
       1.424266597921e-05       6.752732240880e+01 
       1.537887696968e-05       7.271977206173e+01 
       1.660572937635e-05       7.831147247912e+01 
       1.793045413292e-05       8.433311821988e+01 
       1.936085902198e-05       9.081778249833e+01 
       2.090537469327e-05       9.780108069296e+01 
       2.257310435294e-05       1.053213197893e+02 
       2.437387741694e-05       1.134197377890e+02 
       2.631830744443e-05       1.221408203809e+02 
       2.841785469300e-05       1.315324642466e+02 
       3.068489366414e-05       1.416462094882e+02 
       3.313278603720e-05       1.525374501932e+02 
       3.577595942169e-05       1.642660688414e+02 
       3.862999239199e-05       1.768963506307e+02 
       4.171170630578e-05       1.904975994010e+02 
       4.503926444729e-05       2.051444491974e+02 
       4.863227907969e-05       2.209171465548e+02 
       5.251192703764e-05       2.379022224249e+02 
       5.670107454120e-05       2.561927927618e+02 
       6.122441196689e-05       2.758890444041e+02 
       6.610859936996e-05       2.970989227882e+02 
       7.138242361596e-05       3.199385560802e+02 
       7.707696804727e-05       3.445329783680e+02 
       8.322579568497e-05       3.710167318945e+02 
       8.986514704559e-05       3.995346444203e+02 
       9.703415373875e-05       4.302425407383e+02 
       1.047750691046e-04       4.633080766742e+02 
       1.131335172503e-04       4.989116271565e+02 
       1.221587619537e-04       5.372471950929e+02 
       1.319039970183e-04       5.785234129334e+02 
       1.424266597921e-04       6.229645936045e+02 
       1.537887696968e-04       6.708118490405e+02 
       1.660572937635e-04       7.223242666092e+02 
       1.793045413292e-04       7.777801559846e+02 
       1.936085902198e-04       8.374783614141e+02 
       2.090537469327e-04       9.017396271824e+02 
       2.257310435294e-04       9.709080268041e+02 
       2.437387741694e-04       1.045352449493e+03 
       2.631830744443e-04       1.125468123750e+03 
       2.841785469300e-04       1.211678180495e+03 
       3.068489366414e-04       1.304435250150e+03 
       3.313278603720e-04       1.404223053681e+03 
       3.577595942169e-04       1.511558014616e+03 
       3.862999239199e-04       1.626990837800e+03 
       4.171170630578e-04       1.751108028790e+03 
       4.503926444729e-04       1.884533382872e+03 
       4.863227907969e-04       2.027929378112e+03 
       5.251192703764e-04       2.181998448133e+03 
       5.670107454121e-04       2.347484102755e+03 
       6.122441196689e-04       2.525171871365e+03 
       6.610859936996e-04       2.715889983592e+03 
       7.138242361596e-04       2.920509688383e+03 
       7.707696804727e-04       3.139945100279e+03 
       8.322579568497e-04       3.375152337579e+03 
       8.986514704559e-04       3.627127831141e+03 
       9.703415373875e-04       3.896905453136e+03 
       1.047750691046e-03       4.185552174300e+03 
       1.131335172503e-03       4.494162430373e+03 
       1.221587619537e-03       4.823850706499e+03 
       1.319039970183e-03       5.175742742959e+03 
       1.424266597921e-03       5.551019596894e+03 
       1.537887696968e-03       5.950788340564e+03 
       1.660572937635e-03       6.376123051789e+03 
       1.793045413292e-03       6.828073901450e+03 
       1.936085902198e-03       7.307625381066e+03 
       2.090537469327e-03       7.815671865617e+03 
       2.257310435294e-03       8.352990375816e+03 
       2.437387741694e-03       8.920211064338e+03 
       2.631830744443e-03       9.517783069112e+03 
       2.841785469300e-03       1.014593704435e+04 
       3.068489366414e-03       1.080464502797e+04 
       3.313278603720e-03       1.149357460345e+04 
       3.577595942169e-03       1.221203621722e+04 
       3.862999239199e-03       1.295892539446e+04 
       4.171170630578e-03       1.373266013084e+04 
       4.503926444729e-03       1.453111835625e+04 
       4.863227907969e-03       1.535154985300e+04 
       5.251192703764e-03       1.619063614558e+04 
       5.670107454120e-03       1.704431257743e+04 
       6.122441196689e-03       1.790755939653e+04 
       6.610859936996e-03       1.877460422838e+04 
       7.138242361596e-03       1.963872430355e+04 
       7.707696804727e-03       2.049215714739e+04 
       8.322579568496e-03       2.132606818333e+04 
       8.986514704559e-03       2.213055109941e+04 
       9.703415373875e-03       2.289445472130e+04 
       1.047750691046e-02       2.360548179966e+04 
       1.131335172503e-02       2.425022858070e+04 
       1.221587619537e-02       2.481424192224e+04 
       1.319039970183e-02       2.528218786096e+04 
       1.424266597920e-02       2.563814446387e+04 
       1.537887696964e-02       2.586607975195e+04 
       1.660572937560e-02       2.595026648401e+04 
       1.793045412207e-02       2.587635382089e+04 
       1.936085889642e-02       2.563219687747e+04 
       2.090537351881e-02       2.520935100866e+04 
       2.257309534705e-02       2.460445181156e+04 
       2.437382002240e-02       2.382088940188e+04 
       2.631799943729e-02       2.287045197680e+04 
       2.841644544598e-02       2.177447090819e+04 
       3.067933354524e-02       2.056556828728e+04 
       3.311368469821e-02       1.928728856435e+04 
       3.571840442514e-02       1.799399915188e+04 
       3.847720347390e-02       1.674683133204e+04 
       4.135335537314e-02       1.560459274950e+04 
       4.429361666563e-02       1.461038791532e+04 
       4.724366437916e-02       1.378056540241e+04 
       5.016480834039e-02       1.310505236757e+04 
       5.303989618930e-02       1.255719141081e+04 
       5.586870668205e-02       1.210423839216e+04 
       5.866042679206e-02       1.171464880899e+04 
       6.142798931504e-02       1.136048419995e+04 
       6.418496438662e-02       1.101856312523e+04 
       6.694418832236e-02       1.067067611468e+04 
       6.971731104453e-02       1.030357667636e+04 
       7.251476154108e-02       9.908996325626e+03 
       7.534587669814e-02       9.483787447767e+03 
       7.821907664495e-02       9.029502434475e+03 
       8.114203771084e-02       8.552331913027e+03 
       8.412184533139e-02       8.061958192081e+03 
       8.716512277352e-02       7.570776135050e+03 
       9.027813693913e-02       7.092507824884e+03 
       9.346688429613e-02       6.640499438888e+03 
       9.673716026122e-02       6.226709036962e+03 
       1.000946150608e-01       5.859931720178e+03 
       1.035447986307e-01       5.545235603277e+03 
       1.070931966524e-01       5.283152483443e+03 
       1.107452594180e-01       5.069429253801e+03 
       1.145064248899e-01       4.895247947208e+03 
       1.183821370656e-01       4.747839156539e+03 
       1.223778605591e-01       4.611727597357e+03 
       1.264990921707e-01       4.470631562334e+03 
       1.307513701078e-01       4.310277248298e+03 
       1.351402814485e-01       4.121396492596e+03 
       1.396714683894e-01       3.902074368434e+03 
       1.443506337875e-01       3.658634909895e+03 
       1.491835464900e-01       3.404483872282e+03 
       1.541760469368e-01       3.156673311159e+03 
       1.593340535209e-01       2.931971360439e+03 
       1.646635701934e-01       2.742374954427e+03 
       1.701706958081e-01       2.592257590484e+03 
       1.758616357070e-01       2.477238931332e+03 
       1.817427160581e-01       2.385184861676e+03 
       1.878204014651e-01       2.300361972957e+03 
       1.941013163855e-01       2.205763775630e+03 
       2.005922709060e-01       2.090817153801e+03 
       2.073002914514e-01       1.956467341094e+03 
       2.142326570343e-01       1.814193783009e+03 
       2.213969417044e-01       1.679297192979e+03 
       2.288010639201e-01       1.563850434891e+03 
       2.364533436625e-01       1.472685145880e+03 
       2.443625682390e-01       1.401509367752e+03 
       2.525380678946e-01       1.338412081415e+03 
       2.609898025770e-01       1.270905881515e+03 
       2.697284614969e-01       1.193383293126e+03 
       2.787655775073e-01       1.109339429565e+03 
       2.881136588192e-01       1.028772393128e+03 
       2.977863412019e-01       9.604829675103e+02 
       3.077985646248e-01       9.050258849466e+02 
       3.181667793367e-01       8.561489689159e+02 
       3.289091877084e-01       8.061874105734e+02 
       3.400460298905e-01       7.523924016604e+02 
       3.515999235695e-01       6.989240409614e+02 
       3.635962710278e-01       6.510654597302e+02 
       3.760637505499e-01       6.101230067023e+02 
       3.890349143014e-01       5.721330793457e+02 
       4.025469215929e-01       5.337834791770e+02 
       4.166424455447e-01       4.956342278442e+02 
       4.313708034899e-01       4.604698419791e+02 
       4.467893781976e-01       4.287804322526e+02 
       4.629654198623e-01       3.987735479492e+02 
       4.799783500912e-01       3.692430890495e+02 
       4.979227318246e-01       3.412402842418e+02 
       5.169121269689e-01       3.154847655454e+02 
       5.370841403262e-01       2.908360630284e+02 
       5.586070463286e-01       2.671078222954e+02 
       5.816885093582e-01       2.448104451062e+02 
       6.065870143577e-01       2.235677900246e+02 
       6.336266466978e-01       2.032114807746e+02 
       6.632156057925e-01       1.838796575483e+02 
       6.958678637575e-01       1.653549451129e+02 
       7.322247983784e-01       1.476956818359e+02 
       7.730680193171e-01       1.308334594789e+02 
       8.193049551574e-01       1.148317550985e+02 
       8.718988013754e-01       9.976283312538e+01 
       9.317218028590e-01       8.577813616481e+01 
       9.993660906273e-01       7.305499769532e+01 
       1.075037109879e+00       6.173620212558e+01 
       1.158653485387e+00       5.187933334516e+01 
       1.250099156961e+00       4.344055686185e+01 
       1.349432400897e+00       3.628957552833e+01 
       1.456947456991e+00       3.026812436669e+01 
       1.573135110893e+00       2.521455257717e+01 
       1.698621895119e+00       2.098208071310e+01 
       1.834127512423e+00       1.744250332876e+01 
       1.980444933977e+00       1.448573614200e+01 
       2.138435191130e+00       1.201901899952e+01 
       2.309029198543e+00       9.963229561430e+00 
       2.493232376993e+00       8.251922671118e+00 
       2.692130394536e+00       6.828664504988e+00 
       2.906895533764e+00       5.646342250087e+00 
       3.138793596840e+00       4.664929894344e+00 
       3.389191365541e+00       3.851132603558e+00 
       3.659564656886e+00       3.176950066478e+00 
       3.951507021438e+00       2.618895404420e+00 
       4.266739135513e+00       2.157350742947e+00 
       4.607118942658e+00       1.775945523305e+00 
       4.974652604172e+00       1.461006528469e+00 
       5.371506323193e+00       1.201140999160e+00 
       5.800019112071e+00       9.868885435297e-01 
       6.262716578240e+00       8.103568296257e-01 
       6.762325809881e+00       6.650190227545e-01 
       7.301791449077e+00       5.454299607883e-01 
       7.884293047211e+00       4.470998667663e-01 
       8.513263804891e+00       3.662977458368e-01 
       9.192410806865e+00       2.999439407879e-01 
       9.925736871166e+00       2.454836528911e-01 
       1.071756414128e+01       2.008087747971e-01 
       1.157255956041e+01       1.641866174396e-01 
       1.249576237789e+01       1.341782143151e-01 
       1.349261385000e+01       1.096036524537e-01 
       1.456898931011e+01       8.948921107351e-02 
       1.573123279727e+01       7.303434513618e-02 
       1.698619444729e+01       5.957911407125e-02 
       1.834127086665e+01       4.858150697928e-02 
       1.980444872733e+01       3.959719372003e-02 
       2.138435183937e+01       3.226108412340e-02 
       2.309029197863e+01       2.627362725118e-02 
       2.493232376942e+01       2.138865073696e-02 
       2.692130394533e+01       1.740481242347e-02 
       2.906895533764e+01       1.415753978991e-02 
       3.138793596840e+01       1.151140092061e-02 
       3.389191365541e+01       9.356167777384e-03 
       3.659564656886e+01       7.601329643076e-03 
       3.951507021438e+01       6.173114829802e-03 
       4.266739135513e+01       5.011221525806e-03 
       4.607118942658e+01       4.066109373479e-03 
       4.974652604172e+01       3.298034880241e-03 
       5.371506323193e+01       2.673736913738e-03 
       5.800019112071e+01       2.166526365973e-03 
       6.262716578240e+01       1.754762078035e-03 
       6.762325809881e+01       1.420445678436e-03 
