# Matter power spectrum P(k) at redshift z=99
# for k=1.04775e-05 to 66.1767 h/Mpc,
# number of wavenumbers equal to 130
#    1:k (h/Mpc)              2:P (Mpc/h)^3        
       1.047750691046e-05       7.261927680869e-03 
       1.319039970183e-05       9.069258201857e-03 
       1.660572937635e-05       1.132639106726e-02 
       2.090537469327e-05       1.414527123400e-02 
       2.631830744443e-05       1.766569584060e-02 
       3.313278603720e-05       2.206225515945e-02 
       4.171170630578e-05       2.755297766279e-02 
       5.251192703764e-05       3.441013522951e-02 
       6.610859936996e-05       4.297372172782e-02 
       8.322579568497e-05       5.366826852949e-02 
       1.047750691046e-04       6.702379872781e-02 
       1.319039970183e-04       8.370193441294e-02 
       1.660572937635e-04       1.045283355385e-01 
       2.090537469327e-04       1.305329134105e-01 
       2.631830744443e-04       1.629994506607e-01 
       3.313278603720e-04       2.035264004603e-01 
       4.171170630578e-04       2.541004744245e-01 
       5.251192703764e-04       3.171839528560e-01 
       6.610859936996e-04       3.958147256516e-01 
       8.322579568497e-04       4.937136006262e-01 
       1.047750691046e-03       6.153841636047e-01 
       1.319039970183e-03       7.661720592751e-01 
       1.660572937635e-03       9.522588016475e-01 
       2.090537469327e-03       1.180312991698e+00 
       2.631830744443e-03       1.456802684682e+00 
       3.313278603720e-03       1.786503854030e+00 
       4.171170630578e-03       2.169896161924e+00 
       5.251192703764e-03       2.599430630681e+00 
       6.610859936996e-03       3.055668713320e+00 
       8.322579568497e-03       3.505725598420e+00 
       1.047750691046e-02       3.905491865032e+00 
       1.319039970183e-02       4.200915335156e+00 
       1.660572937633e-02       4.325062811241e+00 
       2.090537453514e-02       4.210204410333e+00 
       2.631818545635e-02       3.825151223812e+00 
       3.311571692125e-02       3.229059668719e+00 
       4.113809243311e-02       2.627733840910e+00 
       4.792590854610e-02       2.280793988658e+00 
       5.284436902701e-02       2.110084967788e+00 
       5.689644391095e-02       2.003534420449e+00 
       6.051252627066e-02       1.923057320541e+00 
       6.388413457411e-02       1.852735400522e+00 
       6.711249296401e-02       1.784559855483e+00 
       7.025823437965e-02       1.714272605870e+00 
       7.336115587705e-02       1.639815969079e+00 
       7.644928796912e-02       1.560659082285e+00 
       7.954353299775e-02       1.477458335421e+00 
       8.266024078725e-02       1.391695370032e+00 
       8.581273398637e-02       1.305461344748e+00 
       8.901225918437e-02       1.221126035007e+00 
       9.226860540985e-02       1.141079116194e+00 
       9.559052048996e-02       1.067452723584e+00 
       9.898599946599e-02       1.001891618262e+00 
       1.024624891378e-01       9.453813346423e-01 
       1.060270359164e-01       8.981493877601e-01 
       1.096863943056e-01       8.596125050326e-01 
       1.134471073830e-01       8.284052571914e-01 
       1.173155669539e-01       8.024694770167e-01 
       1.212980586983e-01       7.792289524543e-01 
       1.254007961065e-01       7.559185983438e-01 
       1.296299459934e-01       7.299825556746e-01 
       1.339916477160e-01       6.995933652837e-01 
       1.384920277736e-01       6.640780486627e-01 
       1.431372111762e-01       6.241485740997e-01 
       1.479333307714e-01       5.817641163473e-01 
       1.528865355934e-01       5.396893383994e-01 
       1.580029992204e-01       5.008130685325e-01 
       1.632889290723e-01       4.673991305356e-01 
       1.687505775527e-01       4.405344618174e-01 
       1.743942559171e-01       4.198649829192e-01 
       1.802263517371e-01       4.036595406572e-01 
       1.862533508214e-01       3.893612143206e-01 
       1.924818644494e-01       3.741386568924e-01 
       1.989186627765e-01       3.558058761961e-01 
       2.055707152847e-01       3.340041872500e-01 
       2.124452391818e-01       3.102660084583e-01 
       2.195497567139e-01       2.871224485949e-01 
       2.268921624510e-01       2.668084384247e-01 
       2.344808017550e-01       2.504833038469e-01 
       2.423245618548e-01       2.378335933306e-01 
       2.504329772620e-01       2.271114165389e-01 
       2.588163516754e-01       2.161191804029e-01 
       2.674858990930e-01       2.035476671244e-01 
       2.764539076010e-01       1.895976341665e-01 
       2.857339303080e-01       1.757569601210e-01 
       2.953410092148e-01       1.636986907845e-01 
       3.052919395542e-01       1.539061901165e-01 
       3.156055844677e-01       1.455307692777e-01 
       3.263032530092e-01       1.372502521176e-01 
       3.374091587054e-01       1.283014975873e-01 
       3.489509817175e-01       1.191707491012e-01 
       3.609605657343e-01       1.108071119940e-01 
       3.734747921333e-01       1.036449259461e-01 
       3.865366902904e-01       9.714125631363e-02 
       4.001968667448e-01       9.061567044216e-02 
       4.145153713076e-01       8.403690562635e-02 
       4.295641718077e-01       7.789109092032e-02 
       4.454304922144e-01       7.234148563920e-02 
       4.622214006969e-01       6.709353568911e-02 
       4.800702491654e-01       6.189186036713e-02 
       4.991459272112e-01       5.692641153325e-02 
       5.196665217302e-01       5.231590942268e-02 
       5.419201087032e-01       4.783247001032e-02 
       5.662975451962e-01       4.348685814595e-02 
       5.933463737275e-01       3.933106633792e-02 
       6.238638458458e-01       3.525335950925e-02 
       6.590669257916e-01       3.126281783179e-02 
       7.009246080454e-01       2.728734798017e-02 
       7.528593308799e-01       2.327842109771e-02 
       8.213469537518e-01       1.914824925943e-02 
       9.196980813302e-01       1.481693566762e-02 
       1.075112183810e+00       1.035079839802e-02 
       1.322697471132e+00       6.379361514333e-03 
       1.662328205042e+00       3.705552198103e-03 
       2.092692408506e+00       2.124435176666e-03 
       2.634543445090e+00       1.207835723655e-03 
       3.316693691389e+00       6.815765975726e-04 
       4.175469971226e+00       3.819774326131e-04 
       5.256605252960e+00       2.127152778506e-04 
       6.617673932723e+00       1.177455477980e-04 
       8.331157880872e+00       6.478925478279e-05 
       1.048830636590e+01       3.542423005536e-05 
       1.320399541071e+01       1.921905020546e-05 
       1.662284535976e+01       1.031325835560e-05 
       2.092692243973e+01       5.436122002923e-06 
       2.634543445002e+01       2.775011876737e-06 
       3.316693691389e+01       1.333422506175e-06 
       4.175469971226e+01       5.690300515002e-07 
       5.256605252960e+01       1.893948098366e-07 
       6.617673932723e+01       3.346597193958e-08 
