# Matter power spectrum P(k) at redshift z=0
# for k=1.04775e-05 to 66.1767 h/Mpc,
# number of wavenumbers equal to 130
#    1:k (h/Mpc)              2:P (Mpc/h)^3        
       1.047750691046e-05       5.020964811308e+01 
       1.319039970183e-05       6.270562594780e+01 
       1.660572937635e-05       7.831147247912e+01 
       2.090537469327e-05       9.780108069295e+01 
       2.631830744443e-05       1.221408203809e+02 
       3.313278603720e-05       1.525374501932e+02 
       4.171170630578e-05       1.904975994010e+02 
       5.251192703764e-05       2.379022224249e+02 
       6.610859936996e-05       2.970989227881e+02 
       8.322579568497e-05       3.710167318946e+02 
       1.047750691046e-04       4.633080766742e+02 
       1.319039970183e-04       5.785234129335e+02 
       1.660572937635e-04       7.223242666092e+02 
       2.090537469327e-04       9.017396271824e+02 
       2.631830744443e-04       1.125468123750e+03 
       3.313278603720e-04       1.404223053681e+03 
       4.171170630578e-04       1.751108028790e+03 
       5.251192703764e-04       2.181998448133e+03 
       6.610859936996e-04       2.715889983592e+03 
       8.322579568497e-04       3.375152337134e+03 
       1.047750691046e-03       4.185552174305e+03 
       1.319039970183e-03       5.175742740860e+03 
       1.660572937635e-03       6.376123051778e+03 
       2.090537469327e-03       7.815671911816e+03 
       2.631830744443e-03       9.517783069112e+03 
       3.313278603720e-03       1.149357460341e+04 
       4.171170630578e-03       1.373266010141e+04 
       5.251192703764e-03       1.619063614560e+04 
       6.610859936996e-03       1.877460424046e+04 
       8.322579568497e-03       2.132607231592e+04 
       1.047750691046e-02       2.360548498159e+04 
       1.319039970183e-02       2.528218713117e+04 
       1.660572937633e-02       2.595027333095e+04 
       2.090537453514e-02       2.520936831244e+04 
       2.631818545635e-02       2.287033842736e+04 
       3.311571692125e-02       1.928622462307e+04 
       4.113809243311e-02       1.568425010996e+04 
       4.792590854610e-02       1.361061763294e+04 
       5.284436902701e-02       1.259130516552e+04 
       5.689644391095e-02       1.195553418811e+04 
       6.051252627066e-02       1.147545925508e+04 
       6.388413457411e-02       1.105590790520e+04 
       6.711249296401e-02       1.064897086501e+04 
       7.025823437965e-02       1.022928714532e+04 
       7.336115587705e-02       9.784538886998e+03 
       7.644928796912e-02       9.311668993026e+03 
       7.954353299775e-02       8.814543160080e+03 
       8.266024078725e-02       8.302130389614e+03 
       8.581273398637e-02       7.786956940226e+03 
       8.901225918437e-02       7.283169586506e+03 
       9.226860540985e-02       6.805169295662e+03 
       9.559052048996e-02       6.365625887263e+03 
       9.898599946599e-02       5.974399726780e+03 
       1.024624891378e-01       5.637323614052e+03 
       1.060270359164e-01       5.355764079003e+03 
       1.096863943056e-01       5.126242075816e+03 
       1.134471073830e-01       4.940490614286e+03 
       1.173155669539e-01       4.786164918504e+03 
       1.212980586983e-01       4.647934261540e+03 
       1.254007961065e-01       4.509150723068e+03 
       1.296299459934e-01       4.354558875775e+03 
       1.339916477160e-01       4.173215772491e+03 
       1.384920277736e-01       3.961166608606e+03 
       1.431372111762e-01       3.722687797152e+03 
       1.479333307714e-01       3.469555578754e+03 
       1.528865355934e-01       3.218336952720e+03 
       1.580029992204e-01       2.986289102345e+03 
       1.632889290723e-01       2.786971567655e+03 
       1.687505775527e-01       2.626824591848e+03 
       1.743942559171e-01       2.503756525340e+03 
       1.802263517371e-01       2.407346616338e+03 
       1.862533508214e-01       2.322248306777e+03 
       1.924818644494e-01       2.231555358118e+03 
       1.989186627765e-01       2.122191246252e+03 
       2.055707152847e-01       1.992023357823e+03 
       2.124452391818e-01       1.850323870758e+03 
       2.195497567139e-01       1.712187154798e+03 
       2.268921624510e-01       1.590991622704e+03 
       2.344808017550e-01       1.493667020135e+03 
       2.423245618548e-01       1.418312434197e+03 
       2.504329772620e-01       1.354466920579e+03 
       2.588163516754e-01       1.288935459540e+03 
       2.674858990930e-01       1.213937661329e+03 
       2.764539076010e-01       1.130691512493e+03 
       2.857339303080e-01       1.048100930807e+03 
       2.953410092148e-01       9.761845238809e+02 
       3.052919395542e-01       9.178107476732e+02 
       3.156055844677e-01       8.678992805502e+02 
       3.263032530092e-01       8.185259883484e+02 
       3.374091587054e-01       7.651459883257e+02 
       3.489509817175e-01       7.106701432683e+02 
       3.609605657343e-01       6.607874671729e+02 
       3.734747921333e-01       6.180863100639e+02 
       3.865366902904e-01       5.793102935022e+02 
       4.001968667448e-01       5.403902542899e+02 
       4.145153713076e-01       5.011517362070e+02 
       4.295641718077e-01       4.644985644481e+02 
       4.454304922144e-01       4.314101511891e+02 
       4.622214006969e-01       4.001143836906e+02 
       4.800702491654e-01       3.690884318713e+02 
       4.991459272112e-01       3.394766271064e+02 
       5.196665217302e-01       3.119862297753e+02 
       5.419201087032e-01       2.852473072472e+02 
       5.662975451962e-01       2.593310828014e+02 
       5.933463737275e-01       2.345481050889e+02 
       6.238638458458e-01       2.102307139049e+02 
       6.590669257916e-01       1.864333971910e+02 
       7.009246080454e-01       1.627248509355e+02 
       7.528593308799e-01       1.388187377894e+02 
       8.213469537518e-01       1.141881462152e+02 
       9.196980813302e-01       8.835930269399e+01 
       1.075112183810e+00       6.172626588818e+01 
       1.322697471132e+00       3.804289580543e+01 
       1.662328205042e+00       2.209795184604e+01 
       2.092692408506e+00       1.266921418852e+01 
       2.634543445090e+00       7.203379668138e+00 
       3.316693691389e+00       4.065154810547e+00 
       4.175469971226e+00       2.278616365669e+00 
       5.256605252960e+00       1.269352224549e+00 
       6.617673932723e+00       7.031392944526e-01 
       8.331157880872e+00       3.874800891899e-01 
       1.048830636590e+01       2.125125063992e-01 
       1.320399541071e+01       1.160365411457e-01 
       1.662284535976e+01       6.309885313629e-02 
       2.092692243973e+01       3.417950806719e-02 
       2.634543445002e+01       1.844600781632e-02 
       3.316693691389e+01       9.919235341984e-03 
       4.175469971226e+01       5.314610690451e-03 
       5.256605252960e+01       2.836712749616e-03 
       6.617673932723e+01       1.507705620263e-03 
