# Matter power spectrum P(k) at redshift z=0
# for k=1.04775e-05 to 66.1767 h/Mpc,
# number of wavenumbers equal to 130
#    1:k (h/Mpc)              2:P (Mpc/h)^3        
       1.047750691046e-05       5.020964811307e+01 
       1.319039970183e-05       6.270562594775e+01 
       1.660572937635e-05       7.831147247912e+01 
       2.090537469327e-05       9.780108069295e+01 
       2.631830744443e-05       1.221408203809e+02 
       3.313278603720e-05       1.525374501932e+02 
       4.171170630578e-05       1.904975994010e+02 
       5.251192703764e-05       2.379022224249e+02 
       6.610859936996e-05       2.970989227882e+02 
       8.322579568497e-05       3.710167318946e+02 
       1.047750691046e-04       4.633080766742e+02 
       1.319039970183e-04       5.785234129339e+02 
       1.660572937635e-04       7.223242666092e+02 
       2.090537469327e-04       9.017396271824e+02 
       2.631830744443e-04       1.125468123750e+03 
       3.313278603720e-04       1.404223053681e+03 
       4.171170630578e-04       1.751108028790e+03 
       5.251192703764e-04       2.181998448133e+03 
       6.610859936996e-04       2.715889983592e+03 
       8.322579568497e-04       3.375152337135e+03 
       1.047750691046e-03       4.185552174306e+03 
       1.319039970183e-03       5.175742740852e+03 
       1.660572937635e-03       6.376123051777e+03 
       2.090537469327e-03       7.815671866067e+03 
       2.631830744443e-03       9.517783069112e+03 
       3.313278603720e-03       1.149357460345e+04 
       4.171170630578e-03       1.373265990580e+04 
       5.251192703764e-03       1.619063614507e+04 
       6.610859936996e-03       1.877460397597e+04 
       8.322579568497e-03       2.132607232182e+04 
       1.047750691046e-02       2.360548945812e+04 
       1.319039970183e-02       2.528218656461e+04 
       1.660572937633e-02       2.595027592849e+04 
       2.090537453514e-02       2.520933793661e+04 
       2.631818545635e-02       2.287037312969e+04 
       3.311571692125e-02       1.928621123161e+04 
       4.113809243311e-02       1.568429371521e+04 
       4.792590854610e-02       1.361062953190e+04 
       5.284436902701e-02       1.259129953013e+04 
       5.689644391095e-02       1.195553893691e+04 
       6.051252627066e-02       1.147546362185e+04 
       6.388413457411e-02       1.105587806483e+04 
       6.711249296401e-02       1.064896794123e+04 
       7.025823437965e-02       1.022926251202e+04 
       7.336115587705e-02       9.784525881079e+03 
       7.644928796912e-02       9.311634431253e+03 
       7.954353299775e-02       8.814542855135e+03 
       8.266024078725e-02       8.302113912720e+03 
       8.581273398637e-02       7.786965909794e+03 
       8.901225918437e-02       7.283154279540e+03 
       9.226860540985e-02       6.805164325689e+03 
       9.559052048996e-02       6.365575926200e+03 
       9.898599946599e-02       5.974387214577e+03 
       1.024624891378e-01       5.637330570615e+03 
       1.060270359164e-01       5.355785885279e+03 
       1.096863943056e-01       5.126232290308e+03 
       1.134471073830e-01       4.940466127035e+03 
       1.173155669539e-01       4.786161496858e+03 
       1.212980586983e-01       4.647944460904e+03 
       1.254007961065e-01       4.509144360737e+03 
       1.296299459934e-01       4.354556104403e+03 
       1.339916477160e-01       4.173223028548e+03 
       1.384920277736e-01       3.961163886684e+03 
       1.431372111762e-01       3.722667415698e+03 
       1.479333307714e-01       3.469555668807e+03 
       1.528865355934e-01       3.218340817528e+03 
       1.580029992204e-01       2.986279111754e+03 
       1.632889290723e-01       2.786959163929e+03 
       1.687505775527e-01       2.626826669219e+03 
       1.743942559171e-01       2.503753815559e+03 
       1.802263517371e-01       2.407336492684e+03 
       1.862533508214e-01       2.322253961916e+03 
       1.924818644494e-01       2.231553100388e+03 
       1.989186627765e-01       2.122186942503e+03 
       2.055707152847e-01       1.992026502842e+03 
       2.124452391818e-01       1.850327642985e+03 
       2.195497567139e-01       1.712171075610e+03 
       2.268921624510e-01       1.590986887122e+03 
       2.344808017550e-01       1.493670650389e+03 
       2.423245618548e-01       1.418305922448e+03 
       2.504329772620e-01       1.354464486128e+03 
       2.588163516754e-01       1.288930103026e+03 
       2.674858990930e-01       1.213936337760e+03 
       2.764539076010e-01       1.130692142622e+03 
       2.857339303080e-01       1.048099827833e+03 
       2.953410092148e-01       9.761812109099e+02 
       3.052919395542e-01       9.178027715321e+02 
       3.156055844677e-01       8.678974845920e+02 
       3.263032530092e-01       8.185247335217e+02 
       3.374091587054e-01       7.651433420950e+02 
       3.489509817175e-01       7.106688380683e+02 
       3.609605657343e-01       6.607818257535e+02 
       3.734747921333e-01       6.180828279205e+02 
       3.865366902904e-01       5.793089212350e+02 
       4.001968667448e-01       5.403889469943e+02 
       4.145153713076e-01       5.011482720198e+02 
       4.295641718077e-01       4.644976307343e+02 
       4.454304922144e-01       4.314047586737e+02 
       4.622214006969e-01       4.001118271467e+02 
       4.800702491654e-01       3.690889376263e+02 
       4.991459272112e-01       3.394745956795e+02 
       5.196665217302e-01       3.119838123494e+02 
       5.419201087032e-01       2.852463736584e+02 
       5.662975451962e-01       2.593307275481e+02 
       5.933463737275e-01       2.345470273127e+02 
       6.238638458458e-01       2.102293186603e+02 
       6.590669257916e-01       1.864329015264e+02 
       7.009246080454e-01       1.627240621897e+02 
       7.528593308799e-01       1.388178929364e+02 
       8.213469537518e-01       1.141886472627e+02 
       9.196980813302e-01       8.835888911029e+01 
       1.075112183810e+00       6.172591716873e+01 
       1.322697471132e+00       3.804259236513e+01 
       1.662328205042e+00       2.209788518681e+01 
       2.092692408506e+00       1.266912347662e+01 
       2.634543445090e+00       7.203258377190e+00 
       3.316693691389e+00       4.065127565452e+00 
       4.175469971226e+00       2.278609295109e+00 
       5.256605252960e+00       1.269336097845e+00 
       6.617673932723e+00       7.031240008304e-01 
       8.331157880872e+00       3.874686791727e-01 
       1.048830636590e+01       2.125044143327e-01 
       1.320399541071e+01       1.160307005430e-01 
       1.662284535976e+01       6.309434112254e-02 
       2.092692243973e+01       3.417536917056e-02 
       2.634543445002e+01       1.844226945225e-02 
       3.316693691389e+01       9.915630894925e-03 
       4.175469971226e+01       5.311334653097e-03 
       5.256605252960e+01       2.833656572000e-03 
       6.617673932723e+01       1.504852466202e-03 
