# Matter power spectrum P(k) at redshift z=0
# for k=1.04775e-05 to 66.1767 h/Mpc,
# number of wavenumbers equal to 130
#    1:k (h/Mpc)              2:P (Mpc/h)^3        
       1.047750691046e-05       5.020964811308e+01 
       1.319039970183e-05       6.270562594799e+01 
       1.660572937635e-05       7.831147247912e+01 
       2.090537469327e-05       9.780108069305e+01 
       2.631830744443e-05       1.221408203809e+02 
       3.313278603720e-05       1.525374501932e+02 
       4.171170630578e-05       1.904975994008e+02 
       5.251192703764e-05       2.379022224248e+02 
       6.610859936996e-05       2.970989227882e+02 
       8.322579568497e-05       3.710167318946e+02 
       1.047750691046e-04       4.633080766742e+02 
       1.319039970183e-04       5.785234129336e+02 
       1.660572937635e-04       7.223242666092e+02 
       2.090537469327e-04       9.017396271824e+02 
       2.631830744443e-04       1.125468123750e+03 
       3.313278603720e-04       1.404223053681e+03 
       4.171170630578e-04       1.751108028790e+03 
       5.251192703764e-04       2.181998448133e+03 
       6.610859936996e-04       2.715889983592e+03 
       8.322579568497e-04       3.375152337134e+03 
       1.047750691046e-03       4.185552174302e+03 
       1.319039970183e-03       5.175742743770e+03 
       1.660572937635e-03       6.376123051776e+03 
       2.090537469327e-03       7.815671864557e+03 
       2.631830744443e-03       9.517783068995e+03 
       3.313278603720e-03       1.149357460310e+04 
       4.171170630578e-03       1.373266009425e+04 
       5.251192703764e-03       1.619063614148e+04 
       6.610859936996e-03       1.877460424243e+04 
       8.322579568497e-03       2.132606807895e+04 
       1.047750691046e-02       2.360548515514e+04 
       1.319039970183e-02       2.528218792703e+04 
       1.660572937633e-02       2.595029512717e+04 
       2.090537453514e-02       2.520933790666e+04 
       2.631818545635e-02       2.287035101544e+04 
       3.311571692125e-02       1.928621237603e+04 
       4.113809243311e-02       1.568430555784e+04 
       4.792590854610e-02       1.361066056112e+04 
       5.284436902701e-02       1.259129001867e+04 
       5.689644391095e-02       1.195554807376e+04 
       6.051252627066e-02       1.147544193421e+04 
       6.388413457411e-02       1.105588896029e+04 
       6.711249296401e-02       1.064897317387e+04 
       7.025823437965e-02       1.022927104300e+04 
       7.336115587705e-02       9.784480853757e+03 
       7.644928796912e-02       9.311622364123e+03 
       7.954353299775e-02       8.814521863846e+03 
       8.266024078725e-02       8.302102452948e+03 
       8.581273398637e-02       7.786939760710e+03 
       8.901225918437e-02       7.283137370072e+03 
       9.226860540985e-02       6.805118931291e+03 
       9.559052048996e-02       6.365585027191e+03 
       9.898599946599e-02       5.974333969268e+03 
       1.024624891378e-01       5.637316792358e+03 
       1.060270359164e-01       5.355753158459e+03 
       1.096863943056e-01       5.126190323452e+03 
       1.134471073830e-01       4.940444591680e+03 
       1.173155669539e-01       4.786130766795e+03 
       1.212980586983e-01       4.647899520499e+03 
       1.254007961065e-01       4.509111009235e+03 
       1.296299459934e-01       4.354495867053e+03 
       1.339916477160e-01       4.173170341439e+03 
       1.384920277736e-01       3.961124190103e+03 
       1.431372111762e-01       3.722623050399e+03 
       1.479333307714e-01       3.469507370815e+03 
       1.528865355934e-01       3.218293505248e+03 
       1.580029992204e-01       2.986249346772e+03 
       1.632889290723e-01       2.786911639275e+03 
       1.687505775527e-01       2.626771854044e+03 
       1.743942559171e-01       2.503692706370e+03 
       1.802263517371e-01       2.407289928380e+03 
       1.862533508214e-01       2.322192113128e+03 
       1.924818644494e-01       2.231493810054e+03 
       1.989186627765e-01       2.122122847441e+03 
       2.055707152847e-01       1.991959984347e+03 
       2.124452391818e-01       1.850255645877e+03 
       2.195497567139e-01       1.712117673143e+03 
       2.268921624510e-01       1.590918996792e+03 
       2.344808017550e-01       1.493592811058e+03 
       2.423245618548e-01       1.418231224113e+03 
       2.504329772620e-01       1.354384880183e+03 
       2.588163516754e-01       1.288851593071e+03 
       2.674858990930e-01       1.213848906731e+03 
       2.764539076010e-01       1.130605597291e+03 
       2.857339303080e-01       1.048011705978e+03 
       2.953410092148e-01       9.760924077090e+02 
       3.052919395542e-01       9.177168276500e+02 
       3.156055844677e-01       8.678013786706e+02 
       3.263032530092e-01       8.184259662065e+02 
       3.374091587054e-01       7.650484518978e+02 
       3.489509817175e-01       7.105658217959e+02 
       3.609605657343e-01       6.606796211099e+02 
       3.734747921333e-01       6.179781372024e+02 
       3.865366902904e-01       5.791999104004e+02 
       4.001968667448e-01       5.402770940707e+02 
       4.145153713076e-01       5.010345392841e+02 
       4.295641718077e-01       4.643802269483e+02 
       4.454304922144e-01       4.312860077737e+02 
       4.622214006969e-01       3.999893698532e+02 
       4.800702491654e-01       3.689606602041e+02 
       4.991459272112e-01       3.393460129258e+02 
       5.196665217302e-01       3.118509151866e+02 
       5.419201087032e-01       2.851090968688e+02 
       5.662975451962e-01       2.591899757046e+02 
       5.933463737275e-01       2.344037673329e+02 
       6.238638458458e-01       2.100832152989e+02 
       6.590669257916e-01       1.862819707839e+02 
       7.009246080454e-01       1.625688782877e+02 
       7.528593308799e-01       1.386564465388e+02 
       8.213469537518e-01       1.140197313013e+02 
       9.196980813302e-01       8.818308149408e+01 
       1.075112183810e+00       6.153936582690e+01 
       1.322697471132e+00       3.784306661537e+01 
       1.662328205042e+00       2.188499902867e+01 
       2.092692408506e+00       1.244515918355e+01 
       2.634543445090e+00       6.970892473558e+00 
       3.316693691389e+00       3.828111744821e+00 
       4.175469971226e+00       2.042214317601e+00 
       5.256605252960e+00       1.040588111017e+00 
       6.617673932723e+00       4.909551008735e-01 
       8.331157880872e+00       2.022324805876e-01 
       1.048830636590e+01       6.422653483971e-02 
       1.320399541071e+01       1.103852233118e-02 
       1.662284535976e+01       1.179182377780e-05 
       2.092692243973e+01       2.537522856694e-03 
       2.634543445002e+01       3.492917231702e-03 
       3.316693691389e+01       1.296699470416e-03 
       4.175469971226e+01       3.033520226222e-05 
       5.256605252960e+01       8.585829345086e-05 
       6.617673932723e+01       2.689302006678e-05 
