# Matter power spectrum P(k) at redshift z=99
# for k=1.04775e-05 to 67.6233 h/Mpc,
# number of wavenumbers equal to 246
#    1:k (h/Mpc)              2:P (Mpc/h)^3        
       1.047750691338e-05       7.261927673119e-03 
       1.131335172818e-05       7.820331745737e-03 
       1.221587619877e-05       8.421675986489e-03 
       1.319039970550e-05       9.069258192195e-03 
       1.424266598317e-05       9.766638404421e-03 
       1.537887697396e-05       1.051764069682e-02 
       1.660572938097e-05       1.132639105520e-02 
       1.793045413791e-05       1.219733231416e-02 
       1.936085902737e-05       1.313524224381e-02 
       2.090537469909e-05       1.414527121893e-02 
       2.257310435923e-05       1.523296272192e-02 
       2.437387742372e-05       1.640429444530e-02 
       2.631830745176e-05       1.766569582178e-02 
       2.841785470091e-05       1.902408601793e-02 
       3.068489367268e-05       2.048692970592e-02 
       3.313278604643e-05       2.206225513594e-02 
       3.577595943165e-05       2.375870704909e-02 
       3.862999240274e-05       2.558560727479e-02 
       4.171170631739e-05       2.755297763344e-02 
       4.503926445983e-05       2.967161927314e-02 
       4.863227909323e-05       3.195316450832e-02 
       5.251192705226e-05       3.441013519284e-02 
       5.670107455699e-05       3.705601722527e-02 
       6.122441198393e-05       3.990533413563e-02 
       6.610859938837e-05       4.297372168203e-02 
       7.138242363583e-05       4.627802141688e-02 
       7.707696806873e-05       4.983636194159e-02 
       8.322579570814e-05       5.366826847231e-02 
       8.986514707061e-05       5.779476394569e-02 
       9.703415376577e-05       6.223848243885e-02 
       1.047750691338e-04       6.702379865640e-02 
       1.131335172818e-04       7.217695153381e-02 
       1.221587619877e-04       7.772619073571e-02 
       1.319039970550e-04       8.370193432377e-02 
       1.424266598317e-04       9.013692507547e-02 
       1.537887697396e-04       9.706641242571e-02 
       1.660572938097e-04       1.045283354271e-01 
       1.793045413791e-04       1.125635349068e-01 
       1.936085902737e-04       1.212159614968e-01 
       2.090537469909e-04       1.305329132714e-01 
       2.257310435923e-04       1.405652846215e-01 
       2.437387742372e-04       1.513678302540e-01 
       2.631830745176e-04       1.629994504871e-01 
       2.841785470091e-04       1.755234921224e-01 
       3.068489367268e-04       1.890080670413e-01 
       3.313278604643e-04       2.035264002435e-01 
       3.577595943165e-04       2.191571803681e-01 
       3.862999240274e-04       2.359849437593e-01 
       4.171170631739e-04       2.541004741539e-01 
       4.503926445983e-04       2.736012080278e-01 
       4.863227909323e-04       2.945916790965e-01 
       5.251192705226e-04       3.171839525183e-01 
       5.670107455699e-04       3.414980764002e-01 
       6.122441198393e-04       3.676625413100e-01 
       6.610859938837e-04       3.958147252304e-01 
       7.138242363583e-04       4.261013284918e-01 
       7.707696806873e-04       4.586787792354e-01 
       8.322579570814e-04       4.937136001372e-01 
       8.986514707061e-04       5.313826801402e-01 
       9.703415376577e-04       5.718734972158e-01 
       1.047750691338e-03       6.153841629505e-01 
       1.131335172818e-03       6.621233239466e-01 
       1.221587619877e-03       7.123098220422e-01 
       1.319039970550e-03       7.661720584469e-01 
       1.424266598317e-03       8.239546297732e-01 
       1.537887697396e-03       8.859011173466e-01 
       1.660572938097e-03       9.522588006394e-01 
       1.793045413791e-03       1.023280099819e+00 
       1.936085902737e-03       1.099216304579e+00 
       2.090537469909e-03       1.180312990453e+00 
       2.257310435923e-03       1.266804115851e+00 
       2.437387742372e-03       1.358904853406e+00 
       2.631830745176e-03       1.456802683156e+00 
       2.841785470091e-03       1.560646890521e+00 
       3.068489367268e-03       1.670536062500e+00 
       3.313278604643e-03       1.786503852155e+00 
       3.577595943165e-03       1.908502930788e+00 
       3.862999240274e-03       2.036387730708e+00 
       4.171170631739e-03       2.169896178446e+00 
       4.503926445983e-03       2.308631878993e+00 
       4.863227909323e-03       2.452047290961e+00 
       5.251192705226e-03       2.599430628087e+00 
       5.670107455699e-03       2.749896931812e+00 
       6.122441198393e-03       2.902386513381e+00 
       6.610859938837e-03       3.055668706570e+00 
       7.138242363583e-03       3.208356461542e+00 
       7.707696806873e-03       3.358923892425e+00 
       8.322579570814e-03       3.505725141550e+00 
       8.986514707061e-03       3.647009640451e+00 
       9.703415376577e-03       3.780923304313e+00 
       1.047750691338e-02       3.905491074926e+00 
       1.131335172818e-02       4.018588040990e+00 
       1.221587619877e-02       4.117901583779e+00 
       1.319039970550e-02       4.200915196289e+00 
       1.424266598317e-02       4.264945550547e+00 
       1.537887697392e-02       4.307218508247e+00 
       1.660572938023e-02       4.325061024755e+00 
       1.793045412706e-02       4.316057654141e+00 
       1.936085890181e-02       4.278231902868e+00 
       2.090537352463e-02       4.210199488988e+00 
       2.257309535333e-02       4.111420772071e+00 
       2.437382002918e-02       3.982421092437e+00 
       2.631799944462e-02       3.825170562858e+00 
       2.841644545389e-02       3.643285173064e+00 
       3.067933355377e-02       3.442196703474e+00 
       3.311368470740e-02       3.229239503932e+00 
       3.571840443502e-02       3.013513184116e+00 
       3.847720348444e-02       2.805287099233e+00 
       4.135335538431e-02       2.614412469039e+00 
       4.429361667738e-02       2.448133961496e+00 
       4.724366439141e-02       2.309240200490e+00 
       5.016480835311e-02       2.196113089736e+00 
       5.303989620246e-02       2.104368160356e+00 
       5.586870669566e-02       2.028462723670e+00 
       5.866042680613e-02       1.963149894484e+00 
       6.142798932958e-02       1.903782725785e+00 
       6.418496440164e-02       1.846476842941e+00 
       6.694418833788e-02       1.788196676511e+00 
       6.971731106057e-02       1.726717046134e+00 
       7.251476155766e-02       1.660652878151e+00 
       7.534587671527e-02       1.589470618787e+00 
       7.821907666265e-02       1.513437887247e+00 
       8.114203772912e-02       1.433569977209e+00 
       8.412184535029e-02       1.351491562546e+00 
       8.716512279304e-02       1.269273352999e+00 
       9.027813695930e-02       1.189191214961e+00 
       9.346688431697e-02       1.113500933344e+00 
       9.673716028276e-02       1.044174936773e+00 
       1.000946150830e-01       9.827053159892e-01 
       1.035447986537e-01       9.299369066383e-01 
       1.070931966762e-01       8.859592138242e-01 
       1.107452594425e-01       8.500716978240e-01 
       1.145064249153e-01       8.208033813618e-01 
       1.183821370918e-01       7.960255441553e-01 
       1.223778605862e-01       7.731456655549e-01 
       1.264990921987e-01       7.494511726416e-01 
       1.307513701367e-01       7.225569764926e-01 
       1.351402814784e-01       6.909082644606e-01 
       1.396714684203e-01       6.541811435229e-01 
       1.443506338194e-01       6.134270551436e-01 
       1.491835465229e-01       5.708678522705e-01 
       1.541760469708e-01       5.293646042401e-01 
       1.593340535561e-01       4.917107716021e-01 
       1.646635702297e-01       4.599200277270e-01 
       1.701706958456e-01       4.347278121898e-01 
       1.758616357459e-01       4.154084866881e-01 
       1.817427160982e-01       3.999367067423e-01 
       1.878204015065e-01       3.856823993136e-01 
       1.941013164283e-01       3.698102014575e-01 
       2.005922709503e-01       3.505452471043e-01 
       2.073002914972e-01       3.280436000598e-01 
       2.142326570816e-01       3.042142706786e-01 
       2.213969417533e-01       2.816116561859e-01 
       2.288010639706e-01       2.622567371833e-01 
       2.364533437147e-01       2.469620458235e-01 
       2.443625682930e-01       2.350132882466e-01 
       2.525380679504e-01       2.244173147887e-01 
       2.609898026346e-01       2.130941316754e-01 
       2.697284615565e-01       2.001016974249e-01 
       2.787655775689e-01       1.860198165269e-01 
       2.881136588829e-01       1.725168026295e-01 
       2.977863412677e-01       1.610658634307e-01 
       3.077985646929e-01       1.517608767806e-01 
       3.181667794071e-01       1.435595444127e-01 
       3.289091877812e-01       1.351817963428e-01 
       3.400460299658e-01       1.261645553200e-01 
       3.515999236474e-01       1.172016205099e-01 
       3.635962711085e-01       1.091768192808e-01 
       3.760637506334e-01       1.023096304592e-01 
       3.890349143879e-01       9.593763859665e-02 
       4.025469216825e-01       8.950802851544e-02 
       4.166424456376e-01       8.311165947121e-02 
       4.313708035863e-01       7.721546202488e-02 
       4.467893782977e-01       7.190043132660e-02 
       4.629654199664e-01       6.686908961957e-02 
       4.799783501994e-01       6.191764363585e-02 
       4.979227319373e-01       5.722227095655e-02 
       5.169121270864e-01       5.290279109489e-02 
       5.370841404489e-01       4.876959523913e-02 
       5.586070464571e-01       4.479082124931e-02 
       5.816885094930e-01       4.105196682393e-02 
       6.065870144995e-01       3.748987002708e-02 
       6.336266468475e-01       3.407631185182e-02 
       6.632156059511e-01       3.083458444333e-02 
       6.958678639263e-01       2.772830526229e-02 
       7.322247985589e-01       2.476706317319e-02 
       7.730680195114e-01       2.193949927372e-02 
       8.193049553677e-01       1.925613728193e-02 
       8.718988016039e-01       1.672925127614e-02 
       9.317218031082e-01       1.438420521864e-02 
       9.993660908989e-01       1.225062529723e-02 
       1.075037110174e+00       1.035258881330e-02 
       1.158653485707e+00       8.699725696712e-03 
       1.250099157308e+00       7.284536703674e-03 
       1.349432401273e+00       6.085469342285e-03 
       1.456947457397e+00       5.075720993326e-03 
       1.573135111331e+00       4.228295036497e-03 
       1.698621895592e+00       3.518534822551e-03 
       1.834127512934e+00       2.924983826970e-03 
       1.980444934528e+00       2.429152339789e-03 
       2.138435191726e+00       2.015510683766e-03 
       2.309029199186e+00       1.670778599831e-03 
       2.493232377687e+00       1.383793504829e-03 
       2.692130395285e+00       1.145126617729e-03 
       2.906895534573e+00       9.468506993576e-04 
       3.138793597714e+00       7.822869398414e-04 
       3.389191366484e+00       6.458252724276e-04 
       3.659564657905e+00       5.327648853438e-04 
       3.951507022538e+00       4.391845329879e-04 
       4.266739136701e+00       3.617836945667e-04 
       4.607118943941e+00       2.978247147754e-04 
       4.974652605557e+00       2.450114551241e-04 
       5.371506324689e+00       2.014341873370e-04 
       5.800019113685e+00       1.655032871762e-04 
       6.262716579983e+00       1.359008746320e-04 
       6.762325811764e+00       1.115279090741e-04 
       7.301791451110e+00       9.147313277366e-05 
       7.884293049406e+00       7.498353679487e-05 
       8.513263807261e+00       6.143397923691e-05 
       9.192410809424e+00       5.030572373565e-05 
       9.925736873929e+00       4.117246625567e-05 
       1.071756414427e+01       3.368093157508e-05 
       1.157255956364e+01       2.753903063918e-05 
       1.249576238137e+01       2.250632934339e-05 
       1.349261385375e+01       1.838499407025e-05 
       1.456898931416e+01       1.501155491852e-05 
       1.573123280165e+01       1.225186604570e-05 
       1.698619445202e+01       9.995102531023e-06 
       1.834127087176e+01       8.150552310092e-06 
       1.980444873285e+01       6.643669250771e-06 
       2.138435184532e+01       5.413164263382e-06 
       2.309029198506e+01       4.408731232466e-06 
       2.493232377636e+01       3.589328562084e-06 
       2.692130395282e+01       2.920966363393e-06 
       2.906895534573e+01       2.376146554745e-06 
       3.138793597714e+01       1.932135642843e-06 
       3.389191366484e+01       1.570454409312e-06 
       3.659564657905e+01       1.275923718391e-06 
       3.951507022538e+01       1.036184960385e-06 
       4.266739136701e+01       8.410877968004e-07 
       4.607118943941e+01       6.823922454536e-07 
       4.974652605557e+01       5.533385915113e-07 
       5.371506324689e+01       4.484239541110e-07 
       5.800019113685e+01       3.631607104364e-07 
       6.262716579983e+01       2.938866113902e-07 
       6.762325811764e+01       2.376180656847e-07 
