# Matter power spectrum P(k) at redshift z=0
# for k=1.04775e-05 to 66.1767 h/Mpc,
# number of wavenumbers equal to 130
#    1:k (h/Mpc)              2:P (Mpc/h)^3        
       1.047750691046e-05       5.020964811314e+01 
       1.319039970183e-05       6.270562594780e+01 
       1.660572937635e-05       7.831147247912e+01 
       2.090537469327e-05       9.780108069295e+01 
       2.631830744443e-05       1.221408203809e+02 
       3.313278603720e-05       1.525374501932e+02 
       4.171170630578e-05       1.904975994010e+02 
       5.251192703764e-05       2.379022224249e+02 
       6.610859936996e-05       2.970989227882e+02 
       8.322579568497e-05       3.710167318945e+02 
       1.047750691046e-04       4.633080766742e+02 
       1.319039970183e-04       5.785234129339e+02 
       1.660572937635e-04       7.223242666091e+02 
       2.090537469327e-04       9.017396271822e+02 
       2.631830744443e-04       1.125468123749e+03 
       3.313278603720e-04       1.404223053680e+03 
       4.171170630578e-04       1.751108028789e+03 
       5.251192703764e-04       2.181998448130e+03 
       6.610859936996e-04       2.715889983586e+03 
       8.322579568497e-04       3.375152337121e+03 
       1.047750691046e-03       4.185552174280e+03 
       1.319039970183e-03       5.175742739041e+03 
       1.660572937635e-03       6.376123051680e+03 
       2.090537469327e-03       7.815671865978e+03 
       2.631830744443e-03       9.517783068676e+03 
       3.313278603720e-03       1.149357460257e+04 
       4.171170630578e-03       1.373266012557e+04 
       5.251192703764e-03       1.619063567212e+04 
       6.610859936996e-03       1.877460428374e+04 
       8.322579568497e-03       2.132611365418e+04 
       1.047750691046e-02       2.360548762342e+04 
       1.319039970183e-02       2.528219786599e+04 
       1.660572937633e-02       2.595034641942e+04 
       2.090537453514e-02       2.520931188804e+04 
       2.631818545635e-02       2.287022828710e+04 
       3.311571692125e-02       1.928617623633e+04 
       4.113809243311e-02       1.568428071335e+04 
       4.792590854610e-02       1.361057232297e+04 
       5.284436902701e-02       1.259122094792e+04 
       5.689644391095e-02       1.195550691377e+04 
       6.051252627066e-02       1.147548827637e+04 
       6.388413457411e-02       1.105564949179e+04 
       6.711249296401e-02       1.064888132799e+04 
       7.025823437965e-02       1.022929091192e+04 
       7.336115587705e-02       9.784567722335e+03 
       7.644928796912e-02       9.311694701506e+03 
       7.954353299775e-02       8.814535087617e+03 
       8.266024078725e-02       8.302164870720e+03 
       8.581273398637e-02       7.786943906914e+03 
       8.901225918437e-02       7.283214340689e+03 
       9.226860540985e-02       6.805227796246e+03 
       9.559052048996e-02       6.365625716707e+03 
       9.898599946599e-02       5.974390730808e+03 
       1.024624891378e-01       5.637340105354e+03 
       1.060270359164e-01       5.355779361011e+03 
       1.096863943056e-01       5.126237641594e+03 
       1.134471073830e-01       4.940469635882e+03 
       1.173155669539e-01       4.786158144176e+03 
       1.212980586983e-01       4.647914679627e+03 
       1.254007961065e-01       4.509049112304e+03 
       1.296299459934e-01       4.354549857953e+03 
       1.339916477160e-01       4.173140017499e+03 
       1.384920277736e-01       3.961169807799e+03 
       1.431372111762e-01       3.722594531535e+03 
       1.479333307714e-01       3.469551686220e+03 
       1.528865355934e-01       3.218315065211e+03 
       1.580029992204e-01       2.986242499963e+03 
       1.632889290723e-01       2.786941443812e+03 
       1.687505775527e-01       2.626806858130e+03 
       1.743942559171e-01       2.503752437013e+03 
       1.802263517371e-01       2.407299217015e+03 
       1.862533508214e-01       2.322251966012e+03 
       1.924818644494e-01       2.231556667328e+03 
       1.989186627765e-01       2.122207755914e+03 
       2.055707152847e-01       1.992040532951e+03 
       2.124452391818e-01       1.850296278865e+03 
       2.195497567139e-01       1.712157318866e+03 
       2.268921624510e-01       1.590966435972e+03 
       2.344808017550e-01       1.493652343548e+03 
       2.423245618548e-01       1.418297421758e+03 
       2.504329772620e-01       1.354441939019e+03 
       2.588163516754e-01       1.288925409066e+03 
       2.674858990930e-01       1.213902013298e+03 
       2.764539076010e-01       1.130677469384e+03 
       2.857339303080e-01       1.048083188238e+03 
       2.953410092148e-01       9.761700438313e+02 
       3.052919395542e-01       9.177976281532e+02 
       3.156055844677e-01       8.678826848867e+02 
       3.263032530092e-01       8.185184822287e+02 
       3.374091587054e-01       7.651431456158e+02 
       3.489509817175e-01       7.106553246817e+02 
       3.609605657343e-01       6.607727667370e+02 
       3.734747921333e-01       6.180768705675e+02 
       3.865366902904e-01       5.792949395225e+02 
       4.001968667448e-01       5.403781178802e+02 
       4.145153713076e-01       5.011381535265e+02 
       4.295641718077e-01       4.644898665099e+02 
       4.454304922144e-01       4.313958854615e+02 
       4.622214006969e-01       4.001029786905e+02 
       4.800702491654e-01       3.690786504805e+02 
       4.991459272112e-01       3.394653692018e+02 
       5.196665217302e-01       3.119738538412e+02 
       5.419201087032e-01       2.852363007683e+02 
       5.662975451962e-01       2.593206407901e+02 
       5.933463737275e-01       2.345382707170e+02 
       6.238638458458e-01       2.102234511539e+02 
       6.590669257916e-01       1.864263102343e+02 
       7.009246080454e-01       1.627179923815e+02 
       7.528593308799e-01       1.388110758837e+02 
       8.213469537518e-01       1.141813710595e+02 
       9.196980813302e-01       8.835150177798e+01 
       1.075112183810e+00       6.171842964913e+01 
       1.322697471132e+00       3.803467783736e+01 
       1.662328205042e+00       2.208961086739e+01 
       2.092692408506e+00       1.266024701322e+01 
       2.634543445090e+00       7.193721197150e+00 
       3.316693691389e+00       4.054797398176e+00 
       4.175469971226e+00       2.267411098577e+00 
       5.256605252960e+00       1.257131059083e+00 
       6.617673932723e+00       6.898291746268e-01 
       8.331157880872e+00       3.730409922663e-01 
       1.048830636590e+01       1.970284005463e-01 
       1.320399541071e+01       9.982118766085e-02 
       1.662284535976e+01       4.678973116405e-02 
       2.092692243973e+01       1.883586331581e-02 
       2.634543445002e+01       5.476226073341e-03 
       3.316693691389e+01       6.316803999888e-04 
       4.175469971226e+01       5.752642349056e-05 
       5.256605252960e+01       4.457547612541e-04 
       6.617673932723e+01       2.682127027889e-04 
