# Matter power spectrum P(k) at redshift z=99
# for k=1.04775e-05 to 66.1767 h/Mpc,
# number of wavenumbers equal to 130
#    1:k (h/Mpc)              2:P (Mpc/h)^3        
       1.047750691046e-05       7.261927683303e-03 
       1.319039970183e-05       9.069258204904e-03 
       1.660572937635e-05       1.132639107104e-02 
       2.090537469327e-05       1.414527123875e-02 
       2.631830744443e-05       1.766569569765e-02 
       3.313278603720e-05       2.206225516680e-02 
       4.171170630578e-05       2.755297767201e-02 
       5.251192703764e-05       3.441013524103e-02 
       6.610859936996e-05       4.297372174219e-02 
       8.322579568497e-05       5.366826854744e-02 
       1.047750691046e-04       6.702379875026e-02 
       1.319039970183e-04       8.370193444152e-02 
       1.660572937635e-04       1.045283355733e-01 
       2.090537469327e-04       1.305329134537e-01 
       2.631830744443e-04       1.629994507141e-01 
       3.313278603720e-04       2.035264005265e-01 
       4.171170630578e-04       2.541004745056e-01 
       5.251192703764e-04       3.171839529536e-01 
       6.610859936996e-04       3.958147257680e-01 
       8.322579568497e-04       4.937136007613e-01 
       1.047750691046e-03       6.153841637457e-01 
       1.319039970183e-03       7.661720593764e-01 
       1.660572937635e-03       9.522588016934e-01 
       2.090537469327e-03       1.180312991308e+00 
       2.631830744443e-03       1.456802682716e+00 
       3.313278603720e-03       1.786503846933e+00 
       4.171170630578e-03       2.169896207364e+00 
       5.251192703764e-03       2.599430555196e+00 
       6.610859936996e-03       3.055668454634e+00 
       8.322579568497e-03       3.505724792530e+00 
       1.047750691046e-02       3.905489653609e+00 
       1.319039970183e-02       4.200909729974e+00 
       1.660572937633e-02       4.325043061954e+00 
       2.090537453514e-02       4.210160354145e+00 
       2.631818545635e-02       3.825048342437e+00 
       3.311571692125e-02       3.228864038462e+00 
       4.113809243311e-02       2.627358630789e+00 
       4.792590854610e-02       2.280255783736e+00 
       5.284436902701e-02       2.109417317683e+00 
       5.689644391095e-02       2.002744055759e+00 
       6.051252627066e-02       1.922135459778e+00 
       6.388413457411e-02       1.851684931677e+00 
       6.711249296401e-02       1.783394369159e+00 
       7.025823437965e-02       1.712979195980e+00 
       7.336115587705e-02       1.638383735120e+00 
       7.644928796912e-02       1.559093182419e+00 
       7.954353299775e-02       1.475750839363e+00 
       8.266024078725e-02       1.389844595224e+00 
       8.581273398637e-02       1.303468236501e+00 
       8.901225918437e-02       1.218988134595e+00 
       9.226860540985e-02       1.138792779123e+00 
       9.559052048996e-02       1.065013872945e+00 
       9.898599946599e-02       9.992963994050e-01 
       1.024624891378e-01       9.426213491816e-01 
       1.060270359164e-01       8.952114877175e-01 
       1.096863943056e-01       8.564865273580e-01 
       1.134471073830e-01       8.250766303587e-01 
       1.173155669539e-01       7.989156133058e-01 
       1.212980586983e-01       7.754423684654e-01 
       1.254007961065e-01       7.518804279064e-01 
       1.296299459934e-01       7.256915039910e-01 
       1.339916477160e-01       6.950420317952e-01 
       1.384920277736e-01       6.592678614610e-01 
       1.431372111762e-01       6.190816884553e-01 
       1.479333307714e-01       5.764480480045e-01 
       1.528865355934e-01       5.341292539303e-01 
       1.580029992204e-01       4.949920897873e-01 
       1.632889290723e-01       4.613014615032e-01 
       1.687505775527e-01       4.341330328867e-01 
       1.743942559171e-01       4.131283352539e-01 
       1.802263517371e-01       3.965428504016e-01 
       1.862533508214e-01       3.818420800896e-01 
       1.924818644494e-01       3.662109245786e-01 
       1.989186627765e-01       3.474885362667e-01 
       2.055707152847e-01       3.253235063948e-01 
       2.124452391818e-01       3.012534656739e-01 
       2.195497567139e-01       2.777777143443e-01 
       2.268921624510e-01       2.571062936584e-01 
       2.344808017550e-01       2.403782011176e-01 
       2.423245618548e-01       2.272692251219e-01 
       2.504329772620e-01       2.160552515605e-01 
       2.588163516754e-01       2.045731518021e-01 
       2.674858990930e-01       1.915550656490e-01 
       2.764539076010e-01       1.772075819336e-01 
       2.857339303080e-01       1.629852369782e-01 
       2.953410092148e-01       1.505153399163e-01 
       3.052919395542e-01       1.402509651290e-01 
       3.156055844677e-01       1.313672379779e-01 
       3.263032530092e-01       1.225929052327e-01 
       3.374091587054e-01       1.132064863890e-01 
       3.489509817175e-01       1.036782013891e-01 
       3.609605657343e-01       9.490754170548e-02 
       3.734747921333e-01       8.729634457593e-02 
       3.865366902904e-01       8.033145359691e-02 
       4.001968667448e-01       7.338637154499e-02 
       4.145153713076e-01       6.644026996370e-02 
       4.295641718077e-01       5.993562705902e-02 
       4.454304922144e-01       5.401645340344e-02 
       4.622214006969e-01       4.842115120930e-02 
       4.800702491654e-01       4.293267123511e-02 
       4.991459272112e-01       3.771913462808e-02 
       5.196665217302e-01       3.288275556984e-02 
       5.419201087032e-01       2.824196960598e-02 
       5.662975451962e-01       2.381598750196e-02 
       5.933463737275e-01       1.965736366722e-02 
       6.238638458458e-01       1.570339090356e-02 
       6.590669257916e-01       1.199092778728e-02 
       7.009246080454e-01       8.523876382084e-03 
       7.528593308799e-01       5.363803566144e-03 
       8.213469537518e-01       2.636436180721e-03 
       9.196980813302e-01       6.530320315961e-04 
       1.075112183810e+00       1.470852750954e-05 
       1.322697471132e+00       7.961379393974e-04 
       1.662328205042e+00       1.019329234794e-03 
       2.092692408506e+00       2.324981821644e-04 
       2.634543445090e+00       1.755790599808e-05 
       3.316693691389e+00       5.752046173187e-05 
       4.175469971226e+00       3.728530462551e-07 
       5.256605252960e+00       2.493190058110e-06 
       6.617673932723e+00       5.312444804406e-07 
       8.331157880872e+00       4.919031499759e-08 
       1.048830636590e+01       4.644064907174e-09 
       1.320399541071e+01       1.752770468796e-10 
       1.662284535976e+01       6.352689921265e-12 
       2.092692243973e+01       2.821447324350e-13 
       2.634543445002e+01       7.894249757032e-14 
       3.316693691389e+01       2.565021386744e-14 
       4.175469971226e+01       8.755307712289e-15 
       5.256605252960e+01       2.912906948150e-15 
       6.617673932723e+01       8.667227524237e-16 
