# Matter power spectrum P(k) at redshift z=0
# for k=1.04775e-05 to 67.6233 h/Mpc,
# number of wavenumbers equal to 246
#    1:k (h/Mpc)              2:P (Mpc/h)^3        
       1.047750691046e-05       5.020964811308e+01 
       1.131335172503e-05       5.407050701927e+01 
       1.221587619537e-05       5.822819068698e+01 
       1.319039970183e-05       6.270562594782e+01 
       1.424266597921e-05       6.752732240880e+01 
       1.537887696968e-05       7.271977206173e+01 
       1.660572937635e-05       7.831147247912e+01 
       1.793045413292e-05       8.433311821988e+01 
       1.936085902198e-05       9.081778249833e+01 
       2.090537469327e-05       9.780108069295e+01 
       2.257310435294e-05       1.053213197893e+02 
       2.437387741694e-05       1.134197377890e+02 
       2.631830744443e-05       1.221408203809e+02 
       2.841785469300e-05       1.315324642472e+02 
       3.068489366414e-05       1.416462094882e+02 
       3.313278603720e-05       1.525374501932e+02 
       3.577595942169e-05       1.642660688414e+02 
       3.862999239199e-05       1.768963506307e+02 
       4.171170630578e-05       1.904975994010e+02 
       4.503926444729e-05       2.051444491974e+02 
       4.863227907969e-05       2.209171465549e+02 
       5.251192703764e-05       2.379022224249e+02 
       5.670107454120e-05       2.561927927669e+02 
       6.122441196689e-05       2.758890444040e+02 
       6.610859936996e-05       2.970989227881e+02 
       7.138242361596e-05       3.199385560802e+02 
       7.707696804727e-05       3.445329783680e+02 
       8.322579568497e-05       3.710167318945e+02 
       8.986514704559e-05       3.995346444203e+02 
       9.703415373875e-05       4.302425407383e+02 
       1.047750691046e-04       4.633080766742e+02 
       1.131335172503e-04       4.989116271564e+02 
       1.221587619537e-04       5.372471950930e+02 
       1.319039970183e-04       5.785234129339e+02 
       1.424266597921e-04       6.229645936046e+02 
       1.537887696968e-04       6.708118490405e+02 
       1.660572937635e-04       7.223242666092e+02 
       1.793045413292e-04       7.777801559863e+02 
       1.936085902198e-04       8.374783614141e+02 
       2.090537469327e-04       9.017396271824e+02 
       2.257310435294e-04       9.709080268041e+02 
       2.437387741694e-04       1.045352449493e+03 
       2.631830744443e-04       1.125468123750e+03 
       2.841785469300e-04       1.211678180495e+03 
       3.068489366414e-04       1.304435250150e+03 
       3.313278603720e-04       1.404223053681e+03 
       3.577595942169e-04       1.511558014616e+03 
       3.862999239199e-04       1.626990837758e+03 
       4.171170630578e-04       1.751108028790e+03 
       4.503926444729e-04       1.884533382872e+03 
       4.863227907969e-04       2.027929378113e+03 
       5.251192703764e-04       2.181998448133e+03 
       5.670107454121e-04       2.347484102755e+03 
       6.122441196689e-04       2.525171871366e+03 
       6.610859936996e-04       2.715889983592e+03 
       7.138242361596e-04       2.920509688385e+03 
       7.707696804727e-04       3.139945100279e+03 
       8.322579568497e-04       3.375152337588e+03 
       8.986514704559e-04       3.627127831140e+03 
       9.703415373875e-04       3.896905453136e+03 
       1.047750691046e-03       4.185552174298e+03 
       1.131335172503e-03       4.494162430373e+03 
       1.221587619537e-03       4.823850706499e+03 
       1.319039970183e-03       5.175742738868e+03 
       1.424266597921e-03       5.551019596901e+03 
       1.537887696968e-03       5.950788340558e+03 
       1.660572937635e-03       6.376123051783e+03 
       1.793045413292e-03       6.828073901454e+03 
       1.936085902198e-03       7.307625381066e+03 
       2.090537469327e-03       7.815671865135e+03 
       2.257310435294e-03       8.352990375817e+03 
       2.437387741694e-03       8.920211064354e+03 
       2.631830744443e-03       9.517783069111e+03 
       2.841785469300e-03       1.014593704435e+04 
       3.068489366414e-03       1.080464502789e+04 
       3.313278603720e-03       1.149357460346e+04 
       3.577595942169e-03       1.221203621721e+04 
       3.862999239199e-03       1.295892539445e+04 
       4.171170630578e-03       1.373266012839e+04 
       4.503926444729e-03       1.453111835624e+04 
       4.863227907969e-03       1.535154985277e+04 
       5.251192703764e-03       1.619063614422e+04 
       5.670107454120e-03       1.704431257712e+04 
       6.122441196689e-03       1.790755939729e+04 
       6.610859936996e-03       1.877460415683e+04 
       7.138242361596e-03       1.963872430617e+04 
       7.707696804727e-03       2.049215714539e+04 
       8.322579568496e-03       2.132607233009e+04 
       8.986514704559e-03       2.213054737640e+04 
       9.703415373875e-03       2.289445473175e+04 
       1.047750691046e-02       2.360547992185e+04 
       1.131335172503e-02       2.425022855971e+04 
       1.221587619537e-02       2.481423923744e+04 
       1.319039970183e-02       2.528218788749e+04 
       1.424266597920e-02       2.563814395161e+04 
       1.537887696964e-02       2.586608009492e+04 
       1.660572937560e-02       2.595024662278e+04 
       1.793045412207e-02       2.587632813936e+04 
       1.936085889642e-02       2.563221948985e+04 
       2.090537351881e-02       2.520933099054e+04 
       2.257309534705e-02       2.460448736646e+04 
       2.437382002240e-02       2.382088639943e+04 
       2.631799943729e-02       2.287046912441e+04 
       2.841644544598e-02       2.177448234897e+04 
       3.067933354524e-02       2.056555085651e+04 
       3.311368469821e-02       1.928728055815e+04 
       3.571840442514e-02       1.799401857793e+04 
       3.847720347390e-02       1.674678018858e+04 
       4.135335537314e-02       1.560461750835e+04 
       4.429361666563e-02       1.461043136945e+04 
       4.724366437916e-02       1.378055243634e+04 
       5.016480834039e-02       1.310504978676e+04 
       5.303989618930e-02       1.255716328382e+04 
       5.586870668205e-02       1.210427012519e+04 
       5.866042679206e-02       1.171464944608e+04 
       6.142798931504e-02       1.136046234996e+04 
       6.418496438662e-02       1.101855112409e+04 
       6.694418832236e-02       1.067066354026e+04 
       6.971731104453e-02       1.030358068754e+04 
       7.251476154108e-02       9.908957553478e+03 
       7.534587669814e-02       9.483740508943e+03 
       7.821907664495e-02       9.029486200254e+03 
       8.114203771084e-02       8.552307410259e+03 
       8.412184533139e-02       8.062003468558e+03 
       8.716512277352e-02       7.570778319653e+03 
       9.027813693913e-02       7.092518283901e+03 
       9.346688429613e-02       6.640464893225e+03 
       9.673716026122e-02       6.226659427230e+03 
       1.000946150608e-01       5.859931992955e+03 
       1.035447986307e-01       5.545269162355e+03 
       1.070931966524e-01       5.283160310596e+03 
       1.107452594180e-01       5.069434776042e+03 
       1.145064248899e-01       4.895266007157e+03 
       1.183821370656e-01       4.747843308375e+03 
       1.223778605591e-01       4.611720365394e+03 
       1.264990921707e-01       4.470626639151e+03 
       1.307513701078e-01       4.310256941042e+03 
       1.351402814485e-01       4.121382142604e+03 
       1.396714683894e-01       3.902043896500e+03 
       1.443506337875e-01       3.658649660405e+03 
       1.491835464900e-01       3.404492522385e+03 
       1.541760469368e-01       3.156681270484e+03 
       1.593340535209e-01       2.931962069744e+03 
       1.646635701934e-01       2.742371878288e+03 
       1.701706958081e-01       2.592245111442e+03 
       1.758616357070e-01       2.477234082671e+03 
       1.817427160581e-01       2.385183892850e+03 
       1.878204014651e-01       2.300351617669e+03 
       1.941013163855e-01       2.205749958816e+03 
       2.005922709060e-01       2.090811654992e+03 
       2.073002914514e-01       1.956464885675e+03 
       2.142326570343e-01       1.814191798783e+03 
       2.213969417044e-01       1.679278727686e+03 
       2.288010639201e-01       1.563841961419e+03 
       2.364533436625e-01       1.472681212139e+03 
       2.443625682390e-01       1.401514861567e+03 
       2.525380678946e-01       1.338411146506e+03 
       2.609898025770e-01       1.270897700803e+03 
       2.697284614969e-01       1.193376375280e+03 
       2.787655775073e-01       1.109332337641e+03 
       2.881136588192e-01       1.028763706687e+03 
       2.977863412019e-01       9.604759399180e+02 
       3.077985646248e-01       9.050195623915e+02 
       3.181667793367e-01       8.561452801553e+02 
       3.289091877084e-01       8.061834537703e+02 
       3.400460298905e-01       7.523884544721e+02 
       3.515999235695e-01       6.989200394526e+02 
       3.635962710278e-01       6.510609021028e+02 
       3.760637505499e-01       6.101177312624e+02 
       3.890349143014e-01       5.721329685197e+02 
       4.025469215929e-01       5.337793069075e+02 
       4.166424455447e-01       4.956279618339e+02 
       4.313708034899e-01       4.604686448491e+02 
       4.467893781976e-01       4.287737774470e+02 
       4.629654198623e-01       3.987676909508e+02 
       4.799783500912e-01       3.692376595039e+02 
       4.979227318246e-01       3.412396463375e+02 
       5.169121269689e-01       3.154791026019e+02 
       5.370841403262e-01       2.908335871683e+02 
       5.586070463286e-01       2.671050975771e+02 
       5.816885093582e-01       2.448077270116e+02 
       6.065870143577e-01       2.235667635983e+02 
       6.336266466978e-01       2.032089790910e+02 
       6.632156057925e-01       1.838783453925e+02 
       6.958678637575e-01       1.653537368123e+02 
       7.322247983784e-01       1.476947294256e+02 
       7.730680193171e-01       1.308337442849e+02 
       8.193049551574e-01       1.148306631066e+02 
       8.718988013754e-01       9.976262797694e+01 
       9.317218028590e-01       8.577735386768e+01 
       9.993660906273e-01       7.305446996481e+01 
       1.075037109879e+00       6.173580360347e+01 
       1.158653485387e+00       5.187915175150e+01 
       1.250099156961e+00       4.344007226641e+01 
       1.349432400897e+00       3.628888383981e+01 
       1.456947456991e+00       3.026774319280e+01 
       1.573135110893e+00       2.521451650316e+01 
       1.698621895119e+00       2.098201529997e+01 
       1.834127512423e+00       1.744237731334e+01 
       1.980444933977e+00       1.448560988445e+01 
       2.138435191130e+00       1.201884734151e+01 
       2.309029198543e+00       9.963147450708e+00 
       2.493232376993e+00       8.251796742572e+00 
       2.692130394536e+00       6.828535872633e+00 
       2.906895533764e+00       5.646198802498e+00 
       3.138793596840e+00       4.664851022925e+00 
       3.389191365541e+00       3.851076011328e+00 
       3.659564656886e+00       3.176924888997e+00 
       3.951507021438e+00       2.618855666870e+00 
       4.266739135513e+00       2.157324280583e+00 
       4.607118942658e+00       1.775910278290e+00 
       4.974652604172e+00       1.460975808502e+00 
       5.371506323193e+00       1.201106582997e+00 
       5.800019112071e+00       9.868597184828e-01 
       6.262716578240e+00       8.103292721585e-01 
       6.762325809881e+00       6.649885921549e-01 
       7.301791449077e+00       5.454091713003e-01 
       7.884293047211e+00       4.470805517290e-01 
       8.513263804891e+00       3.662814528651e-01 
       9.192410806865e+00       2.999251321626e-01 
       9.925736871166e+00       2.454643518668e-01 
       1.071756414128e+01       2.007921944764e-01 
       1.157255956041e+01       1.641680632328e-01 
       1.249576237789e+01       1.341606557859e-01 
       1.349261385000e+01       1.095865129415e-01 
       1.456898931011e+01       8.947224157767e-02 
       1.573123279727e+01       7.301756961202e-02 
       1.698619444729e+01       5.956190239091e-02 
       1.834127086665e+01       4.856448878740e-02 
       1.980444872733e+01       3.958054577084e-02 
       2.138435183937e+01       3.224415533206e-02 
       2.309029197863e+01       2.625659034170e-02 
       2.493232376942e+01       2.137142038850e-02 
       2.692130394533e+01       1.738768572713e-02 
       2.906895533764e+01       1.413983928917e-02 
       3.138793596840e+01       1.149353079624e-02 
       3.389191365541e+01       9.338153373978e-03 
       3.659564656886e+01       7.583094563177e-03 
       3.951507021438e+01       6.154628441851e-03 
       4.266739135513e+01       4.992330216943e-03 
       4.607118942658e+01       4.047100235413e-03 
       4.974652604172e+01       3.278517644668e-03 
       5.371506323193e+01       2.653835251217e-03 
       5.800019112071e+01       2.146314105378e-03 
       6.262716578240e+01       1.734098338440e-03 
       6.762325809881e+01       1.399396199546e-03 
