# Matter power spectrum P(k) at redshift z=99
# for k=1.04775e-05 to 67.6233 h/Mpc,
# number of wavenumbers equal to 246
#    1:k (h/Mpc)              2:P (Mpc/h)^3        
       1.047750691046e-05       7.261927680861e-03 
       1.131335172503e-05       7.820331652431e-03 
       1.221587619537e-05       8.421675995454e-03 
       1.319039970183e-05       9.069258201848e-03 
       1.424266597921e-05       9.766638412133e-03 
       1.537887696968e-05       1.051764070801e-02 
       1.660572937635e-05       1.132639106725e-02 
       1.793045413292e-05       1.219733232715e-02 
       1.936085902198e-05       1.313524225779e-02 
       2.090537469327e-05       1.414527123399e-02 
       2.257310435294e-05       1.523296273823e-02 
       2.437387741694e-05       1.640429446288e-02 
       2.631830744443e-05       1.766569584058e-02 
       2.841785469300e-05       1.902408737005e-02 
       3.068489366414e-05       2.048692972772e-02 
       3.313278603720e-05       2.206225515942e-02 
       3.577595942169e-05       2.375870707438e-02 
       3.862999239199e-05       2.558560730202e-02 
       4.171170630578e-05       2.755297766277e-02 
       4.503926444729e-05       2.967161930474e-02 
       4.863227907969e-05       3.195316454233e-02 
       5.251192703764e-05       3.441013522947e-02 
       5.670107454120e-05       3.705601726471e-02 
       6.122441196689e-05       3.990533417795e-02 
       6.610859936996e-05       4.297372172777e-02 
       7.138242361596e-05       4.627802146614e-02 
       7.707696804727e-05       4.983636199464e-02 
       8.322579568497e-05       5.366826852944e-02 
       8.986514704559e-05       5.779476400721e-02 
       9.703415373875e-05       6.223848250510e-02 
       1.047750691046e-04       6.702379872774e-02 
       1.131335172503e-04       7.217695161064e-02 
       1.221587619537e-04       7.772619081844e-02 
       1.319039970183e-04       8.370193441286e-02 
       1.424266597921e-04       9.013692517141e-02 
       1.537887696968e-04       9.706641252902e-02 
       1.660572937635e-04       1.045283355384e-01 
       1.793045413292e-04       1.125635350266e-01 
       1.936085902198e-04       1.212159616259e-01 
       2.090537469327e-04       1.305329134104e-01 
       2.257310435294e-04       1.405652847711e-01 
       2.437387741694e-04       1.513678304151e-01 
       2.631830744443e-04       1.629994506605e-01 
       2.841785469300e-04       1.755234923092e-01 
       3.068489366414e-04       1.890080672425e-01 
       3.313278603720e-04       2.035264004601e-01 
       3.577595942169e-04       2.191571806013e-01 
       3.862999239199e-04       2.359849440105e-01 
       4.171170630578e-04       2.541004744243e-01 
       4.503926444729e-04       2.736012083189e-01 
       4.863227907969e-04       2.945916794099e-01 
       5.251192703764e-04       3.171839528557e-01 
       5.670107454121e-04       3.414980767635e-01 
       6.122441196689e-04       3.676625417011e-01 
       6.610859936996e-04       3.958147256513e-01 
       7.138242361596e-04       4.261013289360e-01 
       7.707696804727e-04       4.586787797352e-01 
       8.322579568497e-04       4.937136006295e-01 
       8.986514704559e-04       5.313826807049e-01 
       9.703415373875e-04       5.718734978233e-01 
       1.047750691046e-03       6.153841636040e-01 
       1.131335172503e-03       6.621233246495e-01 
       1.221587619537e-03       7.123098227992e-01 
       1.319039970183e-03       7.661720592366e-01 
       1.424266597921e-03       8.239546306464e-01 
       1.537887696968e-03       8.859011182850e-01 
       1.660572937635e-03       9.522588016485e-01 
       1.793045413292e-03       1.023280100902e+00 
       1.936085902198e-03       1.099216305740e+00 
       2.090537469327e-03       1.180312991699e+00 
       2.257310435294e-03       1.266804117183e+00 
       2.437387741694e-03       1.358904854835e+00 
       2.631830744443e-03       1.456802684686e+00 
       2.841785469300e-03       1.560646892157e+00 
       3.068489366414e-03       1.670536064244e+00 
       3.313278603720e-03       1.786503854039e+00 
       3.577595942169e-03       1.908502932770e+00 
       3.862999239199e-03       2.036387732816e+00 
       4.171170630578e-03       2.169896193781e+00 
       4.503926444729e-03       2.308631881359e+00 
       4.863227907969e-03       2.452047293459e+00 
       5.251192703764e-03       2.599430630722e+00 
       5.670107454120e-03       2.749896934553e+00 
       6.122441196689e-03       2.902386516275e+00 
       6.610859936996e-03       3.055668698234e+00 
       7.138242361596e-03       3.208356464661e+00 
       7.707696804727e-03       3.358923895116e+00 
       8.322579568496e-03       3.505725598578e+00 
       8.986514704559e-03       3.647009444921e+00 
       9.703415373875e-03       3.780923307754e+00 
       1.047750691046e-02       3.905490825570e+00 
       1.131335172503e-02       4.018588043493e+00 
       1.221587619537e-02       4.117901591878e+00 
       1.319039970183e-02       4.200915304704e+00 
       1.424266597920e-02       4.264941681811e+00 
       1.537887696964e-02       4.307219279684e+00 
       1.660572937560e-02       4.325063151132e+00 
       1.793045412207e-02       4.316061160968e+00 
       1.936085889642e-02       4.278232800216e+00 
       2.090537351881e-02       4.210203650634e+00 
       2.257309534705e-02       4.111418001954e+00 
       2.437382002240e-02       3.982421346876e+00 
       2.631799943729e-02       3.825167979639e+00 
       2.841644544598e-02       3.643278434404e+00 
       3.067933354524e-02       3.442200790882e+00 
       3.311368469821e-02       3.229234762015e+00 
       3.571840442514e-02       3.013516912830e+00 
       3.847720347390e-02       2.805276546813e+00 
       4.135335537314e-02       2.614420918579e+00 
       4.429361666563e-02       2.448140916854e+00 
       4.724366437916e-02       2.309235722411e+00 
       5.016480834039e-02       2.196114811914e+00 
       5.303989618930e-02       2.104361511280e+00 
       5.586870668205e-02       2.028464894082e+00 
       5.866042679206e-02       1.963150332117e+00 
       6.142798931504e-02       1.903782165551e+00 
       6.418496438662e-02       1.846480838206e+00 
       6.694418832236e-02       1.788197258775e+00 
       6.971731104453e-02       1.726713766156e+00 
       7.251476154108e-02       1.660653951987e+00 
       7.534587669814e-02       1.589469072790e+00 
       7.821907664495e-02       1.513439394344e+00 
       8.114203771084e-02       1.433569274405e+00 
       8.412184533139e-02       1.351488858323e+00 
       8.716512277352e-02       1.269273074086e+00 
       9.027813693913e-02       1.189190616044e+00 
       9.346688429613e-02       1.113503824341e+00 
       9.673716026122e-02       1.044174221885e+00 
       1.000946150608e-01       9.827053787014e-01 
       1.035447986307e-01       9.299365900085e-01 
       1.070931966524e-01       8.859596422541e-01 
       1.107452594180e-01       8.500699852826e-01 
       1.145064248899e-01       8.208055701253e-01 
       1.183821370656e-01       7.960255820980e-01 
       1.223778605591e-01       7.731460018214e-01 
       1.264990921707e-01       7.494520417940e-01 
       1.307513701078e-01       7.225577112074e-01 
       1.351402814485e-01       6.909094224246e-01 
       1.396714683894e-01       6.541816067692e-01 
       1.443506337875e-01       6.134257309836e-01 
       1.491835464900e-01       5.708681146549e-01 
       1.541760469368e-01       5.293634866183e-01 
       1.593340535209e-01       4.917110052603e-01 
       1.646635701934e-01       4.599197760166e-01 
       1.701706958081e-01       4.347285614241e-01 
       1.758616357070e-01       4.154085208175e-01 
       1.817427160581e-01       3.999370799245e-01 
       1.878204014651e-01       3.856832398082e-01 
       1.941013163855e-01       3.698101977247e-01 
       2.005922709060e-01       3.505458141852e-01 
       2.073002914514e-01       3.280435170024e-01 
       2.142326570343e-01       3.042140492283e-01 
       2.213969417044e-01       2.816116787349e-01 
       2.288010639201e-01       2.622573950559e-01 
       2.364533436625e-01       2.469626737082e-01 
       2.443625682390e-01       2.350124887194e-01 
       2.525380678946e-01       2.244178724601e-01 
       2.609898025770e-01       2.130934384781e-01 
       2.697284614969e-01       2.001017089600e-01 
       2.787655775073e-01       1.860196617053e-01 
       2.881136588192e-01       1.725170925269e-01 
       2.977863412019e-01       1.610664750215e-01 
       3.077985646248e-01       1.517607662940e-01 
       3.181667793367e-01       1.435592672107e-01 
       3.289091877084e-01       1.351815693072e-01 
       3.400460298905e-01       1.261643887800e-01 
       3.515999235695e-01       1.172017607839e-01 
       3.635962710278e-01       1.091771201559e-01 
       3.760637505499e-01       1.023093937491e-01 
       3.890349143014e-01       9.593773500979e-02 
       4.025469215929e-01       8.950804698271e-02 
       4.166424455447e-01       8.311164124148e-02 
       4.313708034899e-01       7.721550733688e-02 
       4.467893781976e-01       7.190065154123e-02 
       4.629654198623e-01       6.686899871007e-02 
       4.799783500912e-01       6.191743881128e-02 
       4.979227318246e-01       5.722233933531e-02 
       5.169121269689e-01       5.290298106879e-02 
       5.370841403262e-01       4.876986660805e-02 
       5.586070463286e-01       4.479083811628e-02 
       5.816885093582e-01       4.105203722632e-02 
       6.065870143577e-01       3.748992268918e-02 
       6.336266466978e-01       3.407639291723e-02 
       6.632156057925e-01       3.083452468828e-02 
       6.958678637575e-01       2.772835445877e-02 
       7.322247983784e-01       2.476712665750e-02 
       7.730680193171e-01       2.193952114416e-02 
       8.193049551574e-01       1.925616014918e-02 
       8.718988013754e-01       1.672930349194e-02 
       9.317218028590e-01       1.438419617545e-02 
       9.993660906273e-01       1.225064957110e-02 
       1.075037109879e+00       1.035260985989e-02 
       1.158653485387e+00       8.699715912643e-03 
       1.250099156961e+00       7.284562371263e-03 
       1.349432400897e+00       6.085416393750e-03 
       1.456947456991e+00       5.075694284450e-03 
       1.573135110893e+00       4.228293871346e-03 
       1.698621895119e+00       3.518513541656e-03 
       1.834127512423e+00       2.924955482325e-03 
       1.980444933977e+00       2.429141893126e-03 
       2.138435191130e+00       2.015488758780e-03 
       2.309029198543e+00       1.670748013376e-03 
       2.493232376993e+00       1.383766962199e-03 
       2.692130394536e+00       1.145105213575e-03 
       2.906895533764e+00       9.468335608192e-04 
       3.138793596840e+00       7.822659073638e-04 
       3.389191365541e+00       6.457994531266e-04 
       3.659564656886e+00       5.327446681232e-04 
       3.951507021438e+00       4.391611315107e-04 
       4.266739135513e+00       3.617636590527e-04 
       4.607118942658e+00       2.978037042373e-04 
       4.974652604172e+00       2.449878483245e-04 
       5.371506323193e+00       2.014093544849e-04 
       5.800019112071e+00       1.654810831989e-04 
       6.262716578240e+00       1.358788035124e-04 
       6.762325809881e+00       1.115038942785e-04 
       7.301791449077e+00       9.145085027271e-05 
       7.884293047211e+00       7.496014705178e-05 
       8.513263804891e+00       6.141057936404e-05 
       9.192410806865e+00       5.028293246135e-05 
       9.925736871166e+00       4.114994063050e-05 
       1.071756414128e+01       3.365794262575e-05 
       1.157255956041e+01       2.751631242728e-05 
       1.249576237789e+01       2.248401996505e-05 
       1.349261385000e+01       1.836274234624e-05 
       1.456898931011e+01       1.498946243481e-05 
       1.573123279727e+01       1.222991576506e-05 
       1.698619444729e+01       9.973198750727e-06 
       1.834127086665e+01       8.128942609637e-06 
       1.980444872733e+01       6.622230253716e-06 
       2.138435183937e+01       5.391914399322e-06 
       2.309029197863e+01       4.387772500155e-06 
       2.493232376942e+01       3.568540157062e-06 
       2.692130394533e+01       2.900477591443e-06 
       2.906895533764e+01       2.355932911062e-06 
       3.138793596840e+01       1.912194133189e-06 
       3.389191365541e+01       1.550833749187e-06 
       3.659564656886e+01       1.256630352005e-06 
       3.951507021438e+01       1.017227243683e-06 
       4.266739135513e+01       8.225018207247e-07 
       4.607118942658e+01       6.641869447720e-07 
       4.974652604172e+01       5.355454190576e-07 
       5.371506323193e+01       4.310691059353e-07 
       5.800019112071e+01       3.462644254236e-07 
       6.262716578240e+01       2.774773301382e-07 
       6.762325809881e+01       2.217278562415e-07 
