# Matter power spectrum P(k) at redshift z=99
# for k=1.04775e-05 to 66.1767 h/Mpc,
# number of wavenumbers equal to 130
#    1:k (h/Mpc)              2:P (Mpc/h)^3        
       1.047750691046e-05       7.261927681291e-03 
       1.319039970183e-05       9.069258202385e-03 
       1.660572937635e-05       1.132639106792e-02 
       2.090537469327e-05       1.414527123483e-02 
       2.631830744443e-05       1.766569584163e-02 
       3.313278603720e-05       2.206225516073e-02 
       4.171170630578e-05       2.755297766440e-02 
       5.251192703764e-05       3.441013523151e-02 
       6.610859936996e-05       4.297372173031e-02 
       8.322579568497e-05       5.366826853260e-02 
       1.047750691046e-04       6.702379873169e-02 
       1.319039970183e-04       8.370193441777e-02 
       1.660572937635e-04       1.045283355445e-01 
       2.090537469327e-04       1.305329134180e-01 
       2.631830744443e-04       1.629994506699e-01 
       3.313278603720e-04       2.035264004716e-01 
       4.171170630578e-04       2.541004744382e-01 
       5.251192703764e-04       3.171839528723e-01 
       6.610859936996e-04       3.958147256704e-01 
       8.322579568497e-04       4.937136006477e-01 
       1.047750691046e-03       6.153841636239e-01 
       1.319039970183e-03       7.661720592367e-01 
       1.660572937635e-03       9.522588016346e-01 
       2.090537469327e-03       1.180312991616e+00 
       2.631830744443e-03       1.456802684453e+00 
       3.313278603720e-03       1.786503853494e+00 
       4.171170630578e-03       2.169896195421e+00 
       5.251192703764e-03       2.599430628247e+00 
       6.610859936996e-03       3.055668694087e+00 
       8.322579568497e-03       3.505725588826e+00 
       1.047750691046e-02       3.905490965774e+00 
       1.319039970183e-02       4.200915275567e+00 
       1.660572937633e-02       4.325059907835e+00 
       2.090537453514e-02       4.210204878809e+00 
       2.631818545635e-02       3.825151606018e+00 
       3.311571692125e-02       3.229061810913e+00 
       4.113809243311e-02       2.627727867155e+00 
       4.792590854610e-02       2.280792294206e+00 
       5.284436902701e-02       2.110086175920e+00 
       5.689644391095e-02       2.003540399143e+00 
       6.051252627066e-02       1.923059019344e+00 
       6.388413457411e-02       1.852730567470e+00 
       6.711249296401e-02       1.784561625761e+00 
       7.025823437965e-02       1.714275058515e+00 
       7.336115587705e-02       1.639812415572e+00 
       7.644928796912e-02       1.560663870866e+00 
       7.954353299775e-02       1.477455330423e+00 
       8.266024078725e-02       1.391694222853e+00 
       8.581273398637e-02       1.305460004013e+00 
       8.901225918437e-02       1.221121918851e+00 
       9.226860540985e-02       1.141078233649e+00 
       9.559052048996e-02       1.067450070795e+00 
       9.898599946599e-02       1.001888051562e+00 
       1.024624891378e-01       9.453798212282e-01 
       1.060270359164e-01       8.981483035104e-01 
       1.096863943056e-01       8.596104540448e-01 
       1.134471073830e-01       8.284044025461e-01 
       1.173155669539e-01       8.024663449136e-01 
       1.212980586983e-01       7.792275433094e-01 
       1.254007961065e-01       7.559153967068e-01 
       1.296299459934e-01       7.299804405282e-01 
       1.339916477160e-01       6.995914986515e-01 
       1.384920277736e-01       6.640781688804e-01 
       1.431372111762e-01       6.241462345528e-01 
       1.479333307714e-01       5.817609252714e-01 
       1.528865355934e-01       5.396871868923e-01 
       1.580029992204e-01       5.008123171370e-01 
       1.632889290723e-01       4.673956613508e-01 
       1.687505775527e-01       4.405306524419e-01 
       1.743942559171e-01       4.198640882174e-01 
       1.802263517371e-01       4.036576871291e-01 
       1.862533508214e-01       3.893602770777e-01 
       1.924818644494e-01       3.741379105807e-01 
       1.989186627765e-01       3.558037712251e-01 
       2.055707152847e-01       3.340010257737e-01 
       2.124452391818e-01       3.102627676414e-01 
       2.195497567139e-01       2.871201698203e-01 
       2.268921624510e-01       2.668055274741e-01 
       2.344808017550e-01       2.504808617166e-01 
       2.423245618548e-01       2.378307118885e-01 
       2.504329772620e-01       2.271084351282e-01 
       2.588163516754e-01       2.161171914762e-01 
       2.674858990930e-01       2.035443590110e-01 
       2.764539076010e-01       1.895945301823e-01 
       2.857339303080e-01       1.757536827210e-01 
       2.953410092148e-01       1.636959955507e-01 
       3.052919395542e-01       1.539027328779e-01 
       3.156055844677e-01       1.455272775955e-01 
       3.263032530092e-01       1.372470462738e-01 
       3.374091587054e-01       1.282981624285e-01 
       3.489509817175e-01       1.191678528483e-01 
       3.609605657343e-01       1.108033816762e-01 
       3.734747921333e-01       1.036416525987e-01 
       3.865366902904e-01       9.713772557639e-02 
       4.001968667448e-01       9.061164672676e-02 
       4.145153713076e-01       8.403320484096e-02 
       4.295641718077e-01       7.788742846425e-02 
       4.454304922144e-01       7.233766977221e-02 
       4.622214006969e-01       6.708971761839e-02 
       4.800702491654e-01       6.188776933405e-02 
       4.991459272112e-01       5.692215361591e-02 
       5.196665217302e-01       5.231191137518e-02 
       5.419201087032e-01       4.782836143879e-02 
       5.662975451962e-01       4.348269131932e-02 
       5.933463737275e-01       3.932668324756e-02 
       6.238638458458e-01       3.524895564794e-02 
       6.590669257916e-01       3.125834101779e-02 
       7.009246080454e-01       2.728268422818e-02 
       7.528593308799e-01       2.327383665286e-02 
       8.213469537518e-01       1.914352487109e-02 
       9.196980813302e-01       1.481217310789e-02 
       1.075112183810e+00       1.034595594551e-02 
       1.322697471132e+00       6.374341137644e-03 
       1.662328205042e+00       3.700488724505e-03 
       2.092692408506e+00       2.119328376779e-03 
       2.634543445090e+00       1.202765480451e-03 
       3.316693691389e+00       6.765518031463e-04 
       4.175469971226e+00       3.770250351072e-04 
       5.256605252960e+00       2.078643295198e-04 
       6.617673932723e+00       1.130208691309e-04 
       8.331157880872e+00       6.022506682268e-05 
       1.048830636590e+01       3.107356260206e-05 
       1.320399541071e+01       1.517307062472e-05 
       1.662284535976e+01       6.712302613926e-06 
       2.092692243973e+01       2.467614442088e-06 
       2.634543445002e+01       6.232758882089e-07 
       3.316693691389e+01       6.047755939379e-08 
       4.175469971226e+01       1.161471904433e-09 
       5.256605252960e+01       4.107868721613e-09 
       6.617673932723e+01       3.436540933318e-10 
