# Matter power spectrum P(k) at redshift z=99
# for k=1.04775e-05 to 66.1767 h/Mpc,
# number of wavenumbers equal to 130
#    1:k (h/Mpc)              2:P (Mpc/h)^3        
       1.047750691046e-05       7.261927680934e-03 
       1.319039970183e-05       9.069258201939e-03 
       1.660572937635e-05       1.132639106737e-02 
       2.090537469327e-05       1.414527123413e-02 
       2.631830744443e-05       1.766569584076e-02 
       3.313278603720e-05       2.206225515964e-02 
       4.171170630578e-05       2.755297766304e-02 
       5.251192703764e-05       3.441013522981e-02 
       6.610859936996e-05       4.297372172820e-02 
       8.322579568497e-05       5.366826852997e-02 
       1.047750691046e-04       6.702379872841e-02 
       1.319039970183e-04       8.370193441369e-02 
       1.660572937635e-04       1.045283355394e-01 
       2.090537469327e-04       1.305329134117e-01 
       2.631830744443e-04       1.629994506621e-01 
       3.313278603720e-04       2.035264004621e-01 
       4.171170630578e-04       2.541004744266e-01 
       5.251192703764e-04       3.171839528586e-01 
       6.610859936996e-04       3.958147256547e-01 
       8.322579568497e-04       4.937136006319e-01 
       1.047750691046e-03       6.153841636077e-01 
       1.319039970183e-03       7.661720592656e-01 
       1.660572937635e-03       9.522588016508e-01 
       2.090537469327e-03       1.180312991687e+00 
       2.631830744443e-03       1.456802684644e+00 
       3.313278603720e-03       1.786503853920e+00 
       4.171170630578e-03       2.169896201325e+00 
       5.251192703764e-03       2.599430629754e+00 
       6.610859936996e-03       3.055668701874e+00 
       8.322579568497e-03       3.505725126348e+00 
       1.047750691046e-02       3.905491007579e+00 
       1.319039970183e-02       4.200914739294e+00 
       1.660572937633e-02       4.325059217486e+00 
       2.090537453514e-02       4.210204692126e+00 
       2.631818545635e-02       3.825150076684e+00 
       3.311571692125e-02       3.229066729993e+00 
       4.113809243311e-02       2.627722804087e+00 
       4.792590854610e-02       2.280762927452e+00 
       5.284436902701e-02       2.110073530629e+00 
       5.689644391095e-02       2.003528560850e+00 
       6.051252627066e-02       1.923044179001e+00 
       6.388413457411e-02       1.852721217554e+00 
       6.711249296401e-02       1.784546674865e+00 
       7.025823437965e-02       1.714257265195e+00 
       7.336115587705e-02       1.639794850127e+00 
       7.644928796912e-02       1.560640823403e+00 
       7.954353299775e-02       1.477435656707e+00 
       8.266024078725e-02       1.391673442900e+00 
       8.581273398637e-02       1.305436227514e+00 
       8.901225918437e-02       1.221097180185e+00 
       9.226860540985e-02       1.141047938278e+00 
       9.559052048996e-02       1.067415130543e+00 
       9.898599946599e-02       1.001853013582e+00 
       1.024624891378e-01       9.453424879609e-01 
       1.060270359164e-01       8.981093687593e-01 
       1.096863943056e-01       8.595692061777e-01 
       1.134471073830e-01       8.283604120259e-01 
       1.173155669539e-01       8.024176258723e-01 
       1.212980586983e-01       7.791752926375e-01 
       1.254007961065e-01       7.558612513195e-01 
       1.296299459934e-01       7.299203751279e-01 
       1.339916477160e-01       6.995267888857e-01 
       1.384920277736e-01       6.640096996251e-01 
       1.431372111762e-01       6.240717871743e-01 
       1.479333307714e-01       5.816850822740e-01 
       1.528865355934e-01       5.396091223364e-01 
       1.580029992204e-01       5.007274030623e-01 
       1.632889290723e-01       4.673079309205e-01 
       1.687505775527e-01       4.404382829647e-01 
       1.743942559171e-01       4.197639735114e-01 
       1.802263517371e-01       4.035533543110e-01 
       1.862533508214e-01       3.892447056109e-01 
       1.924818644494e-01       3.740140071769e-01 
       1.989186627765e-01       3.556734948010e-01 
       2.055707152847e-01       3.338630802079e-01 
       2.124452391818e-01       3.101254269350e-01 
       2.195497567139e-01       2.869756696860e-01 
       2.268921624510e-01       2.666538289240e-01 
       2.344808017550e-01       2.503214444438e-01 
       2.423245618548e-01       2.376631714881e-01 
       2.504329772620e-01       2.269313120411e-01 
       2.588163516754e-01       2.159264528317e-01 
       2.674858990930e-01       2.033457530502e-01 
       2.764539076010e-01       1.893896269036e-01 
       2.857339303080e-01       1.755400550523e-01 
       2.953410092148e-01       1.634730971545e-01 
       3.052919395542e-01       1.536693209815e-01 
       3.156055844677e-01       1.452818259958e-01 
       3.263032530092e-01       1.369884533834e-01 
       3.374091587054e-01       1.280285819840e-01 
       3.489509817175e-01       1.188867256966e-01 
       3.609605657343e-01       1.105105552147e-01 
       3.734747921333e-01       1.033347918047e-01 
       3.865366902904e-01       9.681673575561e-02 
       4.001968667448e-01       9.027624616975e-02 
       4.145153713076e-01       8.368342272995e-02 
       4.295641718077e-01       7.752228433112e-02 
       4.454304922144e-01       7.195620103826e-02 
       4.622214006969e-01       6.669089930599e-02 
       4.800702491654e-01       6.147084331993e-02 
       4.991459272112e-01       5.648663644109e-02 
       5.196665217302e-01       5.185595870413e-02 
       5.419201087032e-01       4.735071966178e-02 
       5.662975451962e-01       4.298152768944e-02 
       5.933463737275e-01       3.880023752877e-02 
       6.238638458458e-01       3.469437367518e-02 
       6.590669257916e-01       3.067226610084e-02 
       7.009246080454e-01       2.666034115306e-02 
       7.528593308799e-01       2.260823216267e-02 
       8.213469537518e-01       1.842433793368e-02 
       9.196980813302e-01       1.402274068253e-02 
       1.075112183810e+00       9.461766759286e-03 
       1.322697471132e+00       5.379988727664e-03 
       1.662328205042e+00       2.631499474136e-03 
       2.092692408506e+00       1.063876878198e-03 
       2.634543445090e+00       2.852420310359e-04 
       3.316693691389e+00       1.803197887209e-05 
       4.175469971226e+00       1.942969099340e-05 
       5.256605252960e+00       6.189697128802e-05 
       6.617673932723e+00       3.544664780679e-05 
       8.331157880872e+00       1.315394886053e-06 
       1.048830636590e+01       3.620434155036e-06 
       1.320399541071e+01       9.212785835046e-07 
       1.662284535976e+01       2.930031221559e-07 
       2.092692243973e+01       9.685135369384e-10 
       2.634543445002e+01       5.575532240797e-09 
       3.316693691389e+01       7.275970141949e-10 
       4.175469971226e+01       8.601019690584e-12 
       5.256605252960e+01       1.183900819524e-12 
       6.617673932723e+01       3.887390950582e-14 
