# Matter power spectrum P(k) at redshift z=99
# for k=1.04775e-05 to 67.6233 h/Mpc,
# number of wavenumbers equal to 246
#    1:k (h/Mpc)              2:P (Mpc/h)^3        
       1.047750691338e-05       7.261927673119e-03 
       1.131335172818e-05       7.820331745737e-03 
       1.221587619877e-05       8.421675986489e-03 
       1.319039970550e-05       9.069258192194e-03 
       1.424266598317e-05       9.766638404421e-03 
       1.537887697396e-05       1.051764069682e-02 
       1.660572938097e-05       1.132639105520e-02 
       1.793045413791e-05       1.219733231416e-02 
       1.936085902737e-05       1.313524224380e-02 
       2.090537469909e-05       1.414527121893e-02 
       2.257310435923e-05       1.523296272192e-02 
       2.437387742372e-05       1.640429444530e-02 
       2.631830745176e-05       1.766569582178e-02 
       2.841785470091e-05       1.902408601793e-02 
       3.068489367268e-05       2.048692970592e-02 
       3.313278604643e-05       2.206225513594e-02 
       3.577595943165e-05       2.375870704909e-02 
       3.862999240274e-05       2.558560727479e-02 
       4.171170631739e-05       2.755297763344e-02 
       4.503926445983e-05       2.967161927316e-02 
       4.863227909323e-05       3.195316450832e-02 
       5.251192705226e-05       3.441013519284e-02 
       5.670107455699e-05       3.705601722529e-02 
       6.122441198393e-05       3.990533413561e-02 
       6.610859938837e-05       4.297372168203e-02 
       7.138242363583e-05       4.627802141688e-02 
       7.707696806873e-05       4.983636194159e-02 
       8.322579570814e-05       5.366826847231e-02 
       8.986514707061e-05       5.779476394568e-02 
       9.703415376577e-05       6.223848243885e-02 
       1.047750691338e-04       6.702379865640e-02 
       1.131335172818e-04       7.217695153381e-02 
       1.221587619877e-04       7.772619073570e-02 
       1.319039970550e-04       8.370193432376e-02 
       1.424266598317e-04       9.013692507546e-02 
       1.537887697396e-04       9.706641242570e-02 
       1.660572938097e-04       1.045283354271e-01 
       1.793045413791e-04       1.125635349068e-01 
       1.936085902737e-04       1.212159614968e-01 
       2.090537469909e-04       1.305329132714e-01 
       2.257310435923e-04       1.405652846215e-01 
       2.437387742372e-04       1.513678302540e-01 
       2.631830745176e-04       1.629994504871e-01 
       2.841785470091e-04       1.755234921224e-01 
       3.068489367268e-04       1.890080670413e-01 
       3.313278604643e-04       2.035264002435e-01 
       3.577595943165e-04       2.191571803681e-01 
       3.862999240274e-04       2.359849437592e-01 
       4.171170631739e-04       2.541004741539e-01 
       4.503926445983e-04       2.736012080277e-01 
       4.863227909323e-04       2.945916790965e-01 
       5.251192705226e-04       3.171839525183e-01 
       5.670107455699e-04       3.414980764002e-01 
       6.122441198393e-04       3.676625413100e-01 
       6.610859938837e-04       3.958147252304e-01 
       7.138242363583e-04       4.261013284916e-01 
       7.707696806873e-04       4.586787792355e-01 
       8.322579570814e-04       4.937136001370e-01 
       8.986514707061e-04       5.313826801402e-01 
       9.703415376577e-04       5.718734972158e-01 
       1.047750691338e-03       6.153841629505e-01 
       1.131335172818e-03       6.621233239465e-01 
       1.221587619877e-03       7.123098220433e-01 
       1.319039970550e-03       7.661720584439e-01 
       1.424266598317e-03       8.239546297730e-01 
       1.537887697396e-03       8.859011173466e-01 
       1.660572938097e-03       9.522588006423e-01 
       1.793045413791e-03       1.023280099819e+00 
       1.936085902737e-03       1.099216304579e+00 
       2.090537469909e-03       1.180312990454e+00 
       2.257310435923e-03       1.266804115851e+00 
       2.437387742372e-03       1.358904853406e+00 
       2.631830745176e-03       1.456802683156e+00 
       2.841785470091e-03       1.560646890521e+00 
       3.068489367268e-03       1.670536062499e+00 
       3.313278604643e-03       1.786503852157e+00 
       3.577595943165e-03       1.908502930788e+00 
       3.862999240274e-03       2.036387730709e+00 
       4.171170631739e-03       2.169896178874e+00 
       4.503926445983e-03       2.308631878994e+00 
       4.863227909323e-03       2.452047290962e+00 
       5.251192705226e-03       2.599430628087e+00 
       5.670107455699e-03       2.749896931783e+00 
       6.122441198393e-03       2.902386513383e+00 
       6.610859938837e-03       3.055668670558e+00 
       7.138242363583e-03       3.208356461542e+00 
       7.707696806873e-03       3.358923892466e+00 
       8.322579570814e-03       3.505725595220e+00 
       8.986514707061e-03       3.647010074577e+00 
       9.703415376577e-03       3.780923304271e+00 
       1.047750691338e-02       3.905489169719e+00 
       1.131335172818e-02       4.018588250050e+00 
       1.221587619877e-02       4.117901584611e+00 
       1.319039970550e-02       4.200915391842e+00 
       1.424266598317e-02       4.264942457295e+00 
       1.537887697392e-02       4.307216691803e+00 
       1.660572938023e-02       4.325062062875e+00 
       1.793045412706e-02       4.316057043538e+00 
       1.936085890181e-02       4.278225950637e+00 
       2.090537352463e-02       4.210207488082e+00 
       2.257309535333e-02       4.111416778705e+00 
       2.437382002918e-02       3.982417715950e+00 
       2.631799944462e-02       3.825171449590e+00 
       2.841644545389e-02       3.643283756359e+00 
       3.067933355377e-02       3.442190589214e+00 
       3.311368470740e-02       3.229240551268e+00 
       3.571840443502e-02       3.013506603425e+00 
       3.847720348444e-02       2.805282029215e+00 
       4.135335538431e-02       2.614408518020e+00 
       4.429361667738e-02       2.448133069706e+00 
       4.724366439141e-02       2.309236542348e+00 
       5.016480835311e-02       2.196117358259e+00 
       5.303989620246e-02       2.104365135582e+00 
       5.586870669566e-02       2.028459704389e+00 
       5.866042680613e-02       1.963152264110e+00 
       6.142798932958e-02       1.903778331868e+00 
       6.418496440164e-02       1.846479078374e+00 
       6.694418833788e-02       1.788199743437e+00 
       6.971731106057e-02       1.726716514630e+00 
       7.251476155766e-02       1.660653019928e+00 
       7.534587671527e-02       1.589470114730e+00 
       7.821907666265e-02       1.513438059268e+00 
       8.114203772912e-02       1.433567263448e+00 
       8.412184535029e-02       1.351491310467e+00 
       8.716512279304e-02       1.269273298681e+00 
       9.027813695930e-02       1.189193010655e+00 
       9.346688431697e-02       1.113500281674e+00 
       9.673716028276e-02       1.044174898564e+00 
       1.000946150830e-01       9.827072591334e-01 
       1.035447986537e-01       9.299389886590e-01 
       1.070931966762e-01       8.859596700433e-01 
       1.107452594425e-01       8.500732183214e-01 
       1.145064249153e-01       8.208024200682e-01 
       1.183821370918e-01       7.960257943984e-01 
       1.223778605862e-01       7.731455547730e-01 
       1.264990921987e-01       7.494505333127e-01 
       1.307513701367e-01       7.225577434555e-01 
       1.351402814784e-01       6.909087777293e-01 
       1.396714684203e-01       6.541820048043e-01 
       1.443506338194e-01       6.134279949655e-01 
       1.491835465229e-01       5.708682488659e-01 
       1.541760469708e-01       5.293634773679e-01 
       1.593340535561e-01       4.917110057119e-01 
       1.646635702297e-01       4.599195324507e-01 
       1.701706958456e-01       4.347282879902e-01 
       1.758616357459e-01       4.154084422693e-01 
       1.817427160982e-01       3.999373000353e-01 
       1.878204015065e-01       3.856832673699e-01 
       1.941013164283e-01       3.698101963208e-01 
       2.005922709503e-01       3.505461169529e-01 
       2.073002914972e-01       3.280439368558e-01 
       2.142326570816e-01       3.042133769518e-01 
       2.213969417533e-01       2.816116991354e-01 
       2.288010639706e-01       2.622573439316e-01 
       2.364533437147e-01       2.469621108594e-01 
       2.443625682930e-01       2.350129560184e-01 
       2.525380679504e-01       2.244184750252e-01 
       2.609898026346e-01       2.130935846306e-01 
       2.697284615565e-01       2.001012069559e-01 
       2.787655775689e-01       1.860200352120e-01 
       2.881136588829e-01       1.725169854336e-01 
       2.977863412677e-01       1.610659975236e-01 
       3.077985646929e-01       1.517612854020e-01 
       3.181667794071e-01       1.435596414001e-01 
       3.289091877812e-01       1.351814626734e-01 
       3.400460299658e-01       1.261649030431e-01 
       3.515999236474e-01       1.172019390499e-01 
       3.635962711085e-01       1.091767679704e-01 
       3.760637506334e-01       1.023097488520e-01 
       3.890349143879e-01       9.593766008240e-02 
       4.025469216825e-01       8.950785784860e-02 
       4.166424456376e-01       8.311184283493e-02 
       4.313708035863e-01       7.721552445517e-02 
       4.467893782977e-01       7.190061949163e-02 
       4.629654199664e-01       6.686909585095e-02 
       4.799783501994e-01       6.191740646593e-02 
       4.979227319373e-01       5.722222249389e-02 
       5.169121270864e-01       5.290300616382e-02 
       5.370841404489e-01       4.876974719898e-02 
       5.586070464571e-01       4.479084991682e-02 
       5.816885094930e-01       4.105188077025e-02 
       6.065870144995e-01       3.748975975273e-02 
       6.336266468475e-01       3.407637972713e-02 
       6.632156059511e-01       3.083457711352e-02 
       6.958678639263e-01       2.772832100361e-02 
       7.322247985589e-01       2.476703605437e-02 
       7.730680195114e-01       2.193959911970e-02 
       8.193049553677e-01       1.925609502078e-02 
       8.718988016039e-01       1.672929571426e-02 
       9.317218031082e-01       1.438422117591e-02 
       9.993660908989e-01       1.225065796199e-02 
       1.075037110174e+00       1.035262831868e-02 
       1.158653485707e+00       8.699752042873e-03 
       1.250099157308e+00       7.284572702295e-03 
       1.349432401273e+00       6.085470836832e-03 
       1.456947457397e+00       5.075733239261e-03 
       1.573135111331e+00       4.228290430568e-03 
       1.698621895592e+00       3.518548073871e-03 
       1.834127512934e+00       2.924976260448e-03 
       1.980444934528e+00       2.429164594741e-03 
       2.138435191726e+00       2.015514391450e-03 
       2.309029199186e+00       1.670770069091e-03 
       2.493232377687e+00       1.383792372012e-03 
       2.692130395285e+00       1.145125083626e-03 
       2.906895534573e+00       9.468529355811e-04 
       3.138793597714e+00       7.822887332961e-04 
       3.389191366484e+00       6.458240505236e-04 
       3.659564657905e+00       5.327684442688e-04 
       3.951507022538e+00       4.391851271187e-04 
       4.266739136701e+00       3.617875834701e-04 
       4.607118943941e+00       2.978266139945e-04 
       4.974652605557e+00       2.450115889852e-04 
       5.371506324689e+00       2.014342148553e-04 
       5.800019113685e+00       1.655044178435e-04 
       6.262716579983e+00       1.359031786145e-04 
       6.762325811764e+00       1.115277170592e-04 
       7.301791451110e+00       9.147502222497e-05 
       7.884293049406e+00       7.498520191970e-05 
       8.513263807261e+00       6.143508467854e-05 
       9.192410809424e+00       5.030710187114e-05 
       9.925736873929e+00       4.117390480712e-05 
       1.071756414427e+01       3.368220613939e-05 
       1.157255956364e+01       2.754023899800e-05 
       1.249576238137e+01       2.250758113988e-05 
       1.349261385375e+01       1.838642158196e-05 
       1.456898931416e+01       1.501305452779e-05 
       1.573123280165e+01       1.225325766759e-05 
       1.698619445202e+01       9.996495066571e-06 
       1.834127087176e+01       8.152004519343e-06 
       1.980444873285e+01       6.645138103546e-06 
       2.138435184532e+01       5.414661024737e-06 
       2.309029198506e+01       4.410337213609e-06 
       2.493232377636e+01       3.590883826924e-06 
       2.692130395282e+01       2.922597971956e-06 
       2.906895534573e+01       2.377758752170e-06 
       3.138793597714e+01       1.933824413695e-06 
       3.389191366484e+01       1.572184891808e-06 
       3.659564657905e+01       1.277708896813e-06 
       3.951507022538e+01       1.038011643708e-06 
       4.266739136701e+01       8.429641913130e-07 
       4.607118943941e+01       6.843265045614e-07 
       4.974652605557e+01       5.553292734361e-07 
       5.371506324689e+01       4.504743585094e-07 
       5.800019113685e+01       3.652692042523e-07 
       6.262716579983e+01       2.960591386784e-07 
       6.762325811764e+01       2.398500617062e-07 
