# Matter power spectrum P(k) at redshift z=0
# for k=1.04775e-05 to 66.1767 h/Mpc,
# number of wavenumbers equal to 130
#    1:k (h/Mpc)              2:P (Mpc/h)^3        
       1.047750691046e-05       5.020964811308e+01 
       1.319039970183e-05       6.270562594771e+01 
       1.660572937635e-05       7.831147247912e+01 
       2.090537469327e-05       9.780108069296e+01 
       2.631830744443e-05       1.221408203809e+02 
       3.313278603720e-05       1.525374501932e+02 
       4.171170630578e-05       1.904975994010e+02 
       5.251192703764e-05       2.379022224249e+02 
       6.610859936996e-05       2.970989227883e+02 
       8.322579568497e-05       3.710167318946e+02 
       1.047750691046e-04       4.633080766742e+02 
       1.319039970183e-04       5.785234129338e+02 
       1.660572937635e-04       7.223242666092e+02 
       2.090537469327e-04       9.017396271824e+02 
       2.631830744443e-04       1.125468123750e+03 
       3.313278603720e-04       1.404223053681e+03 
       4.171170630578e-04       1.751108028790e+03 
       5.251192703764e-04       2.181998448133e+03 
       6.610859936996e-04       2.715889983591e+03 
       8.322579568497e-04       3.375152337134e+03 
       1.047750691046e-03       4.185552174303e+03 
       1.319039970183e-03       5.175742741702e+03 
       1.660572937635e-03       6.376123051813e+03 
       2.090537469327e-03       7.815671913607e+03 
       2.631830744443e-03       9.517783069093e+03 
       3.313278603720e-03       1.149357460339e+04 
       4.171170630578e-03       1.373266012871e+04 
       5.251192703764e-03       1.619063612524e+04 
       6.610859936996e-03       1.877460421097e+04 
       8.322579568497e-03       2.132607247962e+04 
       1.047750691046e-02       2.360548896536e+04 
       1.319039970183e-02       2.528218889852e+04 
       1.660572937633e-02       2.595026208728e+04 
       2.090537453514e-02       2.520938028274e+04 
       2.631818545635e-02       2.287034761863e+04 
       3.311571692125e-02       1.928630487393e+04 
       4.113809243311e-02       1.568422880209e+04 
       4.792590854610e-02       1.361061441524e+04 
       5.284436902701e-02       1.259125859016e+04 
       5.689644391095e-02       1.195558931241e+04 
       6.051252627066e-02       1.147553483466e+04 
       6.388413457411e-02       1.105595234244e+04 
       6.711249296401e-02       1.064904907746e+04 
       7.025823437965e-02       1.022937407825e+04 
       7.336115587705e-02       9.784600121794e+03 
       7.644928796912e-02       9.311678510785e+03 
       7.954353299775e-02       8.814551520251e+03 
       8.266024078725e-02       8.302197982273e+03 
       8.581273398637e-02       7.786994273331e+03 
       8.901225918437e-02       7.283240542676e+03 
       9.226860540985e-02       6.805217303507e+03 
       9.559052048996e-02       6.365645509233e+03 
       9.898599946599e-02       5.974420273309e+03 
       1.024624891378e-01       5.637350955602e+03 
       1.060270359164e-01       5.355794174232e+03 
       1.096863943056e-01       5.126252354931e+03 
       1.134471073830e-01       4.940500638957e+03 
       1.173155669539e-01       4.786182447613e+03 
       1.212980586983e-01       4.647942070718e+03 
       1.254007961065e-01       4.509160181751e+03 
       1.296299459934e-01       4.354476687959e+03 
       1.339916477160e-01       4.173207368610e+03 
       1.384920277736e-01       3.961117304653e+03 
       1.431372111762e-01       3.722673636380e+03 
       1.479333307714e-01       3.469542414541e+03 
       1.528865355934e-01       3.218324731633e+03 
       1.580029992204e-01       2.986263727999e+03 
       1.632889290723e-01       2.786953489014e+03 
       1.687505775527e-01       2.626801517214e+03 
       1.743942559171e-01       2.503761095485e+03 
       1.802263517371e-01       2.407311603799e+03 
       1.862533508214e-01       2.322230941469e+03 
       1.924818644494e-01       2.231534657972e+03 
       1.989186627765e-01       2.122169136750e+03 
       2.055707152847e-01       1.992033337148e+03 
       2.124452391818e-01       1.850315318678e+03 
       2.195497567139e-01       1.712157385771e+03 
       2.268921624510e-01       1.590973748387e+03 
       2.344808017550e-01       1.493659951165e+03 
       2.423245618548e-01       1.418308980732e+03 
       2.504329772620e-01       1.354448490050e+03 
       2.588163516754e-01       1.288944836178e+03 
       2.674858990930e-01       1.213931063493e+03 
       2.764539076010e-01       1.130692094192e+03 
       2.857339303080e-01       1.048095794042e+03 
       2.953410092148e-01       9.761724324841e+02 
       3.052919395542e-01       9.178003012309e+02 
       3.156055844677e-01       8.678902717777e+02 
       3.263032530092e-01       8.185265532709e+02 
       3.374091587054e-01       7.651424630553e+02 
       3.489509817175e-01       7.106672705200e+02 
       3.609605657343e-01       6.607775219855e+02 
       3.734747921333e-01       6.180776802413e+02 
       3.865366902904e-01       5.793029155119e+02 
       4.001968667448e-01       5.403873893609e+02 
       4.145153713076e-01       5.011467913744e+02 
       4.295641718077e-01       4.644945466806e+02 
       4.454304922144e-01       4.314034613607e+02 
       4.622214006969e-01       4.001102863008e+02 
       4.800702491654e-01       3.690845825149e+02 
       4.991459272112e-01       3.394716867613e+02 
       5.196665217302e-01       3.119816342058e+02 
       5.419201087032e-01       2.852440883530e+02 
       5.662975451962e-01       2.593267425883e+02 
       5.933463737275e-01       2.345446361581e+02 
       6.238638458458e-01       2.102270621305e+02 
       6.590669257916e-01       1.864300064640e+02 
       7.009246080454e-01       1.627211933032e+02 
       7.528593308799e-01       1.388144392167e+02 
       8.213469537518e-01       1.141838871693e+02 
       9.196980813302e-01       8.835458817644e+01 
       1.075112183810e+00       6.172042246535e+01 
       1.322697471132e+00       3.803584571737e+01 
       1.662328205042e+00       2.208951314533e+01 
       2.092692408506e+00       1.265870243618e+01 
       2.634543445090e+00       7.190495512611e+00 
       3.316693691389e+00       4.049638175190e+00 
       4.175469971226e+00       2.259990306166e+00 
       5.256605252960e+00       1.247399497109e+00 
       6.617673932723e+00       6.777687171510e-01 
       8.331157880872e+00       3.589260429098e-01 
       1.048830636590e+01       1.815308752981e-01 
       1.320399541071e+01       8.414904114225e-02 
       1.662284535976e+01       3.276093831261e-02 
       2.092692243973e+01       8.598303293581e-03 
       2.634543445002e+01       5.627957802787e-04 
       3.316693691389e+01       5.309110987006e-04 
       4.175469971226e+01       1.802527052621e-03 
       5.256605252960e+01       1.137165955923e-03 
       6.617673932723e+01       7.524064208622e-05 
