# Matter power spectrum P(k) at redshift z=99
# for k=1.04775e-05 to 66.1767 h/Mpc,
# number of wavenumbers equal to 130
#    1:k (h/Mpc)              2:P (Mpc/h)^3        
       1.047750691046e-05       7.261927680973e-03 
       1.319039970183e-05       9.069258201988e-03 
       1.660572937635e-05       1.132639106743e-02 
       2.090537469327e-05       1.414527123421e-02 
       2.631830744443e-05       1.766569584086e-02 
       3.313278603720e-05       2.206225515976e-02 
       4.171170630578e-05       2.755297766319e-02 
       5.251192703764e-05       3.441013523000e-02 
       6.610859936996e-05       4.297372172843e-02 
       8.322579568497e-05       5.366826853026e-02 
       1.047750691046e-04       6.702379872877e-02 
       1.319039970183e-04       8.370193441414e-02 
       1.660572937635e-04       1.045283355400e-01 
       2.090537469327e-04       1.305329134124e-01 
       2.631830744443e-04       1.629994506630e-01 
       3.313278603720e-04       2.035264004632e-01 
       4.171170630578e-04       2.541004744280e-01 
       5.251192703764e-04       3.171839528602e-01 
       6.610859936996e-04       3.958147256566e-01 
       8.322579568497e-04       4.937136006327e-01 
       1.047750691046e-03       6.153841636106e-01 
       1.319039970183e-03       7.661720592288e-01 
       1.660572937635e-03       9.522588016454e-01 
       2.090537469327e-03       1.180312991682e+00 
       2.631830744443e-03       1.456802684619e+00 
       3.313278603720e-03       1.786503853837e+00 
       4.171170630578e-03       2.169896190000e+00 
       5.251192703764e-03       2.599430628985e+00 
       6.610859936996e-03       3.055668704442e+00 
       8.322579568497e-03       3.505725259549e+00 
       1.047750691046e-02       3.905491550588e+00 
       1.319039970183e-02       4.200914262677e+00 
       1.660572937633e-02       4.325065160835e+00 
       2.090537453514e-02       4.210202120323e+00 
       2.631818545635e-02       3.825153999086e+00 
       3.311571692125e-02       3.229065835818e+00 
       4.113809243311e-02       2.627728776152e+00 
       4.792590854610e-02       2.280779858215e+00 
       5.284436902701e-02       2.110068508903e+00 
       5.689644391095e-02       2.003521789069e+00 
       6.051252627066e-02       1.923035918539e+00 
       6.388413457411e-02       1.852710502760e+00 
       6.711249296401e-02       1.784536042115e+00 
       7.025823437965e-02       1.714240703962e+00 
       7.336115587705e-02       1.639779731101e+00 
       7.644928796912e-02       1.560619883808e+00 
       7.954353299775e-02       1.477409825625e+00 
       8.266024078725e-02       1.391645566634e+00 
       8.581273398637e-02       1.305408685800e+00 
       8.901225918437e-02       1.221068099954e+00 
       9.226860540985e-02       1.141018729531e+00 
       9.559052048996e-02       1.067384507545e+00 
       9.898599946599e-02       1.001819054689e+00 
       1.024624891378e-01       9.453109375397e-01 
       1.060270359164e-01       8.980694262305e-01 
       1.096863943056e-01       8.595268633253e-01 
       1.134471073830e-01       8.283157836872e-01 
       1.173155669539e-01       8.023690255568e-01 
       1.212980586983e-01       7.791241750364e-01 
       1.254007961065e-01       7.558030519526e-01 
       1.296299459934e-01       7.298627180503e-01 
       1.339916477160e-01       6.994653888595e-01 
       1.384920277736e-01       6.639425921997e-01 
       1.431372111762e-01       6.240037597894e-01 
       1.479333307714e-01       5.816112280236e-01 
       1.528865355934e-01       5.395337155836e-01 
       1.580029992204e-01       5.006456746100e-01 
       1.632889290723e-01       4.672223569083e-01 
       1.687505775527e-01       4.403472758717e-01 
       1.743942559171e-01       4.196688998062e-01 
       1.802263517371e-01       4.034519123783e-01 
       1.862533508214e-01       3.891378528892e-01 
       1.924818644494e-01       3.738997057826e-01 
       1.989186627765e-01       3.555536440592e-01 
       2.055707152847e-01       3.337374610318e-01 
       2.124452391818e-01       3.099924270204e-01 
       2.195497567139e-01       2.868367427851e-01 
       2.268921624510e-01       2.665092825359e-01 
       2.344808017550e-01       2.501703844473e-01 
       2.423245618548e-01       2.375034208324e-01 
       2.504329772620e-01       2.267639824460e-01 
       2.588163516754e-01       2.157513828216e-01 
       2.674858990930e-01       2.031611969478e-01 
       2.764539076010e-01       1.891966878375e-01 
       2.857339303080e-01       1.753391700715e-01 
       2.953410092148e-01       1.632638674348e-01 
       3.052919395542e-01       1.534495280456e-01 
       3.156055844677e-01       1.450523033066e-01 
       3.263032530092e-01       1.367484158666e-01 
       3.374091587054e-01       1.277778317403e-01 
       3.489509817175e-01       1.186260215267e-01 
       3.609605657343e-01       1.102393636516e-01 
       3.734747921333e-01       1.030522371033e-01 
       3.865366902904e-01       9.652160476382e-02 
       4.001968667448e-01       8.996853486836e-02 
       4.145153713076e-01       8.336356940445e-02 
       4.295641718077e-01       7.718949298871e-02 
       4.454304922144e-01       7.160951734965e-02 
       4.622214006969e-01       6.632929643597e-02 
       4.800702491654e-01       6.109478694956e-02 
       4.991459272112e-01       5.609511294514e-02 
       5.196665217302e-01       5.144757967805e-02 
       5.419201087032e-01       4.692498374164e-02 
       5.662975451962e-01       4.253759384973e-02 
       5.933463737275e-01       3.833632448219e-02 
       6.238638458458e-01       3.420918563778e-02 
       6.590669257916e-01       3.016376534507e-02 
       7.009246080454e-01       2.612571610403e-02 
       7.528593308799e-01       2.204372115367e-02 
       8.213469537518e-01       1.782525681514e-02 
       9.196980813302e-01       1.338296547645e-02 
       1.075112183810e+00       8.778988207163e-03 
       1.322697471132e+00       4.679369240446e-03 
       1.662328205042e+00       1.990535389889e-03 
       2.092692408506e+00       5.888385029253e-04 
       2.634543445090e+00       5.812318881409e-05 
       3.316693691389e+00       1.798857461164e-05 
       4.175469971226e+00       9.465674597115e-05 
       5.256605252960e+00       6.792331611978e-05 
       6.617673932723e+00       5.517936929611e-06 
       8.331157880872e+00       4.742353668640e-06 
       1.048830636590e+01       2.507230885597e-06 
       1.320399541071e+01       3.480723537719e-07 
       1.662284535976e+01       2.998664513541e-08 
       2.092692243973e+01       2.164324477281e-08 
       2.634543445002e+01       2.707898444516e-09 
       3.316693691389e+01       1.140921626405e-10 
       4.175469971226e+01       9.218183016684e-14 
       5.256605252960e+01       2.870429933376e-13 
       6.617673932723e+01       2.423354786528e-14 
