# Matter power spectrum P(k) at redshift z=99
# for k=1.04775e-05 to 66.1767 h/Mpc,
# number of wavenumbers equal to 130
#    1:k (h/Mpc)              2:P (Mpc/h)^3        
       1.047750691046e-05       7.261927680862e-03 
       1.319039970183e-05       9.069258201849e-03 
       1.660572937635e-05       1.132639106725e-02 
       2.090537469327e-05       1.414527123399e-02 
       2.631830744443e-05       1.766569584058e-02 
       3.313278603720e-05       2.206225515942e-02 
       4.171170630578e-05       2.755297766277e-02 
       5.251192703764e-05       3.441013522947e-02 
       6.610859936996e-05       4.297372172778e-02 
       8.322579568497e-05       5.366826852944e-02 
       1.047750691046e-04       6.702379872775e-02 
       1.319039970183e-04       8.370193441286e-02 
       1.660572937635e-04       1.045283355384e-01 
       2.090537469327e-04       1.305329134104e-01 
       2.631830744443e-04       1.629994506605e-01 
       3.313278603720e-04       2.035264004601e-01 
       4.171170630578e-04       2.541004744243e-01 
       5.251192703764e-04       3.171839528558e-01 
       6.610859936996e-04       3.958147256513e-01 
       8.322579568497e-04       4.937136006277e-01 
       1.047750691046e-03       6.153841636041e-01 
       1.319039970183e-03       7.661720592794e-01 
       1.660572937635e-03       9.522588016483e-01 
       2.090537469327e-03       1.180312991699e+00 
       2.631830744443e-03       1.456802684686e+00 
       3.313278603720e-03       1.786503854041e+00 
       4.171170630578e-03       2.169896194564e+00 
       5.251192703764e-03       2.599430630720e+00 
       6.610859936996e-03       3.055668708866e+00 
       8.322579568497e-03       3.505724932743e+00 
       1.047750691046e-02       3.905491031392e+00 
       1.319039970183e-02       4.200915336225e+00 
       1.660572937633e-02       4.325059756823e+00 
       2.090537453514e-02       4.210200912527e+00 
       2.631818545635e-02       3.825148608819e+00 
       3.311571692125e-02       3.229069762733e+00 
       4.113809243311e-02       2.627724858479e+00 
       4.792590854610e-02       2.280792850491e+00 
       5.284436902701e-02       2.110087663019e+00 
       5.689644391095e-02       2.003535785537e+00 
       6.051252627066e-02       1.923056531834e+00 
       6.388413457411e-02       1.852732567676e+00 
       6.711249296401e-02       1.784563416959e+00 
       7.025823437965e-02       1.714278805368e+00 
       7.336115587705e-02       1.639814015782e+00 
       7.644928796912e-02       1.560662617542e+00 
       7.954353299775e-02       1.477457760346e+00 
       8.266024078725e-02       1.391698677548e+00 
       8.581273398637e-02       1.305461681017e+00 
       8.901225918437e-02       1.221126720024e+00 
       9.226860540985e-02       1.141080148962e+00 
       9.559052048996e-02       1.067450339972e+00 
       9.898599946599e-02       1.001890028961e+00 
       1.024624891378e-01       9.453841273683e-01 
       1.060270359164e-01       8.981490503842e-01 
       1.096863943056e-01       8.596128916968e-01 
       1.134471073830e-01       8.284048123296e-01 
       1.173155669539e-01       8.024675971748e-01 
       1.212980586983e-01       7.792298222078e-01 
       1.254007961065e-01       7.559175241726e-01 
       1.296299459934e-01       7.299816091948e-01 
       1.339916477160e-01       6.995927394139e-01 
       1.384920277736e-01       6.640784637826e-01 
       1.431372111762e-01       6.241471358650e-01 
       1.479333307714e-01       5.817634350550e-01 
       1.528865355934e-01       5.396940611875e-01 
       1.580029992204e-01       5.008130006912e-01 
       1.632889290723e-01       4.673990194520e-01 
       1.687505775527e-01       4.405348585521e-01 
       1.743942559171e-01       4.198657975408e-01 
       1.802263517371e-01       4.036604053028e-01 
       1.862533508214e-01       3.893595278915e-01 
       1.924818644494e-01       3.741351548845e-01 
       1.989186627765e-01       3.558022114141e-01 
       2.055707152847e-01       3.339999445075e-01 
       2.124452391818e-01       3.102657322422e-01 
       2.195497567139e-01       2.871223740327e-01 
       2.268921624510e-01       2.668080746216e-01 
       2.344808017550e-01       2.504830765756e-01 
       2.423245618548e-01       2.378333326073e-01 
       2.504329772620e-01       2.271114209059e-01 
       2.588163516754e-01       2.161168713885e-01 
       2.674858990930e-01       2.035457041954e-01 
       2.764539076010e-01       1.895978875683e-01 
       2.857339303080e-01       1.757568839232e-01 
       2.953410092148e-01       1.636995046674e-01 
       3.052919395542e-01       1.539065007733e-01 
       3.156055844677e-01       1.455311103683e-01 
       3.263032530092e-01       1.372508028457e-01 
       3.374091587054e-01       1.283021970202e-01 
       3.489509817175e-01       1.191711442630e-01 
       3.609605657343e-01       1.108075160066e-01 
       3.734747921333e-01       1.036451631370e-01 
       3.865366902904e-01       9.714154943453e-02 
       4.001968667448e-01       9.061566097039e-02 
       4.145153713076e-01       8.403696520148e-02 
       4.295641718077e-01       7.789125466279e-02 
       4.454304922144e-01       7.234186609200e-02 
       4.622214006969e-01       6.709372522525e-02 
       4.800702491654e-01       6.189189663768e-02 
       4.991459272112e-01       5.692635236638e-02 
       5.196665217302e-01       5.231617516403e-02 
       5.419201087032e-01       4.783258636584e-02 
       5.662975451962e-01       4.348695426129e-02 
       5.933463737275e-01       3.933111045793e-02 
       6.238638458458e-01       3.525334492144e-02 
       6.590669257916e-01       3.126300630537e-02 
       7.009246080454e-01       2.728735175097e-02 
       7.528593308799e-01       2.327843339461e-02 
       8.213469537518e-01       1.914825700270e-02 
       9.196980813302e-01       1.481704587808e-02 
       1.075112183810e+00       1.035088172902e-02 
       1.322697471132e+00       6.379463566945e-03 
       1.662328205042e+00       3.705671365547e-03 
       2.092692408506e+00       2.124539215817e-03 
       2.634543445090e+00       1.207964514553e-03 
       3.316693691389e+00       6.817063405495e-04 
       4.175469971226e+00       3.821189302192e-04 
       5.256605252960e+00       2.128710418150e-04 
       6.617673932723e+00       1.179192215943e-04 
       8.331157880872e+00       6.498454620437e-05 
       1.048830636590e+01       3.564232172866e-05 
       1.320399541071e+01       1.946320369369e-05 
       1.662284535976e+01       1.058506179239e-05 
       2.092692243973e+01       5.734698182308e-06 
       2.634543445002e+01       3.095670712311e-06 
       3.316693691389e+01       1.665269667711e-06 
       4.175469971226e+01       8.926946112615e-07 
       5.256605252960e+01       4.768062410389e-07 
       6.617673932723e+01       2.536589783450e-07 
