# Matter power spectrum P(k) at redshift z=99
# for k=1.04775e-05 to 66.1767 h/Mpc,
# number of wavenumbers equal to 130
#    1:k (h/Mpc)              2:P (Mpc/h)^3        
       1.047750691046e-05       7.261927680867e-03 
       1.319039970183e-05       9.069258201855e-03 
       1.660572937635e-05       1.132639106726e-02 
       2.090537469327e-05       1.414527123400e-02 
       2.631830744443e-05       1.766569584059e-02 
       3.313278603720e-05       2.206225515944e-02 
       4.171170630578e-05       2.755297766279e-02 
       5.251192703764e-05       3.441013522950e-02 
       6.610859936996e-05       4.297372172781e-02 
       8.322579568497e-05       5.366826852948e-02 
       1.047750691046e-04       6.702379872779e-02 
       1.319039970183e-04       8.370193441291e-02 
       1.660572937635e-04       1.045283355385e-01 
       2.090537469327e-04       1.305329134105e-01 
       2.631830744443e-04       1.629994506607e-01 
       3.313278603720e-04       2.035264004603e-01 
       4.171170630578e-04       2.541004744245e-01 
       5.251192703764e-04       3.171839528560e-01 
       6.610859936996e-04       3.958147256516e-01 
       8.322579568497e-04       4.937136006275e-01 
       1.047750691046e-03       6.153841636045e-01 
       1.319039970183e-03       7.661720592714e-01 
       1.660572937635e-03       9.522588016436e-01 
       2.090537469327e-03       1.180312991698e+00 
       2.631830744443e-03       1.456802684683e+00 
       3.313278603720e-03       1.786503854037e+00 
       4.171170630578e-03       2.169896194561e+00 
       5.251192703764e-03       2.599430630687e+00 
       6.610859936996e-03       3.055668713302e+00 
       8.322579568497e-03       3.505725598422e+00 
       1.047750691046e-02       3.905491666856e+00 
       1.319039970183e-02       4.200915297586e+00 
       1.660572937633e-02       4.325062923196e+00 
       2.090537453514e-02       4.210205745574e+00 
       2.631818545635e-02       3.825155550342e+00 
       3.311571692125e-02       3.229062712390e+00 
       4.113809243311e-02       2.627733860582e+00 
       4.792590854610e-02       2.280794980652e+00 
       5.284436902701e-02       2.110088199563e+00 
       5.689644391095e-02       2.003539097049e+00 
       6.051252627066e-02       1.923054900500e+00 
       6.388413457411e-02       1.852732889956e+00 
       6.711249296401e-02       1.784562999319e+00 
       7.025823437965e-02       1.714273363994e+00 
       7.336115587705e-02       1.639815346980e+00 
       7.644928796912e-02       1.560662431333e+00 
       7.954353299775e-02       1.477457039184e+00 
       8.266024078725e-02       1.391697796537e+00 
       8.581273398637e-02       1.305458706832e+00 
       8.901225918437e-02       1.221124752041e+00 
       9.226860540985e-02       1.141077527451e+00 
       9.559052048996e-02       1.067452234534e+00 
       9.898599946599e-02       1.001889431095e+00 
       1.024624891378e-01       9.453814757206e-01 
       1.060270359164e-01       8.981510144008e-01 
       1.096863943056e-01       8.596128628977e-01 
       1.134471073830e-01       8.284056368828e-01 
       1.173155669539e-01       8.024686715205e-01 
       1.212980586983e-01       7.792295045274e-01 
       1.254007961065e-01       7.559179208109e-01 
       1.296299459934e-01       7.299821949824e-01 
       1.339916477160e-01       6.995921996719e-01 
       1.384920277736e-01       6.640772747127e-01 
       1.431372111762e-01       6.241458879039e-01 
       1.479333307714e-01       5.817633746449e-01 
       1.528865355934e-01       5.396906206711e-01 
       1.580029992204e-01       5.008140917031e-01 
       1.632889290723e-01       4.673977879431e-01 
       1.687505775527e-01       4.405347932354e-01 
       1.743942559171e-01       4.198660341185e-01 
       1.802263517371e-01       4.036594612133e-01 
       1.862533508214e-01       3.893599769937e-01 
       1.924818644494e-01       3.741344129353e-01 
       1.989186627765e-01       3.558013621469e-01 
       2.055707152847e-01       3.340005886126e-01 
       2.124452391818e-01       3.102667653018e-01 
       2.195497567139e-01       2.871218414715e-01 
       2.268921624510e-01       2.668079959685e-01 
       2.344808017550e-01       2.504833612664e-01 
       2.423245618548e-01       2.378334486268e-01 
       2.504329772620e-01       2.271115119566e-01 
       2.588163516754e-01       2.161183754730e-01 
       2.674858990930e-01       2.035452202540e-01 
       2.764539076010e-01       1.895976454596e-01 
       2.857339303080e-01       1.757561902510e-01 
       2.953410092148e-01       1.636989097918e-01 
       3.052919395542e-01       1.539056509481e-01 
       3.156055844677e-01       1.455307262263e-01 
       3.263032530092e-01       1.372496153516e-01 
       3.374091587054e-01       1.283017219622e-01 
       3.489509817175e-01       1.191704747022e-01 
       3.609605657343e-01       1.108064439867e-01 
       3.734747921333e-01       1.036438587565e-01 
       3.865366902904e-01       9.714046982276e-02 
       4.001968667448e-01       9.061455046564e-02 
       4.145153713076e-01       8.403631953626e-02 
       4.295641718077e-01       7.789012676934e-02 
       4.454304922144e-01       7.234084701140e-02 
       4.622214006969e-01       6.709274972979e-02 
       4.800702491654e-01       6.189088925899e-02 
       4.991459272112e-01       5.692521696881e-02 
       5.196665217302e-01       5.231502548805e-02 
       5.419201087032e-01       4.783123182316e-02 
       5.662975451962e-01       4.348546484142e-02 
       5.933463737275e-01       3.932957631365e-02 
       6.238638458458e-01       3.525189501695e-02 
       6.590669257916e-01       3.126124772259e-02 
       7.009246080454e-01       2.728550941223e-02 
       7.528593308799e-01       2.327656727606e-02 
       8.213469537518e-01       1.914604532319e-02 
       9.196980813302e-01       1.481448814137e-02 
       1.075112183810e+00       1.034797904106e-02 
       1.322697471132e+00       6.375786884384e-03 
       1.662328205042e+00       3.701084331319e-03 
       2.092692408506e+00       2.118879441328e-03 
       2.634543445090e+00       1.201066512205e-03 
       3.316693691389e+00       6.734405254577e-04 
       4.175469971226e+00       3.723822653962e-04 
       5.256605252960e+00       2.016778730389e-04 
       6.617673932723e+00       1.054543537084e-04 
       8.331157880872e+00       5.170844749527e-05 
       1.048830636590e+01       2.239624566316e-05 
       1.320399541071e+01       7.483414776346e-06 
       1.662284535976e+01       1.272051817157e-06 
       2.092692243973e+01       4.660633538093e-09 
       2.634543445002e+01       5.693550991660e-07 
       3.316693691389e+01       7.162071234835e-07 
       4.175469971226e+01       1.952619095161e-07 
       5.256605252960e+01       3.960685693412e-09 
       6.617673932723e+01       4.332082324379e-08 
