# Matter power spectrum P(k) at redshift z=0
# for k=1.04775e-05 to 66.1767 h/Mpc,
# number of wavenumbers equal to 130
#    1:k (h/Mpc)              2:P (Mpc/h)^3        
       1.047750691046e-05       5.020964811309e+01 
       1.319039970183e-05       6.270562594765e+01 
       1.660572937635e-05       7.831147247912e+01 
       2.090537469327e-05       9.780108069295e+01 
       2.631830744443e-05       1.221408203809e+02 
       3.313278603720e-05       1.525374501932e+02 
       4.171170630578e-05       1.904975994010e+02 
       5.251192703764e-05       2.379022224249e+02 
       6.610859936996e-05       2.970989227882e+02 
       8.322579568497e-05       3.710167318945e+02 
       1.047750691046e-04       4.633080766741e+02 
       1.319039970183e-04       5.785234129334e+02 
       1.660572937635e-04       7.223242666091e+02 
       2.090537469327e-04       9.017396271821e+02 
       2.631830744443e-04       1.125468123750e+03 
       3.313278603720e-04       1.404223053680e+03 
       4.171170630578e-04       1.751108028788e+03 
       5.251192703764e-04       2.181998448129e+03 
       6.610859936996e-04       2.715889983584e+03 
       8.322579568497e-04       3.375152337120e+03 
       1.047750691046e-03       4.185552174283e+03 
       1.319039970183e-03       5.175742740667e+03 
       1.660572937635e-03       6.376123051642e+03 
       2.090537469327e-03       7.815671861780e+03 
       2.631830744443e-03       9.517783068557e+03 
       3.313278603720e-03       1.149357460232e+04 
       4.171170630578e-03       1.373266009289e+04 
       5.251192703764e-03       1.619063554101e+04 
       6.610859936996e-03       1.877460393096e+04 
       8.322579568497e-03       2.132611070692e+04 
       1.047750691046e-02       2.360548667191e+04 
       1.319039970183e-02       2.528219841479e+04 
       1.660572937633e-02       2.595035969925e+04 
       2.090537453514e-02       2.520933074950e+04 
       2.631818545635e-02       2.287026445273e+04 
       3.311571692125e-02       1.928611356170e+04 
       4.113809243311e-02       1.568426703392e+04 
       4.792590854610e-02       1.361056757892e+04 
       5.284436902701e-02       1.259123828072e+04 
       5.689644391095e-02       1.195553451086e+04 
       6.051252627066e-02       1.147548524245e+04 
       6.388413457411e-02       1.105565954359e+04 
       6.711249296401e-02       1.064887280699e+04 
       7.025823437965e-02       1.022928738270e+04 
       7.336115587705e-02       9.784563340721e+03 
       7.644928796912e-02       9.311685116882e+03 
       7.954353299775e-02       8.814280760717e+03 
       8.266024078725e-02       8.302178974426e+03 
       8.581273398637e-02       7.786944090256e+03 
       8.901225918437e-02       7.283207343188e+03 
       9.226860540985e-02       6.805169204020e+03 
       9.559052048996e-02       6.365615735996e+03 
       9.898599946599e-02       5.974378721029e+03 
       1.024624891378e-01       5.637336875665e+03 
       1.060270359164e-01       5.355791407110e+03 
       1.096863943056e-01       5.126248453211e+03 
       1.134471073830e-01       4.940474625901e+03 
       1.173155669539e-01       4.786144581670e+03 
       1.212980586983e-01       4.647924907579e+03 
       1.254007961065e-01       4.509043280727e+03 
       1.296299459934e-01       4.354543064126e+03 
       1.339916477160e-01       4.173137092750e+03 
       1.384920277736e-01       3.961171936096e+03 
       1.431372111762e-01       3.722582592621e+03 
       1.479333307714e-01       3.469545924743e+03 
       1.528865355934e-01       3.218317469257e+03 
       1.580029992204e-01       2.986241684190e+03 
       1.632889290723e-01       2.786946993281e+03 
       1.687505775527e-01       2.626809978244e+03 
       1.743942559171e-01       2.503752304416e+03 
       1.802263517371e-01       2.407298253753e+03 
       1.862533508214e-01       2.322250964467e+03 
       1.924818644494e-01       2.231562889885e+03 
       1.989186627765e-01       2.122202938276e+03 
       2.055707152847e-01       1.992034265095e+03 
       2.124452391818e-01       1.850299557883e+03 
       2.195497567139e-01       1.712153899738e+03 
       2.268921624510e-01       1.590963125484e+03 
       2.344808017550e-01       1.493654212542e+03 
       2.423245618548e-01       1.418295225038e+03 
       2.504329772620e-01       1.354437946819e+03 
       2.588163516754e-01       1.288928859161e+03 
       2.674858990930e-01       1.213900541857e+03 
       2.764539076010e-01       1.130674601793e+03 
       2.857339303080e-01       1.048082138137e+03 
       2.953410092148e-01       9.761690772096e+02 
       3.052919395542e-01       9.177999952378e+02 
       3.156055844677e-01       8.678834903844e+02 
       3.263032530092e-01       8.185164050162e+02 
       3.374091587054e-01       7.651415218797e+02 
       3.489509817175e-01       7.106523106865e+02 
       3.609605657343e-01       6.607712703170e+02 
       3.734747921333e-01       6.180738179907e+02 
       3.865366902904e-01       5.792951960916e+02 
       4.001968667448e-01       5.403753399015e+02 
       4.145153713076e-01       5.011362168821e+02 
       4.295641718077e-01       4.644879185393e+02 
       4.454304922144e-01       4.313955574239e+02 
       4.622214006969e-01       4.001020747177e+02 
       4.800702491654e-01       3.690756909384e+02 
       4.991459272112e-01       3.394634937534e+02 
       5.196665217302e-01       3.119723342177e+02 
       5.419201087032e-01       2.852338846483e+02 
       5.662975451962e-01       2.593184434940e+02 
       5.933463737275e-01       2.345367098994e+02 
       6.238638458458e-01       2.102198157198e+02 
       6.590669257916e-01       1.864236299936e+02 
       7.009246080454e-01       1.627150295253e+02 
       7.528593308799e-01       1.388081023528e+02 
       8.213469537518e-01       1.141785077179e+02 
       9.196980813302e-01       8.834852394691e+01 
       1.075112183810e+00       6.171499125993e+01 
       1.322697471132e+00       3.803069053236e+01 
       1.662328205042e+00       2.208489541348e+01 
       2.092692408506e+00       1.265467295931e+01 
       2.634543445090e+00       7.187259056185e+00 
       3.316693691389e+00       4.047148762767e+00 
       4.175469971226e+00       2.258498987672e+00 
       5.256605252960e+00       1.246902935639e+00 
       6.617673932723e+00       6.782587016102e-01 
       8.331157880872e+00       3.603144154095e-01 
       1.048830636590e+01       1.836063418401e-01 
       1.320399541071e+01       8.656923700260e-02 
       1.662284535976e+01       3.504859463189e-02 
       2.092692243973e+01       1.022284223364e-02 
       2.634543445002e+01       1.154327613884e-03 
       3.316693691389e+01       1.370408809987e-04 
       4.175469971226e+01       9.877559717413e-04 
       5.256605252960e+01       6.473202069948e-04 
       6.617673932723e+01       4.576615897777e-05 
