# Matter power spectrum P(k) at redshift z=99
# for k=1.04775e-05 to 67.6233 h/Mpc,
# number of wavenumbers equal to 246
#    1:k (h/Mpc)              2:P (Mpc/h)^3        
       1.047750691046e-05       7.261928914521e-03 
       1.131335172503e-05       7.820333082854e-03 
       1.221587619537e-05       8.421677429510e-03 
       1.319039970183e-05       9.069259751253e-03 
       1.424266597921e-05       9.766640071918e-03 
       1.537887696968e-05       1.051764162837e-02 
       1.660572937635e-05       1.132639299741e-02 
       1.793045413292e-05       1.219733431506e-02 
       1.936085902198e-05       1.313524448956e-02 
       2.090537469327e-05       1.414527135887e-02 
       2.257310435294e-05       1.523296846572e-02 
       2.437387741694e-05       1.640429713880e-02 
       2.631830744443e-05       1.766569869135e-02 
       2.841785469300e-05       1.902409065514e-02 
       3.068489366414e-05       2.048693399148e-02 
       3.313278603720e-05       2.206225888790e-02 
       3.577595942169e-05       2.375871077791e-02 
       3.862999239199e-05       2.558561003284e-02 
       4.171170630578e-05       2.755298232553e-02 
       4.503926444729e-05       2.967162404364e-02 
       4.863227907969e-05       3.195316997595e-02 
       5.251192703764e-05       3.441014106872e-02 
       5.670107454120e-05       3.705602371899e-02 
       6.122441196689e-05       3.990533973020e-02 
       6.610859936996e-05       4.297372901535e-02 
       7.138242361596e-05       4.627802945976e-02 
       7.707696804727e-05       4.983637044773e-02 
       8.322579568497e-05       5.366827772252e-02 
       8.986514704559e-05       5.779477379556e-02 
       9.703415373875e-05       6.223849379774e-02 
       1.047750691046e-04       6.702381007965e-02 
       1.131335172503e-04       7.217696285576e-02 
       1.221587619537e-04       7.772620510663e-02 
       1.319039970183e-04       8.370194909619e-02 
       1.424266597921e-04       9.013694137876e-02 
       1.537887696968e-04       9.706642912606e-02 
       1.660572937635e-04       1.045283531489e-01 
       1.793045413292e-04       1.125635539280e-01 
       1.936085902198e-04       1.212159818863e-01 
       2.090537469327e-04       1.305329352859e-01 
       2.257310435294e-04       1.405653082318e-01 
       2.437387741694e-04       1.513678556102e-01 
       2.631830744443e-04       1.629994776708e-01 
       2.841785469300e-04       1.755235213034e-01 
       3.068489366414e-04       1.890080983181e-01 
       3.313278603720e-04       2.035264334871e-01 
       3.577595942169e-04       2.191572161920e-01 
       3.862999239199e-04       2.359849819629e-01 
       4.171170630578e-04       2.541005149903e-01 
       4.503926444729e-04       2.736012520417e-01 
       4.863227907969e-04       2.945917253574e-01 
       5.251192703764e-04       3.171840012042e-01 
       5.670107454121e-04       3.414981282870e-01 
       6.122441196689e-04       3.676625960213e-01 
       6.610859936996e-04       3.958147826513e-01 
       7.138242361596e-04       4.261013885648e-01 
       7.707696804727e-04       4.586788417614e-01 
       8.322579568497e-04       4.937136641445e-01 
       8.986514704559e-04       5.313827454134e-01 
       9.703415373875e-04       5.718735627475e-01 
       1.047750691046e-03       6.153842275885e-01 
       1.131335172503e-03       6.621233860580e-01 
       1.221587619537e-03       7.123098790400e-01 
       1.319039970183e-03       7.661721085152e-01 
       1.424266597921e-03       8.239546681877e-01 
       1.537887696968e-03       8.859011382869e-01 
       1.660572937635e-03       9.522587902692e-01 
       1.793045413292e-03       1.023280039769e+00 
       1.936085902198e-03       1.099216167235e+00 
       2.090537469327e-03       1.180312729672e+00 
       2.257310435294e-03       1.266803677979e+00 
       2.437387741694e-03       1.358904169655e+00 
       2.631830744443e-03       1.456801626979e+00 
       2.841785469300e-03       1.560645287124e+00 
       3.068489366414e-03       1.670533677805e+00 
       3.313278603720e-03       1.786500383497e+00 
       3.577595942169e-03       1.908497904121e+00 
       3.862999239199e-03       2.036380523479e+00 
       4.171170630578e-03       2.169885978562e+00 
       4.503926444729e-03       2.308617439537e+00 
       4.863227907969e-03       2.452027077809e+00 
       5.251192703764e-03       2.599402391993e+00 
       5.670107454120e-03       2.749858242388e+00 
       6.122441196689e-03       2.902332743535e+00 
       6.610859936996e-03       3.055594655577e+00 
       7.138242361596e-03       3.208255101924e+00 
       7.707696804727e-03       3.358785842416e+00 
       8.322579568496e-03       3.505536538978e+00 
       8.986514704559e-03       3.646753428460e+00 
       9.703415373875e-03       3.780575394709e+00 
       1.047750691046e-02       3.905020632285e+00 
       1.131335172503e-02       4.017953327079e+00 
       1.221587619537e-02       4.117049037091e+00 
       1.319039970183e-02       4.199774395037e+00 
       1.424266597920e-02       4.263420215784e+00 
       1.537887696964e-02       4.305193863223e+00 
       1.660572937560e-02       4.322383504742e+00 
       1.793045412207e-02       4.312530397258e+00 
       1.936085889642e-02       4.273614266881e+00 
       2.090537351881e-02       4.204192545623e+00 
       2.257309534705e-02       4.103643148585e+00 
       2.437382002240e-02       3.972426097367e+00 
       2.631799943729e-02       3.812438032860e+00 
       2.841644544598e-02       3.627189245558e+00 
       3.067933354524e-02       3.422052800600e+00 
       3.311368469821e-02       3.204275986243e+00 
       3.571840442514e-02       2.982922762081e+00 
       3.847720347390e-02       2.768266903821e+00 
       4.135335537314e-02       2.570240344674e+00 
       4.429361666563e-02       2.396211182952e+00 
       4.724366437916e-02       2.249148299699e+00 
       5.016480834039e-02       2.127559383646e+00 
       5.303989618930e-02       2.027140326264e+00 
       5.586870668205e-02       1.942400375722e+00 
       5.866042679206e-02       1.868126902740e+00 
       6.142798931504e-02       1.799660603726e+00 
       6.418496438662e-02       1.733163885612e+00 
       6.694418832236e-02       1.665597596368e+00 
       6.971731104453e-02       1.594767853709e+00 
       7.251476154108e-02       1.519328129834e+00 
       7.534587669814e-02       1.438771452556e+00 
       7.821907664495e-02       1.353384551525e+00 
       8.114203771084e-02       1.264229542938e+00 
       8.412184533139e-02       1.172939192052e+00 
       8.716512277352e-02       1.081579601978e+00 
       9.027813693913e-02       9.924059847853e-01 
       9.346688429613e-02       9.076137999612e-01 
       9.673716026122e-02       8.290845942892e-01 
       1.000946150608e-01       7.581960712410e-01 
       1.035447986307e-01       6.956661441725e-01 
       1.070931966524e-01       6.415097553661e-01 
       1.107452594180e-01       5.950104879160e-01 
       1.145064248899e-01       5.548134186233e-01 
       1.183821370656e-01       5.190392014685e-01 
       1.223778605591e-01       4.855058539258e-01 
       1.264990921707e-01       4.520013063671e-01 
       1.307513701078e-01       4.166847955486e-01 
       1.351402814485e-01       3.784593548582e-01 
       1.396714683894e-01       3.372837645144e-01 
       1.443506337875e-01       2.942138672883e-01 
       1.491835464900e-01       2.511752507405e-01 
       1.541760469368e-01       2.104361225836e-01 
       1.593340535209e-01       1.739942455597e-01 
       1.646635701934e-01       1.430752736197e-01 
       1.701706958081e-01       1.178919379519e-01 
       1.758616357070e-01       9.772998541492e-02 
       1.817427160581e-01       8.126735844758e-02 
       1.878204014651e-01       6.709129906376e-02 
       1.941013163855e-01       5.390050235102e-02 
       2.005922709060e-01       4.109165072494e-02 
       2.073002914514e-01       2.897105923478e-02 
       2.142326570343e-01       1.843541073082e-02 
       2.213969417044e-01       1.031028134326e-02 
       2.288010639201e-01       4.863522752281e-03 
       2.364533436625e-01       1.759997936052e-03 
       2.443625682390e-01       3.379724135894e-04 
       2.525380678946e-01       5.362456098921e-06 
       2.609898025770e-01       4.896927552174e-04 
       2.697284614969e-01       1.795877558578e-03 
       2.787655775073e-01       3.967391746102e-03 
       2.881136588192e-01       6.786538498391e-03 
       2.977863412019e-01       9.711161793799e-03 
       3.077985646248e-01       1.223765132079e-02 
       3.181667793367e-01       1.421573882375e-02 
       3.289091877084e-01       1.582420918428e-02 
       3.400460298905e-01       1.722568847714e-02 
       3.515999235695e-01       1.824996500623e-02 
       3.635962710278e-01       1.854200132031e-02 
       3.760637505499e-01       1.790066611525e-02 
       3.890349143014e-01       1.654154817758e-02 
       4.025469215929e-01       1.478666437856e-02 
       4.166424455447e-01       1.277962786851e-02 
       4.313708034899e-01       1.050481700986e-02 
       4.467893781976e-01       8.069597341315e-03 
       4.629654198623e-01       5.723126307363e-03 
       4.799783500912e-01       3.687324095296e-03 
       4.979227318246e-01       2.049068449182e-03 
       5.169121269689e-01       8.642875888252e-04 
       5.370841403262e-01       1.923481642302e-04 
       5.586070463286e-01       3.831726729491e-07 
       5.816885093582e-01       1.862155364411e-04 
       6.065870143577e-01       6.012273024339e-04 
       6.336266466978e-01       1.057171024192e-03 
       6.632156057925e-01       1.376419170430e-03 
       6.958678637575e-01       1.423809015393e-03 
       7.322247983784e-01       1.170119762685e-03 
       7.730680193171e-01       7.141674706431e-04 
       8.193049551574e-01       2.637352580721e-04 
       8.718988013754e-01       2.147058974206e-05 
       9.317218028590e-01       2.877083837718e-05 
       9.993660906273e-01       1.204737143422e-04 
       1.075037109879e+00       1.176696988098e-04 
       1.158653485387e+00       3.839709893155e-05 
       1.250099156961e+00       1.319850155366e-07 
       1.349432400897e+00       1.053857176748e-05 
       1.456947456991e+00       1.098574565865e-05 
       1.573135110893e+00       1.313686206482e-06 
       1.698621895119e+00       6.419607132898e-07 
       1.834127512423e+00       1.213872578001e-06 
       1.980444933977e+00       7.360179107165e-08 
       2.138435191130e+00       1.188146272093e-07 
       2.309029198543e+00       5.302502442652e-08 
       2.493232376993e+00       5.542431033134e-09 
       2.692130394536e+00       8.100374747650e-09 
       2.906895533764e+00       4.444161506554e-10 
       3.138793596840e+00       4.787642086324e-10 
       3.389191365541e+00       1.236636375535e-10 
       3.659564656886e+00       4.698805212784e-12 
       3.951507021438e+00       4.974520574967e-12 
       4.266739135513e+00       1.747138738637e-12 
       4.607118942658e+00       4.204331956372e-16 
       4.974652604172e+00       3.568516132046e-14 
       5.371506323193e+00       1.376645123190e-14 
       5.800019112071e+00       5.252136288487e-15 
       6.262716578240e+00       1.943160660038e-15 
       6.762325809881e+00       1.061972093017e-15 
       7.301791449077e+00       2.037669673464e-16 
       7.884293047211e+00       1.985388712578e-17 
       8.513263804891e+00       1.114991815000e-17 
       9.192410806865e+00       6.331896014785e-18 
       9.925736871166e+00       1.608042699929e-17 
       1.071756414128e+01       4.716052356795e-18 
       1.157255956041e+01       9.119128834842e-19 
       1.249576237789e+01       2.282482345772e-18 
       1.349261385000e+01       1.134279052826e-18 
       1.456898931011e+01       1.042666604713e-19 
       1.573123279727e+01       1.082729160250e-19 
       1.698619444729e+01       4.046252121832e-20 
       1.834127086665e+01       1.772953549152e-21 
       1.980444872733e+01       1.250213743502e-21 
       2.138435183937e+01       8.443553957484e-22 
       2.309029197863e+01       3.921297111199e-22 
       2.493232376942e+01       3.089222896704e-22 
       2.692130394533e+01       8.108226902354e-25 
       2.906895533764e+01       5.796093893570e-24 
       3.138793596840e+01       1.186543183405e-24 
       3.389191365541e+01       6.307179030644e-23 
       3.659564656886e+01       2.322878913414e-24 
       3.951507021438e+01       2.202336363947e-23 
       4.266739135513e+01       8.074900009499e-23 
       4.607118942658e+01       3.976032987750e-23 
       4.974652604172e+01       1.120277467744e-24 
       5.371506323193e+01       3.139532418707e-26 
       5.800019112071e+01       1.645030949754e-24 
       6.262716578240e+01       2.664285590899e-24 
       6.762325809881e+01       1.484301078662e-24 
