# Matter power spectrum P(k) at redshift z=0
# for k=1.04775e-05 to 67.6233 h/Mpc,
# number of wavenumbers equal to 246
#    1:k (h/Mpc)              2:P (Mpc/h)^3        
       1.047750691046e-05       5.020964811306e+01 
       1.131335172503e-05       5.407050701929e+01 
       1.221587619537e-05       5.822819068759e+01 
       1.319039970183e-05       6.270562594785e+01 
       1.424266597921e-05       6.752732240880e+01 
       1.537887696968e-05       7.271977206173e+01 
       1.660572937635e-05       7.831147247912e+01 
       1.793045413292e-05       8.433311821988e+01 
       1.936085902198e-05       9.081778249833e+01 
       2.090537469327e-05       9.780108069296e+01 
       2.257310435294e-05       1.053213197893e+02 
       2.437387741694e-05       1.134197377890e+02 
       2.631830744443e-05       1.221408203809e+02 
       2.841785469300e-05       1.315324642469e+02 
       3.068489366414e-05       1.416462094881e+02 
       3.313278603720e-05       1.525374501932e+02 
       3.577595942169e-05       1.642660688414e+02 
       3.862999239199e-05       1.768963506307e+02 
       4.171170630578e-05       1.904975994010e+02 
       4.503926444729e-05       2.051444491973e+02 
       4.863227907969e-05       2.209171465549e+02 
       5.251192703764e-05       2.379022224249e+02 
       5.670107454120e-05       2.561927927609e+02 
       6.122441196689e-05       2.758890444040e+02 
       6.610859936996e-05       2.970989227882e+02 
       7.138242361596e-05       3.199385560802e+02 
       7.707696804727e-05       3.445329783680e+02 
       8.322579568497e-05       3.710167318946e+02 
       8.986514704559e-05       3.995346444203e+02 
       9.703415373875e-05       4.302425407383e+02 
       1.047750691046e-04       4.633080766742e+02 
       1.131335172503e-04       4.989116271564e+02 
       1.221587619537e-04       5.372471950929e+02 
       1.319039970183e-04       5.785234129338e+02 
       1.424266597921e-04       6.229645936045e+02 
       1.537887696968e-04       6.708118490405e+02 
       1.660572937635e-04       7.223242666092e+02 
       1.793045413292e-04       7.777801567915e+02 
       1.936085902198e-04       8.374783614140e+02 
       2.090537469327e-04       9.017396271824e+02 
       2.257310435294e-04       9.709080268041e+02 
       2.437387741694e-04       1.045352449493e+03 
       2.631830744443e-04       1.125468123750e+03 
       2.841785469300e-04       1.211678180495e+03 
       3.068489366414e-04       1.304435250150e+03 
       3.313278603720e-04       1.404223053681e+03 
       3.577595942169e-04       1.511558014616e+03 
       3.862999239199e-04       1.626990837807e+03 
       4.171170630578e-04       1.751108028790e+03 
       4.503926444729e-04       1.884533382872e+03 
       4.863227907969e-04       2.027929378112e+03 
       5.251192703764e-04       2.181998448133e+03 
       5.670107454121e-04       2.347484102755e+03 
       6.122441196689e-04       2.525171871365e+03 
       6.610859936996e-04       2.715889983592e+03 
       7.138242361596e-04       2.920509688382e+03 
       7.707696804727e-04       3.139945100279e+03 
       8.322579568497e-04       3.375152337578e+03 
       8.986514704559e-04       3.627127831141e+03 
       9.703415373875e-04       3.896905453136e+03 
       1.047750691046e-03       4.185552174300e+03 
       1.131335172503e-03       4.494162430373e+03 
       1.221587619537e-03       4.823850706491e+03 
       1.319039970183e-03       5.175742742783e+03 
       1.424266597921e-03       5.551019596910e+03 
       1.537887696968e-03       5.950788340560e+03 
       1.660572937635e-03       6.376123051788e+03 
       1.793045413292e-03       6.828073901447e+03 
       1.936085902198e-03       7.307625381067e+03 
       2.090537469327e-03       7.815671856066e+03 
       2.257310435294e-03       8.352990375822e+03 
       2.437387741694e-03       8.920211064340e+03 
       2.631830744443e-03       9.517783069112e+03 
       2.841785469300e-03       1.014593704435e+04 
       3.068489366414e-03       1.080464502786e+04 
       3.313278603720e-03       1.149357460341e+04 
       3.577595942169e-03       1.221203621722e+04 
       3.862999239199e-03       1.295892539446e+04 
       4.171170630578e-03       1.373266012878e+04 
       4.503926444729e-03       1.453111835625e+04 
       4.863227907969e-03       1.535154985300e+04 
       5.251192703764e-03       1.619063614559e+04 
       5.670107454120e-03       1.704431257753e+04 
       6.122441196689e-03       1.790755939651e+04 
       6.610859936996e-03       1.877460417800e+04 
       7.138242361596e-03       1.963872430355e+04 
       7.707696804727e-03       2.049215714561e+04 
       8.322579568496e-03       2.132607231533e+04 
       8.986514704559e-03       2.213054985483e+04 
       9.703415373875e-03       2.289445472122e+04 
       1.047750691046e-02       2.360548792164e+04 
       1.131335172503e-02       2.425023461002e+04 
       1.221587619537e-02       2.481423923376e+04 
       1.319039970183e-02       2.528218651786e+04 
       1.424266597920e-02       2.563814427510e+04 
       1.537887696964e-02       2.586606494194e+04 
       1.660572937560e-02       2.595028010405e+04 
       1.793045412207e-02       2.587632842757e+04 
       1.936085889642e-02       2.563220497057e+04 
       2.090537351881e-02       2.520935143198e+04 
       2.257309534705e-02       2.460447272546e+04 
       2.437382002240e-02       2.382091468330e+04 
       2.631799943729e-02       2.287048287570e+04 
       2.841644544598e-02       2.177451841915e+04 
       3.067933354524e-02       2.056555845049e+04 
       3.311368469821e-02       1.928728053957e+04 
       3.571840442514e-02       1.799392858494e+04 
       3.847720347390e-02       1.674684527534e+04 
       4.135335537314e-02       1.560463483277e+04 
       4.429361666563e-02       1.461039054824e+04 
       4.724366437916e-02       1.378052300051e+04 
       5.016480834039e-02       1.310509748873e+04 
       5.303989618930e-02       1.255715657190e+04 
       5.586870668205e-02       1.210425071577e+04 
       5.866042679206e-02       1.171463813854e+04 
       6.142798931504e-02       1.136049875958e+04 
       6.418496438662e-02       1.101857432614e+04 
       6.694418832236e-02       1.067068258716e+04 
       6.971731104453e-02       1.030359309980e+04 
       7.251476154108e-02       9.908991103081e+03 
       7.534587669814e-02       9.483777105158e+03 
       7.821907664495e-02       9.029500167219e+03 
       8.114203771084e-02       8.552314794169e+03 
       8.412184533139e-02       8.061957749957e+03 
       8.716512277352e-02       7.570782451556e+03 
       9.027813693913e-02       7.092518714869e+03 
       9.346688429613e-02       6.640500950813e+03 
       9.673716026122e-02       6.226696772072e+03 
       1.000946150608e-01       5.859944591788e+03 
       1.035447986307e-01       5.545238700311e+03 
       1.070931966524e-01       5.283127384290e+03 
       1.107452594180e-01       5.069425261919e+03 
       1.145064248899e-01       4.895234766899e+03 
       1.183821370656e-01       4.747833184478e+03 
       1.223778605591e-01       4.611735658197e+03 
       1.264990921707e-01       4.470629455803e+03 
       1.307513701078e-01       4.310267759858e+03 
       1.351402814485e-01       4.121390978226e+03 
       1.396714683894e-01       3.902070663138e+03 
       1.443506337875e-01       3.658641884535e+03 
       1.491835464900e-01       3.404485822815e+03 
       1.541760469368e-01       3.156668051679e+03 
       1.593340535209e-01       2.931980439964e+03 
       1.646635701934e-01       2.742377599877e+03 
       1.701706958081e-01       2.592252975483e+03 
       1.758616357070e-01       2.477242473323e+03 
       1.817427160581e-01       2.385187304017e+03 
       1.878204014651e-01       2.300359673164e+03 
       1.941013163855e-01       2.205763111462e+03 
       2.005922709060e-01       2.090813828560e+03 
       2.073002914514e-01       1.956462864140e+03 
       2.142326570343e-01       1.814194167598e+03 
       2.213969417044e-01       1.679296328028e+03 
       2.288010639201e-01       1.563847700502e+03 
       2.364533436625e-01       1.472686512966e+03 
       2.443625682390e-01       1.401514343830e+03 
       2.525380678946e-01       1.338416459304e+03 
       2.609898025770e-01       1.270899680488e+03 
       2.697284614969e-01       1.193381096874e+03 
       2.787655775073e-01       1.109338178637e+03 
       2.881136588192e-01       1.028770511812e+03 
       2.977863412019e-01       9.604831650538e+02 
       3.077985646248e-01       9.050251129809e+02 
       3.181667793367e-01       8.561470307891e+02 
       3.289091877084e-01       8.061887924643e+02 
       3.400460298905e-01       7.523911099578e+02 
       3.515999235695e-01       6.989247420349e+02 
       3.635962710278e-01       6.510634791356e+02 
       3.760637505499e-01       6.101235986324e+02 
       3.890349143014e-01       5.721338331764e+02 
       4.025469215929e-01       5.337831224579e+02 
       4.166424455447e-01       4.956320481545e+02 
       4.313708034899e-01       4.604710217244e+02 
       4.467893781976e-01       4.287793060079e+02 
       4.629654198623e-01       3.987736630025e+02 
       4.799783500912e-01       3.692419930548e+02 
       4.979227318246e-01       3.412400139901e+02 
       5.169121269689e-01       3.154845646639e+02 
       5.370841403262e-01       2.908355907099e+02 
       5.586070463286e-01       2.671073941412e+02 
       5.816885093582e-01       2.448098038846e+02 
       6.065870143577e-01       2.235686929995e+02 
       6.336266466978e-01       2.032109950031e+02 
       6.632156057925e-01       1.838787583678e+02 
       6.958678637575e-01       1.653547847707e+02 
       7.322247983784e-01       1.476960431641e+02 
       7.730680193171e-01       1.308340849194e+02 
       8.193049551574e-01       1.148312881515e+02 
       8.718988013754e-01       9.976301669994e+01 
       9.317218028590e-01       8.577821159625e+01 
       9.993660906273e-01       7.305501053283e+01 
       1.075037109879e+00       6.173626007867e+01 
       1.158653485387e+00       5.187959010170e+01 
       1.250099156961e+00       4.344053324400e+01 
       1.349432400897e+00       3.628962589051e+01 
       1.456947456991e+00       3.026806273655e+01 
       1.573135110893e+00       2.521482442652e+01 
       1.698621895119e+00       2.098210434935e+01 
       1.834127512423e+00       1.744244650027e+01 
       1.980444933977e+00       1.448575385282e+01 
       2.138435191130e+00       1.201902490529e+01 
       2.309029198543e+00       9.963209191505e+00 
       2.493232376993e+00       8.251869552820e+00 
       2.692130394536e+00       6.828674594051e+00 
       2.906895533764e+00       5.646286772162e+00 
       3.138793596840e+00       4.664935917769e+00 
       3.389191365541e+00       3.851122194410e+00 
       3.659564656886e+00       3.176956182467e+00 
       3.951507021438e+00       2.618899719928e+00 
       4.266739135513e+00       2.157351533073e+00 
       4.607118942658e+00       1.775948610099e+00 
       4.974652604172e+00       1.461003184629e+00 
       5.371506323193e+00       1.201139241518e+00 
       5.800019112071e+00       9.868852464000e-01 
       6.262716578240e+00       8.103580197256e-01 
       6.762325809881e+00       6.650126546602e-01 
       7.301791449077e+00       5.454302237247e-01 
       7.884293047211e+00       4.471016348598e-01 
       8.513263804891e+00       3.663013562302e-01 
       9.192410806865e+00       2.999421585674e-01 
       9.925736871166e+00       2.454841639926e-01 
       1.071756414128e+01       2.008088749322e-01 
       1.157255956041e+01       1.641854532694e-01 
       1.249576237789e+01       1.341782472164e-01 
       1.349261385000e+01       1.096024998491e-01 
       1.456898931011e+01       8.948944584566e-02 
       1.573123279727e+01       7.303518618102e-02 
       1.698619444729e+01       5.957844203434e-02 
       1.834127086665e+01       4.858135698675e-02 
       1.980444872733e+01       3.959696810287e-02 
       2.138435183937e+01       3.226126370957e-02 
       2.309029197863e+01       2.627366142442e-02 
       2.493232376942e+01       2.138854651779e-02 
       2.692130394533e+01       1.740491325891e-02 
       2.906895533764e+01       1.415745412931e-02 
       3.138793596840e+01       1.151146906321e-02 
       3.389191365541e+01       9.356132038570e-03 
       3.659564656886e+01       7.601312314226e-03 
       3.951507021438e+01       6.173081349050e-03 
       4.266739135513e+01       5.011163805181e-03 
       4.607118942658e+01       4.066203482218e-03 
       4.974652604172e+01       3.298027847052e-03 
       5.371506323193e+01       2.673722836042e-03 
       5.800019112071e+01       2.166583946530e-03 
       6.262716578240e+01       1.754756819633e-03 
       6.762325809881e+01       1.420479000477e-03 
