# Matter power spectrum P(k) at redshift z=0
# for k=1.04775e-05 to 66.1767 h/Mpc,
# number of wavenumbers equal to 130
#    1:k (h/Mpc)              2:P (Mpc/h)^3        
       1.047750691046e-05       5.020964811313e+01 
       1.319039970183e-05       6.270562594789e+01 
       1.660572937635e-05       7.831147247912e+01 
       2.090537469327e-05       9.780108069297e+01 
       2.631830744443e-05       1.221408203809e+02 
       3.313278603720e-05       1.525374501932e+02 
       4.171170630578e-05       1.904975994009e+02 
       5.251192703764e-05       2.379022224249e+02 
       6.610859936996e-05       2.970989227883e+02 
       8.322579568497e-05       3.710167318946e+02 
       1.047750691046e-04       4.633080766742e+02 
       1.319039970183e-04       5.785234129333e+02 
       1.660572937635e-04       7.223242666092e+02 
       2.090537469327e-04       9.017396271824e+02 
       2.631830744443e-04       1.125468123750e+03 
       3.313278603720e-04       1.404223053681e+03 
       4.171170630578e-04       1.751108028790e+03 
       5.251192703764e-04       2.181998448133e+03 
       6.610859936996e-04       2.715889983593e+03 
       8.322579568497e-04       3.375152337132e+03 
       1.047750691046e-03       4.185552174306e+03 
       1.319039970183e-03       5.175742743661e+03 
       1.660572937635e-03       6.376123051777e+03 
       2.090537469327e-03       7.815671868406e+03 
       2.631830744443e-03       9.517783069087e+03 
       3.313278603720e-03       1.149357460337e+04 
       4.171170630578e-03       1.373266010674e+04 
       5.251192703764e-03       1.619063614434e+04 
       6.610859936996e-03       1.877460413896e+04 
       8.322579568497e-03       2.132607231878e+04 
       1.047750691046e-02       2.360548779859e+04 
       1.319039970183e-02       2.528218682461e+04 
       1.660572937633e-02       2.595025511381e+04 
       2.090537453514e-02       2.520934889358e+04 
       2.631818545635e-02       2.287036274467e+04 
       3.311571692125e-02       1.928628434373e+04 
       4.113809243311e-02       1.568431270978e+04 
       4.792590854610e-02       1.361063010433e+04 
       5.284436902701e-02       1.259134713152e+04 
       5.689644391095e-02       1.195554806808e+04 
       6.051252627066e-02       1.147547704395e+04 
       6.388413457411e-02       1.105588095423e+04 
       6.711249296401e-02       1.064898026721e+04 
       7.025823437965e-02       1.022930076820e+04 
       7.336115587705e-02       9.784517815607e+03 
       7.644928796912e-02       9.311636710594e+03 
       7.954353299775e-02       8.814514225787e+03 
       8.266024078725e-02       8.302135439028e+03 
       8.581273398637e-02       7.786936195378e+03 
       8.901225918437e-02       7.283175559258e+03 
       9.226860540985e-02       6.805145090929e+03 
       9.559052048996e-02       6.365587016595e+03 
       9.898599946599e-02       5.974349238268e+03 
       1.024624891378e-01       5.637350564209e+03 
       1.060270359164e-01       5.355772548414e+03 
       1.096863943056e-01       5.126229404102e+03 
       1.134471073830e-01       4.940472511465e+03 
       1.173155669539e-01       4.786160048180e+03 
       1.212980586983e-01       4.647947342267e+03 
       1.254007961065e-01       4.509145764796e+03 
       1.296299459934e-01       4.354541682514e+03 
       1.339916477160e-01       4.173218116415e+03 
       1.384920277736e-01       3.961154935368e+03 
       1.431372111762e-01       3.722675591467e+03 
       1.479333307714e-01       3.469538966599e+03 
       1.528865355934e-01       3.218328827487e+03 
       1.580029992204e-01       2.986282961515e+03 
       1.632889290723e-01       2.786955053463e+03 
       1.687505775527e-01       2.626816558637e+03 
       1.743942559171e-01       2.503743491365e+03 
       1.802263517371e-01       2.407333054117e+03 
       1.862533508214e-01       2.322245127773e+03 
       1.924818644494e-01       2.231536550763e+03 
       1.989186627765e-01       2.122178013333e+03 
       2.055707152847e-01       1.992015939530e+03 
       2.124452391818e-01       1.850306637426e+03 
       2.195497567139e-01       1.712170086438e+03 
       2.268921624510e-01       1.590971360088e+03 
       2.344808017550e-01       1.493653458050e+03 
       2.423245618548e-01       1.418297692293e+03 
       2.504329772620e-01       1.354452108509e+03 
       2.588163516754e-01       1.288916675077e+03 
       2.674858990930e-01       1.213919975820e+03 
       2.764539076010e-01       1.130669583288e+03 
       2.857339303080e-01       1.048081741844e+03 
       2.953410092148e-01       9.761647703642e+02 
       3.052919395542e-01       9.177911019702e+02 
       3.156055844677e-01       8.678764501532e+02 
       3.263032530092e-01       8.185060570824e+02 
       3.374091587054e-01       7.651259015741e+02 
       3.489509817175e-01       7.106466411496e+02 
       3.609605657343e-01       6.607652111289e+02 
       3.734747921333e-01       6.180645461963e+02 
       3.865366902904e-01       5.792884954180e+02 
       4.001968667448e-01       5.403670937692e+02 
       4.145153713076e-01       5.011271872706e+02 
       4.295641718077e-01       4.644739196971e+02 
       4.454304922144e-01       4.313830283572e+02 
       4.622214006969e-01       4.000878291102e+02 
       4.800702491654e-01       3.690632738455e+02 
       4.991459272112e-01       3.394492358228e+02 
       5.196665217302e-01       3.119570982667e+02 
       5.419201087032e-01       2.852186635699e+02 
       5.662975451962e-01       2.593019163840e+02 
       5.933463737275e-01       2.345186491006e+02 
       6.238638458458e-01       2.101996538163e+02 
       6.590669257916e-01       1.864028163672e+02 
       7.009246080454e-01       1.626936289363e+02 
       7.528593308799e-01       1.387854783509e+02 
       8.213469537518e-01       1.141536350642e+02 
       9.196980813302e-01       8.832310537959e+01 
       1.075112183810e+00       6.168824649993e+01 
       1.322697471132e+00       3.800210606416e+01 
       1.662328205042e+00       2.205480970413e+01 
       2.092692408506e+00       1.262359537070e+01 
       2.634543445090e+00       7.155659103794e+00 
       3.316693691389e+00       4.015724109311e+00 
       4.175469971226e+00       2.227985888523e+00 
       5.256605252960e+00       1.218118241782e+00 
       6.617673932723e+00       6.521574761799e-01 
       8.331157880872e+00       3.379088158275e-01 
       1.048830636590e+01       1.658475721166e-01 
       1.320399541071e+01       7.412495528631e-02 
       1.662284535976e+01       2.793375225885e-02 
       2.092692243973e+01       7.437036938522e-03 
       2.634543445002e+01       7.349961583863e-04 
       3.316693691389e+01       1.101372364255e-04 
       4.175469971226e+01       7.075825364565e-04 
       5.256605252960e+01       5.786177339042e-04 
       6.617673932723e+01       1.196127020884e-04 
