# Matter power spectrum P(k) at redshift z=0
# for k=1.04775e-05 to 67.6233 h/Mpc,
# number of wavenumbers equal to 246
#    1:k (h/Mpc)              2:P (Mpc/h)^3        
       1.047750691046e-05       5.020964811308e+01 
       1.131335172503e-05       5.407050701927e+01 
       1.221587619537e-05       5.822819068563e+01 
       1.319039970183e-05       6.270562594779e+01 
       1.424266597921e-05       6.752732240880e+01 
       1.537887696968e-05       7.271977206173e+01 
       1.660572937635e-05       7.831147247912e+01 
       1.793045413292e-05       8.433311821988e+01 
       1.936085902198e-05       9.081778249833e+01 
       2.090537469327e-05       9.780108069296e+01 
       2.257310435294e-05       1.053213197893e+02 
       2.437387741694e-05       1.134197377890e+02 
       2.631830744443e-05       1.221408203809e+02 
       2.841785469300e-05       1.315324642463e+02 
       3.068489366414e-05       1.416462094881e+02 
       3.313278603720e-05       1.525374501932e+02 
       3.577595942169e-05       1.642660688414e+02 
       3.862999239199e-05       1.768963506307e+02 
       4.171170630578e-05       1.904975994009e+02 
       4.503926444729e-05       2.051444491973e+02 
       4.863227907969e-05       2.209171465549e+02 
       5.251192703764e-05       2.379022224249e+02 
       5.670107454120e-05       2.561927927993e+02 
       6.122441196689e-05       2.758890444040e+02 
       6.610859936996e-05       2.970989227882e+02 
       7.138242361596e-05       3.199385560802e+02 
       7.707696804727e-05       3.445329783680e+02 
       8.322579568497e-05       3.710167318945e+02 
       8.986514704559e-05       3.995346444203e+02 
       9.703415373875e-05       4.302425407383e+02 
       1.047750691046e-04       4.633080766742e+02 
       1.131335172503e-04       4.989116271565e+02 
       1.221587619537e-04       5.372471950929e+02 
       1.319039970183e-04       5.785234129338e+02 
       1.424266597921e-04       6.229645934871e+02 
       1.537887696968e-04       6.708118490405e+02 
       1.660572937635e-04       7.223242666092e+02 
       1.793045413292e-04       7.777801559274e+02 
       1.936085902198e-04       8.374783614141e+02 
       2.090537469327e-04       9.017396271824e+02 
       2.257310435294e-04       9.709080268041e+02 
       2.437387741694e-04       1.045352449493e+03 
       2.631830744443e-04       1.125468123750e+03 
       2.841785469300e-04       1.211678180495e+03 
       3.068489366414e-04       1.304435250150e+03 
       3.313278603720e-04       1.404223053681e+03 
       3.577595942169e-04       1.511558014616e+03 
       3.862999239199e-04       1.626990837812e+03 
       4.171170630578e-04       1.751108028790e+03 
       4.503926444729e-04       1.884533382872e+03 
       4.863227907969e-04       2.027929378112e+03 
       5.251192703764e-04       2.181998448133e+03 
       5.670107454121e-04       2.347484102755e+03 
       6.122441196689e-04       2.525171871364e+03 
       6.610859936996e-04       2.715889983591e+03 
       7.138242361596e-04       2.920509688380e+03 
       7.707696804727e-04       3.139945100278e+03 
       8.322579568497e-04       3.375152337588e+03 
       8.986514704559e-04       3.627127831139e+03 
       9.703415373875e-04       3.896905453134e+03 
       1.047750691046e-03       4.185552174308e+03 
       1.131335172503e-03       4.494162430371e+03 
       1.221587619537e-03       4.823850706485e+03 
       1.319039970183e-03       5.175742743964e+03 
       1.424266597921e-03       5.551019596900e+03 
       1.537887696968e-03       5.950788340552e+03 
       1.660572937635e-03       6.376123051783e+03 
       1.793045413292e-03       6.828073901450e+03 
       1.936085902198e-03       7.307625381053e+03 
       2.090537469327e-03       7.815671868417e+03 
       2.257310435294e-03       8.352990375805e+03 
       2.437387741694e-03       8.920211064342e+03 
       2.631830744443e-03       9.517783069078e+03 
       2.841785469300e-03       1.014593704431e+04 
       3.068489366414e-03       1.080464502780e+04 
       3.313278603720e-03       1.149357460371e+04 
       3.577595942169e-03       1.221203621713e+04 
       3.862999239199e-03       1.295892539435e+04 
       4.171170630578e-03       1.373266008367e+04 
       4.503926444729e-03       1.453111835607e+04 
       4.863227907969e-03       1.535154984678e+04 
       5.251192703764e-03       1.619063610877e+04 
       5.670107454120e-03       1.704431257559e+04 
       6.122441196689e-03       1.790755941782e+04 
       6.610859936996e-03       1.877460419634e+04 
       7.138242361596e-03       1.963872437375e+04 
       7.707696804727e-03       2.049215713411e+04 
       8.322579568496e-03       2.132607261003e+04 
       8.986514704559e-03       2.213055039168e+04 
       9.703415373875e-03       2.289445499707e+04 
       1.047750691046e-02       2.360548689869e+04 
       1.131335172503e-02       2.425023053256e+04 
       1.221587619537e-02       2.481423794571e+04 
       1.319039970183e-02       2.528218708959e+04 
       1.424266597920e-02       2.563814536607e+04 
       1.537887696964e-02       2.586607924562e+04 
       1.660572937560e-02       2.595026294944e+04 
       1.793045412207e-02       2.587636798408e+04 
       1.936085889642e-02       2.563220229926e+04 
       2.090537351881e-02       2.520933799907e+04 
       2.257309534705e-02       2.460446559660e+04 
       2.437382002240e-02       2.382086036505e+04 
       2.631799943729e-02       2.287040757088e+04 
       2.841644544598e-02       2.177450021803e+04 
       3.067933354524e-02       2.056551880056e+04 
       3.311368469821e-02       1.928725480933e+04 
       3.571840442514e-02       1.799399095897e+04 
       3.847720347390e-02       1.674685834350e+04 
       4.135335537314e-02       1.560461561908e+04 
       4.429361666563e-02       1.461037381464e+04 
       4.724366437916e-02       1.378055139045e+04 
       5.016480834039e-02       1.310500571467e+04 
       5.303989618930e-02       1.255716470841e+04 
       5.586870668205e-02       1.210426146803e+04 
       5.866042679206e-02       1.171470979048e+04 
       6.142798931504e-02       1.136053632321e+04 
       6.418496438662e-02       1.101859854371e+04 
       6.694418832236e-02       1.067070442256e+04 
       6.971731104453e-02       1.030364036553e+04 
       7.251476154108e-02       9.909059791003e+03 
       7.534587669814e-02       9.483753077976e+03 
       7.821907664495e-02       9.029496543900e+03 
       8.114203771084e-02       8.552343749370e+03 
       8.412184533139e-02       8.061999359360e+03 
       8.716512277352e-02       7.570777815675e+03 
       9.027813693913e-02       7.092498193172e+03 
       9.346688429613e-02       6.640529337813e+03 
       9.673716026122e-02       6.226736637391e+03 
       1.000946150608e-01       5.859991196347e+03 
       1.035447986307e-01       5.545299802627e+03 
       1.070931966524e-01       5.283156884929e+03 
       1.107452594180e-01       5.069435891153e+03 
       1.145064248899e-01       4.895254620865e+03 
       1.183821370656e-01       4.747854396481e+03 
       1.223778605591e-01       4.611754032110e+03 
       1.264990921707e-01       4.470622541713e+03 
       1.307513701078e-01       4.310281850610e+03 
       1.351402814485e-01       4.121353255512e+03 
       1.396714683894e-01       3.901996475698e+03 
       1.443506337875e-01       3.658664235694e+03 
       1.491835464900e-01       3.404479247848e+03 
       1.541760469368e-01       3.156661584110e+03 
       1.593340535209e-01       2.931932708623e+03 
       1.646635701934e-01       2.742358201222e+03 
       1.701706958081e-01       2.592238381437e+03 
       1.758616357070e-01       2.477219340513e+03 
       1.817427160581e-01       2.385164975521e+03 
       1.878204014651e-01       2.300353733512e+03 
       1.941013163855e-01       2.205775654254e+03 
       2.005922709060e-01       2.090837634018e+03 
       2.073002914514e-01       1.956466815413e+03 
       2.142326570343e-01       1.814173482916e+03 
       2.213969417044e-01       1.679270146026e+03 
       2.288010639201e-01       1.563838678822e+03 
       2.364533436625e-01       1.472667714413e+03 
       2.443625682390e-01       1.401505705916e+03 
       2.525380678946e-01       1.338420116432e+03 
       2.609898025770e-01       1.270903183197e+03 
       2.697284614969e-01       1.193356810958e+03 
       2.787655775073e-01       1.109332110645e+03 
       2.881136588192e-01       1.028763419398e+03 
       2.977863412019e-01       9.604736959884e+02 
       3.077985646248e-01       9.050180895021e+02 
       3.181667793367e-01       8.561342684321e+02 
       3.289091877084e-01       8.061804578048e+02 
       3.400460298905e-01       7.523830819722e+02 
       3.515999235695e-01       6.989146502615e+02 
       3.635962710278e-01       6.510587183239e+02 
       3.760637505499e-01       6.101197626530e+02 
       3.890349143014e-01       5.721282126362e+02 
       4.025469215929e-01       5.337757746292e+02 
       4.166424455447e-01       4.956244446094e+02 
       4.313708034899e-01       4.604645588731e+02 
       4.467893781976e-01       4.287710272646e+02 
       4.629654198623e-01       3.987693838890e+02 
       4.799783500912e-01       3.692356800993e+02 
       4.979227318246e-01       3.412366485135e+02 
       5.169121269689e-01       3.154777361140e+02 
       5.370841403262e-01       2.908306459684e+02 
       5.586070463286e-01       2.671022685941e+02 
       5.816885093582e-01       2.448056293322e+02 
       6.065870143577e-01       2.235659437531e+02 
       6.336266466978e-01       2.032088705172e+02 
       6.632156057925e-01       1.838769586116e+02 
       6.958678637575e-01       1.653534754452e+02 
       7.322247983784e-01       1.476946466253e+02 
       7.730680193171e-01       1.308332912194e+02 
       8.193049551574e-01       1.148309158898e+02 
       8.718988013754e-01       9.976187522567e+01 
       9.317218028590e-01       8.577696673995e+01 
       9.993660906273e-01       7.305385983395e+01 
       1.075037109879e+00       6.173521409370e+01 
       1.158653485387e+00       5.187850009035e+01 
       1.250099156961e+00       4.343948555760e+01 
       1.349432400897e+00       3.628855060793e+01 
       1.456947456991e+00       3.026726744253e+01 
       1.573135110893e+00       2.521395985282e+01 
       1.698621895119e+00       2.098155219904e+01 
       1.834127512423e+00       1.744185828067e+01 
       1.980444933977e+00       1.448517335754e+01 
       2.138435191130e+00       1.201843146202e+01 
       2.309029198543e+00       9.962703364167e+00 
       2.493232376993e+00       8.251337403255e+00 
       2.692130394536e+00       6.828064243015e+00 
       2.906895533764e+00       5.645786833895e+00 
       3.138793596840e+00       4.664384834270e+00 
       3.389191365541e+00       3.850669618752e+00 
       3.659564656886e+00       3.176502683913e+00 
       3.951507021438e+00       2.618444014315e+00 
       4.266739135513e+00       2.156904505705e+00 
       4.607118942658e+00       1.775509663119e+00 
       4.974652604172e+00       1.460578871783e+00 
       5.371506323193e+00       1.200717297637e+00 
       5.800019112071e+00       9.864794530822e-01 
       6.262716578240e+00       8.099638708185e-01 
       6.762325809881e+00       6.646214523056e-01 
       7.301791449077e+00       5.450510437550e-01 
       7.884293047211e+00       4.467282543990e-01 
       8.513263804891e+00       3.659381294019e-01 
       9.192410806865e+00       2.995886780877e-01 
       9.925736871166e+00       2.451372402965e-01 
       1.071756414128e+01       2.004723097151e-01 
       1.157255956041e+01       1.638573781489e-01 
       1.249576237789e+01       1.338577192793e-01 
       1.349261385000e+01       1.092921141748e-01 
       1.456898931011e+01       8.918628331802e-02 
       1.573123279727e+01       7.273950383390e-02 
       1.698619444729e+01       5.929220183951e-02 
       1.834127086665e+01       4.830260880327e-02 
       1.980444872733e+01       3.932737565622e-02 
       2.138435183937e+01       3.199920158788e-02 
       2.309029197863e+01       2.601963991210e-02 
       2.493232376942e+01       2.114248944916e-02 
       2.692130394533e+01       1.716659196960e-02 
       2.906895533764e+01       1.392697075827e-02 
       3.138793596840e+01       1.128861718951e-02 
       3.389191365541e+01       9.140992630513e-03 
       3.659564656886e+01       7.393684856286e-03 
       3.951507021438e+01       5.972989397196e-03 
       4.266739135513e+01       4.818432959264e-03 
       4.607118942658e+01       3.880781205240e-03 
       4.974652604172e+01       3.119845494827e-03 
       5.371506323193e+01       2.502758984442e-03 
       5.800019112071e+01       2.002734421719e-03 
       6.262716578240e+01       1.597954528740e-03 
       6.762325809881e+01       1.270734903498e-03 
