# Matter power spectrum P(k) at redshift z=0
# for k=1.04775e-05 to 66.1767 h/Mpc,
# number of wavenumbers equal to 130
#    1:k (h/Mpc)              2:P (Mpc/h)^3        
       1.047750691046e-05       5.020964811307e+01 
       1.319039970183e-05       6.270562594786e+01 
       1.660572937635e-05       7.831147247912e+01 
       2.090537469327e-05       9.780108069295e+01 
       2.631830744443e-05       1.221408203809e+02 
       3.313278603720e-05       1.525374501932e+02 
       4.171170630578e-05       1.904975994009e+02 
       5.251192703764e-05       2.379022224249e+02 
       6.610859936996e-05       2.970989227881e+02 
       8.322579568497e-05       3.710167318946e+02 
       1.047750691046e-04       4.633080766742e+02 
       1.319039970183e-04       5.785234129336e+02 
       1.660572937635e-04       7.223242666092e+02 
       2.090537469327e-04       9.017396271824e+02 
       2.631830744443e-04       1.125468123750e+03 
       3.313278603720e-04       1.404223053681e+03 
       4.171170630578e-04       1.751108028790e+03 
       5.251192703764e-04       2.181998448133e+03 
       6.610859936996e-04       2.715889983591e+03 
       8.322579568497e-04       3.375152337134e+03 
       1.047750691046e-03       4.185552174301e+03 
       1.319039970183e-03       5.175742738984e+03 
       1.660572937635e-03       6.376123051777e+03 
       2.090537469327e-03       7.815671861990e+03 
       2.631830744443e-03       9.517783069109e+03 
       3.313278603720e-03       1.149357460340e+04 
       4.171170630578e-03       1.373266013245e+04 
       5.251192703764e-03       1.619063614135e+04 
       6.610859936996e-03       1.877460416174e+04 
       8.322579568497e-03       2.132607235251e+04 
       1.047750691046e-02       2.360548803844e+04 
       1.319039970183e-02       2.528218700048e+04 
       1.660572937633e-02       2.595028483231e+04 
       2.090537453514e-02       2.520936243139e+04 
       2.631818545635e-02       2.287038191368e+04 
       3.311571692125e-02       1.928629147776e+04 
       4.113809243311e-02       1.568428472936e+04 
       4.792590854610e-02       1.361066389347e+04 
       5.284436902701e-02       1.259131148746e+04 
       5.689644391095e-02       1.195553772263e+04 
       6.051252627066e-02       1.147548210933e+04 
       6.388413457411e-02       1.105594103451e+04 
       6.711249296401e-02       1.064905152846e+04 
       7.025823437965e-02       1.022932601399e+04 
       7.336115587705e-02       9.784538303934e+03 
       7.644928796912e-02       9.311703487451e+03 
       7.954353299775e-02       8.814589355272e+03 
       8.266024078725e-02       8.302202585641e+03 
       8.581273398637e-02       7.786985752125e+03 
       8.901225918437e-02       7.283237895174e+03 
       9.226860540985e-02       6.805189551718e+03 
       9.559052048996e-02       6.365669664943e+03 
       9.898599946599e-02       5.974402809400e+03 
       1.024624891378e-01       5.637406015312e+03 
       1.060270359164e-01       5.355797602060e+03 
       1.096863943056e-01       5.126261123679e+03 
       1.134471073830e-01       4.940507090600e+03 
       1.173155669539e-01       4.786183898604e+03 
       1.212980586983e-01       4.647959257742e+03 
       1.254007961065e-01       4.509170517460e+03 
       1.296299459934e-01       4.354563711019e+03 
       1.339916477160e-01       4.173230437726e+03 
       1.384920277736e-01       3.961188273175e+03 
       1.431372111762e-01       3.722694811126e+03 
       1.479333307714e-01       3.469557169152e+03 
       1.528865355934e-01       3.218345745519e+03 
       1.580029992204e-01       2.986264859781e+03 
       1.632889290723e-01       2.786964096521e+03 
       1.687505775527e-01       2.626815365778e+03 
       1.743942559171e-01       2.503777323189e+03 
       1.802263517371e-01       2.407317818410e+03 
       1.862533508214e-01       2.322235338656e+03 
       1.924818644494e-01       2.231521499154e+03 
       1.989186627765e-01       2.122175490259e+03 
       2.055707152847e-01       1.992011379596e+03 
       2.124452391818e-01       1.850316908535e+03 
       2.195497567139e-01       1.712159251092e+03 
       2.268921624510e-01       1.590974868807e+03 
       2.344808017550e-01       1.493657135612e+03 
       2.423245618548e-01       1.418308889215e+03 
       2.504329772620e-01       1.354455189375e+03 
       2.588163516754e-01       1.288939188857e+03 
       2.674858990930e-01       1.213931291946e+03 
       2.764539076010e-01       1.130692421319e+03 
       2.857339303080e-01       1.048090791398e+03 
       2.953410092148e-01       9.761711504782e+02 
       3.052919395542e-01       9.177982357673e+02 
       3.156055844677e-01       8.678839247329e+02 
       3.263032530092e-01       8.185182140002e+02 
       3.374091587054e-01       7.651357859407e+02 
       3.489509817175e-01       7.106672566028e+02 
       3.609605657343e-01       6.607802768517e+02 
       3.734747921333e-01       6.180799117188e+02 
       3.865366902904e-01       5.793012356098e+02 
       4.001968667448e-01       5.403833634953e+02 
       4.145153713076e-01       5.011464359113e+02 
       4.295641718077e-01       4.644971566198e+02 
       4.454304922144e-01       4.314005712069e+02 
       4.622214006969e-01       4.001096793813e+02 
       4.800702491654e-01       3.690843423169e+02 
       4.991459272112e-01       3.394701820138e+02 
       5.196665217302e-01       3.119803886455e+02 
       5.419201087032e-01       2.852422933720e+02 
       5.662975451962e-01       2.593270598658e+02 
       5.933463737275e-01       2.345436460374e+02 
       6.238638458458e-01       2.102289284861e+02 
       6.590669257916e-01       1.864318262443e+02 
       7.009246080454e-01       1.627238451295e+02 
       7.528593308799e-01       1.388170650562e+02 
       8.213469537518e-01       1.141880544747e+02 
       9.196980813302e-01       8.835858713329e+01 
       1.075112183810e+00       6.172548307577e+01 
       1.322697471132e+00       3.804275681381e+01 
       1.662328205042e+00       2.209781290910e+01 
       2.092692408506e+00       1.266901043829e+01 
       2.634543445090e+00       7.203205313140e+00 
       3.316693691389e+00       4.065056107813e+00 
       4.175469971226e+00       2.278554354226e+00 
       5.256605252960e+00       1.269289654222e+00 
       6.617673932723e+00       7.030857565687e-01 
       8.331157880872e+00       3.874350653414e-01 
       1.048830636590e+01       2.124708569994e-01 
       1.320399541071e+01       1.159997270351e-01 
       1.662284535976e+01       6.306528964473e-02 
       2.092692243973e+01       3.414889990329e-02 
       2.634543445002e+01       1.841810933856e-02 
       3.316693691389e+01       9.893823006169e-03 
       4.175469971226e+01       5.291793092722e-03 
       5.256605252960e+01       2.816203847257e-03 
       6.617673932723e+01       1.489428415173e-03 
