# Matter power spectrum P(k) at redshift z=99
# for k=1.04775e-05 to 67.6233 h/Mpc,
# number of wavenumbers equal to 246
#    1:k (h/Mpc)              2:P (Mpc/h)^3        
       1.047750691046e-05       7.261927680864e-03 
       1.131335172503e-05       7.820331652434e-03 
       1.221587619537e-05       8.421675995457e-03 
       1.319039970183e-05       9.069258201852e-03 
       1.424266597921e-05       9.766638412136e-03 
       1.537887696968e-05       1.051764070801e-02 
       1.660572937635e-05       1.132639106726e-02 
       1.793045413292e-05       1.219733232715e-02 
       1.936085902198e-05       1.313524225779e-02 
       2.090537469327e-05       1.414527123400e-02 
       2.257310435294e-05       1.523296273824e-02 
       2.437387741694e-05       1.640429446289e-02 
       2.631830744443e-05       1.766569584059e-02 
       2.841785469300e-05       1.902408737006e-02 
       3.068489366414e-05       2.048692972773e-02 
       3.313278603720e-05       2.206225515943e-02 
       3.577595942169e-05       2.375870707439e-02 
       3.862999239199e-05       2.558560730203e-02 
       4.171170630578e-05       2.755297766278e-02 
       4.503926444729e-05       2.967161930475e-02 
       4.863227907969e-05       3.195316454234e-02 
       5.251192703764e-05       3.441013522948e-02 
       5.670107454120e-05       3.705601726468e-02 
       6.122441196689e-05       3.990533417797e-02 
       6.610859936996e-05       4.297372172779e-02 
       7.138242361596e-05       4.627802146616e-02 
       7.707696804727e-05       4.983636199466e-02 
       8.322579568497e-05       5.366826852946e-02 
       8.986514704559e-05       5.779476400722e-02 
       9.703415373875e-05       6.223848250512e-02 
       1.047750691046e-04       6.702379872777e-02 
       1.131335172503e-04       7.217695161066e-02 
       1.221587619537e-04       7.772619081846e-02 
       1.319039970183e-04       8.370193441289e-02 
       1.424266597921e-04       9.013692517145e-02 
       1.537887696968e-04       9.706641252906e-02 
       1.660572937635e-04       1.045283355384e-01 
       1.793045413292e-04       1.125635350267e-01 
       1.936085902198e-04       1.212159616259e-01 
       2.090537469327e-04       1.305329134104e-01 
       2.257310435294e-04       1.405652847711e-01 
       2.437387741694e-04       1.513678304152e-01 
       2.631830744443e-04       1.629994506606e-01 
       2.841785469300e-04       1.755234923093e-01 
       3.068489366414e-04       1.890080672425e-01 
       3.313278603720e-04       2.035264004602e-01 
       3.577595942169e-04       2.191571806014e-01 
       3.862999239199e-04       2.359849440105e-01 
       4.171170630578e-04       2.541004744243e-01 
       4.503926444729e-04       2.736012083189e-01 
       4.863227907969e-04       2.945916794100e-01 
       5.251192703764e-04       3.171839528558e-01 
       5.670107454121e-04       3.414980767636e-01 
       6.122441196689e-04       3.676625417013e-01 
       6.610859936996e-04       3.958147256514e-01 
       7.138242361596e-04       4.261013289366e-01 
       7.707696804727e-04       4.586787797354e-01 
       8.322579568497e-04       4.937136006291e-01 
       8.986514704559e-04       5.313826807050e-01 
       9.703415373875e-04       5.718734978235e-01 
       1.047750691046e-03       6.153841636043e-01 
       1.131335172503e-03       6.621233246496e-01 
       1.221587619537e-03       7.123098227992e-01 
       1.319039970183e-03       7.661720592616e-01 
       1.424266597921e-03       8.239546306457e-01 
       1.537887696968e-03       8.859011182851e-01 
       1.660572937635e-03       9.522588016420e-01 
       1.793045413292e-03       1.023280100901e+00 
       1.936085902198e-03       1.099216305740e+00 
       2.090537469327e-03       1.180312991700e+00 
       2.257310435294e-03       1.266804117184e+00 
       2.437387741694e-03       1.358904854834e+00 
       2.631830744443e-03       1.456802684684e+00 
       2.841785469300e-03       1.560646892155e+00 
       3.068489366414e-03       1.670536064241e+00 
       3.313278603720e-03       1.786503854043e+00 
       3.577595942169e-03       1.908502932767e+00 
       3.862999239199e-03       2.036387732810e+00 
       4.171170630578e-03       2.169896192483e+00 
       4.503926444729e-03       2.308631881349e+00 
       4.863227907969e-03       2.452047293447e+00 
       5.251192703764e-03       2.599430630706e+00 
       5.670107454120e-03       2.749896934515e+00 
       6.122441196689e-03       2.902386516249e+00 
       6.610859936996e-03       3.055668716261e+00 
       7.138242361596e-03       3.208356464619e+00 
       7.707696804727e-03       3.358923896107e+00 
       8.322579568496e-03       3.505725598687e+00 
       8.986514704559e-03       3.647009662997e+00 
       9.703415373875e-03       3.780923307687e+00 
       1.047750691046e-02       3.905490615795e+00 
       1.131335172503e-02       4.018586132136e+00 
       1.221587619537e-02       4.117901586425e+00 
       1.319039970183e-02       4.200915352592e+00 
       1.424266597920e-02       4.264943485237e+00 
       1.537887696964e-02       4.307218025315e+00 
       1.660572937560e-02       4.325060756969e+00 
       1.793045412207e-02       4.316056493962e+00 
       1.936085889642e-02       4.278228757155e+00 
       2.090537351881e-02       4.210202627793e+00 
       2.257309534705e-02       4.111417003956e+00 
       2.437382002240e-02       3.982417700862e+00 
       2.631799943729e-02       3.825170058006e+00 
       2.841644544598e-02       3.643283915365e+00 
       3.067933354524e-02       3.442204532444e+00 
       3.311368469821e-02       3.229239415578e+00 
       3.571840442514e-02       3.013514429993e+00 
       3.847720347390e-02       2.805276478326e+00 
       4.135335537314e-02       2.614416122417e+00 
       4.429361666563e-02       2.448132890310e+00 
       4.724366437916e-02       2.309238487438e+00 
       5.016480834039e-02       2.196110458709e+00 
       5.303989618930e-02       2.104365267121e+00 
       5.586870668205e-02       2.028458793725e+00 
       5.866042679206e-02       1.963156782331e+00 
       6.142798931504e-02       1.903788336629e+00 
       6.418496438662e-02       1.846478918843e+00 
       6.694418832236e-02       1.788198753688e+00 
       6.971731104453e-02       1.726716635352e+00 
       7.251476154108e-02       1.660651509932e+00 
       7.534587669814e-02       1.589471341478e+00 
       7.821907664495e-02       1.513437289967e+00 
       8.114203771084e-02       1.433571212954e+00 
       8.412184533139e-02       1.351490591359e+00 
       8.716512277352e-02       1.269273446984e+00 
       9.027813693913e-02       1.189193382941e+00 
       9.346688429613e-02       1.113498946769e+00 
       9.673716026122e-02       1.044173521113e+00 
       1.000946150608e-01       9.827072134124e-01 
       1.035447986307e-01       9.299374645688e-01 
       1.070931966524e-01       8.859594154415e-01 
       1.107452594180e-01       8.500712996397e-01 
       1.145064248899e-01       8.208042372897e-01 
       1.183821370656e-01       7.960249278772e-01 
       1.223778605591e-01       7.731473052087e-01 
       1.264990921707e-01       7.494503346320e-01 
       1.307513701078e-01       7.225568849668e-01 
       1.351402814485e-01       6.909076013501e-01 
       1.396714683894e-01       6.541793464043e-01 
       1.443506337875e-01       6.134248949236e-01 
       1.491835464900e-01       5.708674695111e-01 
       1.541760469368e-01       5.293650599857e-01 
       1.593340535209e-01       4.917109500514e-01 
       1.646635701934e-01       4.599193476579e-01 
       1.701706958081e-01       4.347274283272e-01 
       1.758616357070e-01       4.154075141404e-01 
       1.817427160581e-01       3.999356385145e-01 
       1.878204014651e-01       3.856852409678e-01 
       1.941013163855e-01       3.698108553782e-01 
       2.005922709060e-01       3.505486253704e-01 
       2.073002914514e-01       3.280467372597e-01 
       2.142326570343e-01       3.042143672798e-01 
       2.213969417044e-01       2.816115467299e-01 
       2.288010639201e-01       2.622570349915e-01 
       2.364533436625e-01       2.469611818195e-01 
       2.443625682390e-01       2.350131021006e-01 
       2.525380678946e-01       2.244204658460e-01 
       2.609898025770e-01       2.130954087652e-01 
       2.697284614969e-01       2.001018445937e-01 
       2.787655775073e-01       1.860195427405e-01 
       2.881136588192e-01       1.725171637040e-01 
       2.977863412019e-01       1.610659434835e-01 
       3.077985646248e-01       1.517612012669e-01 
       3.181667793367e-01       1.435586548378e-01 
       3.289091877084e-01       1.351818650562e-01 
       3.400460298905e-01       1.261642830938e-01 
       3.515999235695e-01       1.172018380959e-01 
       3.635962710278e-01       1.091768400168e-01 
       3.760637505499e-01       1.023092608872e-01 
       3.890349143014e-01       9.593738108662e-02 
       4.025469215929e-01       8.950740290687e-02 
       4.166424455447e-01       8.311181597464e-02 
       4.313708034899e-01       7.721540562446e-02 
       4.467893781976e-01       7.190045065707e-02 
       4.629654198623e-01       6.686891035720e-02 
       4.799783500912e-01       6.191746948440e-02 
       4.979227318246e-01       5.722215134119e-02 
       5.169121269689e-01       5.290290077164e-02 
       5.370841403262e-01       4.876963591674e-02 
       5.586070463286e-01       4.479076137385e-02 
       5.816885093582e-01       4.105185228354e-02 
       6.065870143577e-01       3.748979726757e-02 
       6.336266466978e-01       3.407629539564e-02 
       6.632156057925e-01       3.083461291738e-02 
       6.958678637575e-01       2.772823227974e-02 
       7.322247983784e-01       2.476705771370e-02 
       7.730680193171e-01       2.193955492639e-02 
       8.193049551574e-01       1.925613139003e-02 
       8.718988013754e-01       1.672919441858e-02 
       9.317218028590e-01       1.438416065294e-02 
       9.993660906273e-01       1.225062890334e-02 
       1.075037109879e+00       1.035258674654e-02 
       1.158653485387e+00       8.699677360973e-03 
       1.250099156961e+00       7.284553166730e-03 
       1.349432400897e+00       6.085422249041e-03 
       1.456947456991e+00       5.075676915372e-03 
       1.573135110893e+00       4.228287349010e-03 
       1.698621895119e+00       3.518507206776e-03 
       1.834127512423e+00       2.924953864058e-03 
       1.980444933977e+00       2.429125851835e-03 
       2.138435191130e+00       2.015480150411e-03 
       2.309029198543e+00       1.670743746916e-03 
       2.493232376993e+00       1.383762515512e-03 
       2.692130394536e+00       1.145095654288e-03 
       2.906895533764e+00       9.468253456971e-04 
       3.138793596840e+00       7.822616041324e-04 
       3.389191365541e+00       6.457946189871e-04 
       3.659564656886e+00       5.327391377862e-04 
       3.951507021438e+00       4.391596080072e-04 
       4.266739135513e+00       3.617599609005e-04 
       4.607118942658e+00       2.978005546521e-04 
       4.974652604172e+00       2.449860420790e-04 
       5.371506323193e+00       2.014094661326e-04 
       5.800019112071e+00       1.654801073056e-04 
       6.262716578240e+00       1.358765251113e-04 
       6.762325809881e+00       1.115039540274e-04 
       7.301791449077e+00       9.145006307515e-05 
       7.884293047211e+00       7.496160845593e-05 
       8.513263804891e+00       6.141163011674e-05 
       9.192410806865e+00       5.028395875988e-05 
       9.925736871166e+00       4.115127359616e-05 
       1.071756414128e+01       3.365999103745e-05 
       1.157255956041e+01       2.751880191965e-05 
       1.249576237789e+01       2.248677884411e-05 
       1.349261385000e+01       1.836593141191e-05 
       1.456898931011e+01       1.499301919114e-05 
       1.573123279727e+01       1.223387389519e-05 
       1.698619444729e+01       9.977691809152e-06 
       1.834127086665e+01       8.133563448499e-06 
       1.980444872733e+01       6.627204490497e-06 
       2.138435183937e+01       5.397191740867e-06 
       2.309029197863e+01       4.393306787343e-06 
       2.493232376942e+01       3.574340702768e-06 
       2.692130394533e+01       2.906501349452e-06 
       2.906895533764e+01       2.362112046038e-06 
       3.138793596840e+01       1.918578274508e-06 
       3.389191365541e+01       1.557357743005e-06 
       3.659564656886e+01       1.263276599060e-06 
       3.951507021438e+01       1.023966523664e-06 
       4.266739135513e+01       8.293129440661e-07 
       4.607118942658e+01       6.710321935530e-07 
       4.974652604172e+01       5.423890072589e-07 
       5.371506323193e+01       4.378671897691e-07 
       5.800019112071e+01       3.529904419050e-07 
       6.262716578240e+01       2.840906183146e-07 
       6.762325809881e+01       2.281889071693e-07 
