# Matter power spectrum P(k) at redshift z=0
# for k=1.04775e-05 to 66.1767 h/Mpc,
# number of wavenumbers equal to 130
#    1:k (h/Mpc)              2:P (Mpc/h)^3        
       1.047750691046e-05       5.020964811308e+01 
       1.319039970183e-05       6.270562594770e+01 
       1.660572937635e-05       7.831147247912e+01 
       2.090537469327e-05       9.780108069295e+01 
       2.631830744443e-05       1.221408203809e+02 
       3.313278603720e-05       1.525374501932e+02 
       4.171170630578e-05       1.904975994010e+02 
       5.251192703764e-05       2.379022224249e+02 
       6.610859936996e-05       2.970989227882e+02 
       8.322579568497e-05       3.710167318946e+02 
       1.047750691046e-04       4.633080766742e+02 
       1.319039970183e-04       5.785234129333e+02 
       1.660572937635e-04       7.223242666092e+02 
       2.090537469327e-04       9.017396271824e+02 
       2.631830744443e-04       1.125468123750e+03 
       3.313278603720e-04       1.404223053681e+03 
       4.171170630578e-04       1.751108028790e+03 
       5.251192703764e-04       2.181998448133e+03 
       6.610859936996e-04       2.715889983592e+03 
       8.322579568497e-04       3.375152337135e+03 
       1.047750691046e-03       4.185552174307e+03 
       1.319039970183e-03       5.175742735456e+03 
       1.660572937635e-03       6.376123051778e+03 
       2.090537469327e-03       7.815671903857e+03 
       2.631830744443e-03       9.517783069112e+03 
       3.313278603720e-03       1.149357460341e+04 
       4.171170630578e-03       1.373266012004e+04 
       5.251192703764e-03       1.619063614550e+04 
       6.610859936996e-03       1.877460419638e+04 
       8.322579568497e-03       2.132606969505e+04 
       1.047750691046e-02       2.360548264522e+04 
       1.319039970183e-02       2.528218634938e+04 
       1.660572937633e-02       2.595025685111e+04 
       2.090537453514e-02       2.520936438970e+04 
       2.631818545635e-02       2.287030763979e+04 
       3.311571692125e-02       1.928625379844e+04 
       4.113809243311e-02       1.568425721484e+04 
       4.792590854610e-02       1.361060273127e+04 
       5.284436902701e-02       1.259132039016e+04 
       5.689644391095e-02       1.195552185592e+04 
       6.051252627066e-02       1.147547106704e+04 
       6.388413457411e-02       1.105592761804e+04 
       6.711249296401e-02       1.064900506308e+04 
       7.025823437965e-02       1.022931239268e+04 
       7.336115587705e-02       9.784528380522e+03 
       7.644928796912e-02       9.311646965255e+03 
       7.954353299775e-02       8.814543415224e+03 
       8.266024078725e-02       8.302104933586e+03 
       8.581273398637e-02       7.786947420324e+03 
       8.901225918437e-02       7.283182582421e+03 
       9.226860540985e-02       6.805154622982e+03 
       9.559052048996e-02       6.365594712059e+03 
       9.898599946599e-02       5.974400112455e+03 
       1.024624891378e-01       5.637339633854e+03 
       1.060270359164e-01       5.355769101166e+03 
       1.096863943056e-01       5.126234486206e+03 
       1.134471073830e-01       4.940475474850e+03 
       1.173155669539e-01       4.786159030303e+03 
       1.212980586983e-01       4.647940087192e+03 
       1.254007961065e-01       4.509152886755e+03 
       1.296299459934e-01       4.354555529538e+03 
       1.339916477160e-01       4.173218963065e+03 
       1.384920277736e-01       3.961188678008e+03 
       1.431372111762e-01       3.722693265633e+03 
       1.479333307714e-01       3.469549439650e+03 
       1.528865355934e-01       3.218349674145e+03 
       1.580029992204e-01       2.986287668766e+03 
       1.632889290723e-01       2.786964490207e+03 
       1.687505775527e-01       2.626824103899e+03 
       1.743942559171e-01       2.503750336773e+03 
       1.802263517371e-01       2.407347837905e+03 
       1.862533508214e-01       2.322248343673e+03 
       1.924818644494e-01       2.231551524525e+03 
       1.989186627765e-01       2.122190904622e+03 
       2.055707152847e-01       1.992028561629e+03 
       2.124452391818e-01       1.850321491459e+03 
       2.195497567139e-01       1.712180916954e+03 
       2.268921624510e-01       1.590981887756e+03 
       2.344808017550e-01       1.493669751445e+03 
       2.423245618548e-01       1.418307281938e+03 
       2.504329772620e-01       1.354466213762e+03 
       2.588163516754e-01       1.288935544078e+03 
       2.674858990930e-01       1.213937374226e+03 
       2.764539076010e-01       1.130692868168e+03 
       2.857339303080e-01       1.048097796714e+03 
       2.953410092148e-01       9.761810722533e+02 
       3.052919395542e-01       9.178096991833e+02 
       3.156055844677e-01       8.678966899624e+02 
       3.263032530092e-01       8.185237835427e+02 
       3.374091587054e-01       7.651449150038e+02 
       3.489509817175e-01       7.106689012744e+02 
       3.609605657343e-01       6.607858811513e+02 
       3.734747921333e-01       6.180855331880e+02 
       3.865366902904e-01       5.793094846330e+02 
       4.001968667448e-01       5.403918283975e+02 
       4.145153713076e-01       5.011504974472e+02 
       4.295641718077e-01       4.644984198563e+02 
       4.454304922144e-01       4.314068685158e+02 
       4.622214006969e-01       4.001141384871e+02 
       4.800702491654e-01       3.690887926906e+02 
       4.991459272112e-01       3.394760078044e+02 
       5.196665217302e-01       3.119847839902e+02 
       5.419201087032e-01       2.852473713304e+02 
       5.662975451962e-01       2.593301393753e+02 
       5.933463737275e-01       2.345478992118e+02 
       6.238638458458e-01       2.102299543490e+02 
       6.590669257916e-01       1.864326017095e+02 
       7.009246080454e-01       1.627245905605e+02 
       7.528593308799e-01       1.388182086870e+02 
       8.213469537518e-01       1.141879403231e+02 
       9.196980813302e-01       8.835951402817e+01 
       1.075112183810e+00       6.172572687623e+01 
       1.322697471132e+00       3.804262297826e+01 
       1.662328205042e+00       2.209796299271e+01 
       2.092692408506e+00       1.266902124828e+01 
       2.634543445090e+00       7.203309662088e+00 
       3.316693691389e+00       4.065109963367e+00 
       4.175469971226e+00       2.278601027458e+00 
       5.256605252960e+00       1.269342008910e+00 
       6.617673932723e+00       7.031305084501e-01 
       8.331157880872e+00       3.874775590354e-01 
       1.048830636590e+01       2.125089950064e-01 
       1.320399541071e+01       1.160361524491e-01 
       1.662284535976e+01       6.309817373640e-02 
       2.092692243973e+01       3.417876468937e-02 
       2.634543445002e+01       1.844536030718e-02 
       3.316693691389e+01       9.918618630586e-03 
       4.175469971226e+01       5.314052047234e-03 
       5.256605252960e+01       2.836239012035e-03 
       6.617673932723e+01       1.507277367109e-03 
