# Matter power spectrum P(k) at redshift z=0
# for k=1.04775e-05 to 66.1767 h/Mpc,
# number of wavenumbers equal to 130
#    1:k (h/Mpc)              2:P (Mpc/h)^3        
       1.047750691046e-05       5.020964811307e+01 
       1.319039970183e-05       6.270562594775e+01 
       1.660572937635e-05       7.831147247912e+01 
       2.090537469327e-05       9.780108069294e+01 
       2.631830744443e-05       1.221408203809e+02 
       3.313278603720e-05       1.525374501932e+02 
       4.171170630578e-05       1.904975994010e+02 
       5.251192703764e-05       2.379022224249e+02 
       6.610859936996e-05       2.970989227882e+02 
       8.322579568497e-05       3.710167318946e+02 
       1.047750691046e-04       4.633080766742e+02 
       1.319039970183e-04       5.785234129339e+02 
       1.660572937635e-04       7.223242666092e+02 
       2.090537469327e-04       9.017396271824e+02 
       2.631830744443e-04       1.125468123750e+03 
       3.313278603720e-04       1.404223053681e+03 
       4.171170630578e-04       1.751108028790e+03 
       5.251192703764e-04       2.181998448133e+03 
       6.610859936996e-04       2.715889983592e+03 
       8.322579568497e-04       3.375152337134e+03 
       1.047750691046e-03       4.185552174308e+03 
       1.319039970183e-03       5.175742743481e+03 
       1.660572937635e-03       6.376123051776e+03 
       2.090537469327e-03       7.815671868406e+03 
       2.631830744443e-03       9.517783069112e+03 
       3.313278603720e-03       1.149357460346e+04 
       4.171170630578e-03       1.373265989445e+04 
       5.251192703764e-03       1.619063614559e+04 
       6.610859936996e-03       1.877460405925e+04 
       8.322579568497e-03       2.132606816257e+04 
       1.047750691046e-02       2.360548899701e+04 
       1.319039970183e-02       2.528218635325e+04 
       1.660572937633e-02       2.595028455095e+04 
       2.090537453514e-02       2.520938771722e+04 
       2.631818545635e-02       2.287032824849e+04 
       3.311571692125e-02       1.928621647868e+04 
       4.113809243311e-02       1.568423180602e+04 
       4.792590854610e-02       1.361062626825e+04 
       5.284436902701e-02       1.259128843336e+04 
       5.689644391095e-02       1.195557730689e+04 
       6.051252627066e-02       1.147548794978e+04 
       6.388413457411e-02       1.105592402078e+04 
       6.711249296401e-02       1.064900056355e+04 
       7.025823437965e-02       1.022930159849e+04 
       7.336115587705e-02       9.784533015772e+03 
       7.644928796912e-02       9.311637472582e+03 
       7.954353299775e-02       8.814547684078e+03 
       8.266024078725e-02       8.302120088312e+03 
       8.581273398637e-02       7.786945451196e+03 
       8.901225918437e-02       7.283180362459e+03 
       9.226860540985e-02       6.805174922087e+03 
       9.559052048996e-02       6.365628227842e+03 
       9.898599946599e-02       5.974403250761e+03 
       1.024624891378e-01       5.637311443345e+03 
       1.060270359164e-01       5.355763143563e+03 
       1.096863943056e-01       5.126250986539e+03 
       1.134471073830e-01       4.940478026087e+03 
       1.173155669539e-01       4.786166800411e+03 
       1.212980586983e-01       4.647931775310e+03 
       1.254007961065e-01       4.509147854026e+03 
       1.296299459934e-01       4.354548980289e+03 
       1.339916477160e-01       4.173218951693e+03 
       1.384920277736e-01       3.961166553221e+03 
       1.431372111762e-01       3.722684210573e+03 
       1.479333307714e-01       3.469556895000e+03 
       1.528865355934e-01       3.218333851153e+03 
       1.580029992204e-01       2.986294043812e+03 
       1.632889290723e-01       2.786966392591e+03 
       1.687505775527e-01       2.626831927496e+03 
       1.743942559171e-01       2.503756600304e+03 
       1.802263517371e-01       2.407344460195e+03 
       1.862533508214e-01       2.322255192221e+03 
       1.924818644494e-01       2.231551770175e+03 
       1.989186627765e-01       2.122191297007e+03 
       2.055707152847e-01       1.992027147472e+03 
       2.124452391818e-01       1.850321778420e+03 
       2.195497567139e-01       1.712184851457e+03 
       2.268921624510e-01       1.590985620281e+03 
       2.344808017550e-01       1.493667340293e+03 
       2.423245618548e-01       1.418311104665e+03 
       2.504329772620e-01       1.354464254290e+03 
       2.588163516754e-01       1.288939427226e+03 
       2.674858990930e-01       1.213934313549e+03 
       2.764539076010e-01       1.130695400155e+03 
       2.857339303080e-01       1.048097741680e+03 
       2.953410092148e-01       9.761833413276e+02 
       3.052919395542e-01       9.178079436529e+02 
       3.156055844677e-01       8.678971407129e+02 
       3.263032530092e-01       8.185269008523e+02 
       3.374091587054e-01       7.651453823546e+02 
       3.489509817175e-01       7.106686760404e+02 
       3.609605657343e-01       6.607850422577e+02 
       3.734747921333e-01       6.180862257226e+02 
       3.865366902904e-01       5.793120978624e+02 
       4.001968667448e-01       5.403903191430e+02 
       4.145153713076e-01       5.011509289066e+02 
       4.295641718077e-01       4.644991981799e+02 
       4.454304922144e-01       4.314080169282e+02 
       4.622214006969e-01       4.001143208818e+02 
       4.800702491654e-01       3.690899936301e+02 
       4.991459272112e-01       3.394757995704e+02 
       5.196665217302e-01       3.119845132060e+02 
       5.419201087032e-01       2.852468219453e+02 
       5.662975451962e-01       2.593305037259e+02 
       5.933463737275e-01       2.345486736785e+02 
       6.238638458458e-01       2.102305133135e+02 
       6.590669257916e-01       1.864337021353e+02 
       7.009246080454e-01       1.627253776255e+02 
       7.528593308799e-01       1.388185240676e+02 
       8.213469537518e-01       1.141883649819e+02 
       9.196980813302e-01       8.835951774231e+01 
       1.075112183810e+00       6.172602382204e+01 
       1.322697471132e+00       3.804292799711e+01 
       1.662328205042e+00       2.209796577155e+01 
       2.092692408506e+00       1.266917634621e+01 
       2.634543445090e+00       7.203306877768e+00 
       3.316693691389e+00       4.065142066944e+00 
       4.175469971226e+00       2.278623658893e+00 
       5.256605252960e+00       1.269341749975e+00 
       6.617673932723e+00       7.031337549756e-01 
       8.331157880872e+00       3.874790100259e-01 
       1.048830636590e+01       2.125090835947e-01 
       1.320399541071e+01       1.160358897357e-01 
       1.662284535976e+01       6.309903597093e-02 
       2.092692243973e+01       3.417936164468e-02 
       2.634543445002e+01       1.844601882448e-02 
       3.316693691389e+01       9.919190869948e-03 
       4.175469971226e+01       5.314502744210e-03 
       5.256605252960e+01       2.836606157870e-03 
       6.617673932723e+01       1.507599986395e-03 
