# Matter power spectrum P(k) at redshift z=99
# for k=1.04775e-05 to 66.1767 h/Mpc,
# number of wavenumbers equal to 130
#    1:k (h/Mpc)              2:P (Mpc/h)^3        
       1.047750691046e-05       7.261927680875e-03 
       1.319039970183e-05       9.069258201865e-03 
       1.660572937635e-05       1.132639106727e-02 
       2.090537469327e-05       1.414527123402e-02 
       2.631830744443e-05       1.766569584061e-02 
       3.313278603720e-05       2.206225515946e-02 
       4.171170630578e-05       2.755297766282e-02 
       5.251192703764e-05       3.441013522953e-02 
       6.610859936996e-05       4.297372172785e-02 
       8.322579568497e-05       5.366826852954e-02 
       1.047750691046e-04       6.702379872786e-02 
       1.319039970183e-04       8.370193441301e-02 
       1.660572937635e-04       1.045283355386e-01 
       2.090537469327e-04       1.305329134106e-01 
       2.631830744443e-04       1.629994506608e-01 
       3.313278603720e-04       2.035264004605e-01 
       4.171170630578e-04       2.541004744247e-01 
       5.251192703764e-04       3.171839528562e-01 
       6.610859936996e-04       3.958147256519e-01 
       8.322579568497e-04       4.937136006284e-01 
       1.047750691046e-03       6.153841636049e-01 
       1.319039970183e-03       7.661720592699e-01 
       1.660572937635e-03       9.522588016429e-01 
       2.090537469327e-03       1.180312991697e+00 
       2.631830744443e-03       1.456802684679e+00 
       3.313278603720e-03       1.786503854024e+00 
       4.171170630578e-03       2.169896194831e+00 
       5.251192703764e-03       2.599430630647e+00 
       6.610859936996e-03       3.055668711424e+00 
       8.322579568497e-03       3.505724480777e+00 
       1.047750691046e-02       3.905491511722e+00 
       1.319039970183e-02       4.200915293457e+00 
       1.660572937633e-02       4.325063637866e+00 
       2.090537453514e-02       4.210202134512e+00 
       2.631818545635e-02       3.825146379448e+00 
       3.311571692125e-02       3.229056928497e+00 
       4.113809243311e-02       2.627737347841e+00 
       4.792590854610e-02       2.280792977788e+00 
       5.284436902701e-02       2.110089200974e+00 
       5.689644391095e-02       2.003537581107e+00 
       6.051252627066e-02       1.923056185669e+00 
       6.388413457411e-02       1.852734401991e+00 
       6.711249296401e-02       1.784564329838e+00 
       7.025823437965e-02       1.714277464614e+00 
       7.336115587705e-02       1.639816690470e+00 
       7.644928796912e-02       1.560663814331e+00 
       7.954353299775e-02       1.477458741246e+00 
       8.266024078725e-02       1.391696727747e+00 
       8.581273398637e-02       1.305462396364e+00 
       8.901225918437e-02       1.221126258166e+00 
       9.226860540985e-02       1.141077942522e+00 
       9.559052048996e-02       1.067450350738e+00 
       9.898599946599e-02       1.001889446118e+00 
       1.024624891378e-01       9.453806059945e-01 
       1.060270359164e-01       8.981490085138e-01 
       1.096863943056e-01       8.596129028683e-01 
       1.134471073830e-01       8.284047920125e-01 
       1.173155669539e-01       8.024665806473e-01 
       1.212980586983e-01       7.792291749725e-01 
       1.254007961065e-01       7.559193628478e-01 
       1.296299459934e-01       7.299851789229e-01 
       1.339916477160e-01       6.995934384446e-01 
       1.384920277736e-01       6.640800165418e-01 
       1.431372111762e-01       6.241479679499e-01 
       1.479333307714e-01       5.817639520291e-01 
       1.528865355934e-01       5.396906115654e-01 
       1.580029992204e-01       5.008129208286e-01 
       1.632889290723e-01       4.673977047744e-01 
       1.687505775527e-01       4.405333806522e-01 
       1.743942559171e-01       4.198661303697e-01 
       1.802263517371e-01       4.036595919271e-01 
       1.862533508214e-01       3.893624464087e-01 
       1.924818644494e-01       3.741391838710e-01 
       1.989186627765e-01       3.558073227729e-01 
       2.055707152847e-01       3.340034468242e-01 
       2.124452391818e-01       3.102647662352e-01 
       2.195497567139e-01       2.871224250549e-01 
       2.268921624510e-01       2.668087146722e-01 
       2.344808017550e-01       2.504834299236e-01 
       2.423245618548e-01       2.378335638995e-01 
       2.504329772620e-01       2.271119004417e-01 
       2.588163516754e-01       2.161194982753e-01 
       2.674858990930e-01       2.035470173489e-01 
       2.764539076010e-01       1.895969384259e-01 
       2.857339303080e-01       1.757567355192e-01 
       2.953410092148e-01       1.636986853417e-01 
       3.052919395542e-01       1.539065492201e-01 
       3.156055844677e-01       1.455310703906e-01 
       3.263032530092e-01       1.372500729639e-01 
       3.374091587054e-01       1.283015370113e-01 
       3.489509817175e-01       1.191711219724e-01 
       3.609605657343e-01       1.108071700091e-01 
       3.734747921333e-01       1.036451117427e-01 
       3.865366902904e-01       9.714110643896e-02 
       4.001968667448e-01       9.061532716557e-02 
       4.145153713076e-01       8.403699793890e-02 
       4.295641718077e-01       7.789092151387e-02 
       4.454304922144e-01       7.234146858591e-02 
       4.622214006969e-01       6.709344178319e-02 
       4.800702491654e-01       6.189172629395e-02 
       4.991459272112e-01       5.692644673259e-02 
       5.196665217302e-01       5.231592671401e-02 
       5.419201087032e-01       4.783240647558e-02 
       5.662975451962e-01       4.348673916386e-02 
       5.933463737275e-01       3.933089548682e-02 
       6.238638458458e-01       3.525337666001e-02 
       6.590669257916e-01       3.126278144259e-02 
       7.009246080454e-01       2.728721857778e-02 
       7.528593308799e-01       2.327826279476e-02 
       8.213469537518e-01       1.914810333983e-02 
       9.196980813302e-01       1.481690043269e-02 
       1.075112183810e+00       1.035074744147e-02 
       1.322697471132e+00       6.379324773896e-03 
       1.662328205042e+00       3.705517095261e-03 
       2.092692408506e+00       2.124394161630e-03 
       2.634543445090e+00       1.207816225538e-03 
       3.316693691389e+00       6.815662742428e-04 
       4.175469971226e+00       3.819821022945e-04 
       5.256605252960e+00       2.127430940990e-04 
       6.617673932723e+00       1.177983488349e-04 
       8.331157880872e+00       6.487037352456e-05 
       1.048830636590e+01       3.553581844176e-05 
       1.320399541071e+01       1.936470311441e-05 
       1.662284535976e+01       1.049435202216e-05 
       2.092692243973e+01       5.651680440071e-06 
       2.634543445002e+01       3.020223514567e-06 
       3.316693691389e+01       1.597216768577e-06 
       4.175469971226e+01       8.319031621030e-07 
       5.256605252960e+01       4.231911378207e-07 
       6.617673932723e+01       2.072144973650e-07 
