# Matter power spectrum P(k) at redshift z=0
# for k=1.04775e-05 to 67.6233 h/Mpc,
# number of wavenumbers equal to 246
#    1:k (h/Mpc)              2:P (Mpc/h)^3        
       1.047750691046e-05       5.020964811306e+01 
       1.131335172503e-05       5.407050701925e+01 
       1.221587619537e-05       5.822819068626e+01 
       1.319039970183e-05       6.270562594779e+01 
       1.424266597921e-05       6.752732240880e+01 
       1.537887696968e-05       7.271977206173e+01 
       1.660572937635e-05       7.831147247911e+01 
       1.793045413292e-05       8.433311821988e+01 
       1.936085902198e-05       9.081778249833e+01 
       2.090537469327e-05       9.780108069295e+01 
       2.257310435294e-05       1.053213197893e+02 
       2.437387741694e-05       1.134197377890e+02 
       2.631830744443e-05       1.221408203809e+02 
       2.841785469300e-05       1.315324642468e+02 
       3.068489366414e-05       1.416462094881e+02 
       3.313278603720e-05       1.525374501932e+02 
       3.577595942169e-05       1.642660688414e+02 
       3.862999239199e-05       1.768963506307e+02 
       4.171170630578e-05       1.904975994009e+02 
       4.503926444729e-05       2.051444491974e+02 
       4.863227907969e-05       2.209171465549e+02 
       5.251192703764e-05       2.379022224249e+02 
       5.670107454120e-05       2.561927927711e+02 
       6.122441196689e-05       2.758890444040e+02 
       6.610859936996e-05       2.970989227882e+02 
       7.138242361596e-05       3.199385560802e+02 
       7.707696804727e-05       3.445329783680e+02 
       8.322579568497e-05       3.710167318945e+02 
       8.986514704559e-05       3.995346444203e+02 
       9.703415373875e-05       4.302425407383e+02 
       1.047750691046e-04       4.633080766742e+02 
       1.131335172503e-04       4.989116271564e+02 
       1.221587619537e-04       5.372471950929e+02 
       1.319039970183e-04       5.785234129339e+02 
       1.424266597921e-04       6.229645936045e+02 
       1.537887696968e-04       6.708118490405e+02 
       1.660572937635e-04       7.223242666092e+02 
       1.793045413292e-04       7.777801559353e+02 
       1.936085902198e-04       8.374783614140e+02 
       2.090537469327e-04       9.017396271824e+02 
       2.257310435294e-04       9.709080268041e+02 
       2.437387741694e-04       1.045352449493e+03 
       2.631830744443e-04       1.125468123750e+03 
       2.841785469300e-04       1.211678180494e+03 
       3.068489366414e-04       1.304435250150e+03 
       3.313278603720e-04       1.404223053681e+03 
       3.577595942169e-04       1.511558014616e+03 
       3.862999239199e-04       1.626990837777e+03 
       4.171170630578e-04       1.751108028790e+03 
       4.503926444729e-04       1.884533382872e+03 
       4.863227907969e-04       2.027929378112e+03 
       5.251192703764e-04       2.181998448133e+03 
       5.670107454121e-04       2.347484102754e+03 
       6.122441196689e-04       2.525171871365e+03 
       6.610859936996e-04       2.715889983592e+03 
       7.138242361596e-04       2.920509688379e+03 
       7.707696804727e-04       3.139945100279e+03 
       8.322579568497e-04       3.375152337581e+03 
       8.986514704559e-04       3.627127831140e+03 
       9.703415373875e-04       3.896905453134e+03 
       1.047750691046e-03       4.185552174335e+03 
       1.131335172503e-03       4.494162430370e+03 
       1.221587619537e-03       4.823850706486e+03 
       1.319039970183e-03       5.175742744041e+03 
       1.424266597921e-03       5.551019596907e+03 
       1.537887696968e-03       5.950788340559e+03 
       1.660572937635e-03       6.376123051761e+03 
       1.793045413292e-03       6.828073901430e+03 
       1.936085902198e-03       7.307625381050e+03 
       2.090537469327e-03       7.815671866244e+03 
       2.257310435294e-03       8.352990375795e+03 
       2.437387741694e-03       8.920211064314e+03 
       2.631830744443e-03       9.517783069069e+03 
       2.841785469300e-03       1.014593704430e+04 
       3.068489366414e-03       1.080464502783e+04 
       3.313278603720e-03       1.149357460337e+04 
       3.577595942169e-03       1.221203621711e+04 
       3.862999239199e-03       1.295892539432e+04 
       4.171170630578e-03       1.373266011708e+04 
       4.503926444729e-03       1.453111835603e+04 
       4.863227907969e-03       1.535154984515e+04 
       5.251192703764e-03       1.619063609911e+04 
       5.670107454120e-03       1.704431257468e+04 
       6.122441196689e-03       1.790755942344e+04 
       6.610859936996e-03       1.877460532849e+04 
       7.138242361596e-03       1.963872439204e+04 
       7.707696804727e-03       2.049215713388e+04 
       8.322579568496e-03       2.132607268539e+04 
       8.986514704559e-03       2.213055125814e+04 
       9.703415373875e-03       2.289445506642e+04 
       1.047750691046e-02       2.360548721611e+04 
       1.131335172503e-02       2.425023032274e+04 
       1.221587619537e-02       2.481423934097e+04 
       1.319039970183e-02       2.528218993896e+04 
       1.424266597920e-02       2.563813362712e+04 
       1.537887696964e-02       2.586605821861e+04 
       1.660572937560e-02       2.595026544998e+04 
       1.793045412207e-02       2.587635530334e+04 
       1.936085889642e-02       2.563219861331e+04 
       2.090537351881e-02       2.520934560873e+04 
       2.257309534705e-02       2.460444523801e+04 
       2.437382002240e-02       2.382085289896e+04 
       2.631799943729e-02       2.287037313231e+04 
       2.841644544598e-02       2.177448015531e+04 
       3.067933354524e-02       2.056554372797e+04 
       3.311368469821e-02       1.928727989076e+04 
       3.571840442514e-02       1.799398305607e+04 
       3.847720347390e-02       1.674676440778e+04 
       4.135335537314e-02       1.560457414533e+04 
       4.429361666563e-02       1.461031969360e+04 
       4.724366437916e-02       1.378051476946e+04 
       5.016480834039e-02       1.310501339630e+04 
       5.303989618930e-02       1.255717463858e+04 
       5.586870668205e-02       1.210425425888e+04 
       5.866042679206e-02       1.171468430201e+04 
       6.142798931504e-02       1.136053486474e+04 
       6.418496438662e-02       1.101860668159e+04 
       6.694418832236e-02       1.067073167737e+04 
       6.971731104453e-02       1.030364304093e+04 
       7.251476154108e-02       9.909082421100e+03 
       7.534587669814e-02       9.483728216793e+03 
       7.821907664495e-02       9.029472033933e+03 
       8.114203771084e-02       8.552342764581e+03 
       8.412184533139e-02       8.061999490329e+03 
       8.716512277352e-02       7.570792947350e+03 
       9.027813693913e-02       7.092503501592e+03 
       9.346688429613e-02       6.640532317875e+03 
       9.673716026122e-02       6.226740331650e+03 
       1.000946150608e-01       5.859991846755e+03 
       1.035447986307e-01       5.545323037807e+03 
       1.070931966524e-01       5.283156253486e+03 
       1.107452594180e-01       5.069437112367e+03 
       1.145064248899e-01       4.895251179030e+03 
       1.183821370656e-01       4.747852386479e+03 
       1.223778605591e-01       4.611735988941e+03 
       1.264990921707e-01       4.470624130422e+03 
       1.307513701078e-01       4.310280964380e+03 
       1.351402814485e-01       4.121381880050e+03 
       1.396714683894e-01       3.902078291900e+03 
       1.443506337875e-01       3.658652619546e+03 
       1.491835464900e-01       3.404477865557e+03 
       1.541760469368e-01       3.156662726170e+03 
       1.593340535209e-01       2.931935927984e+03 
       1.646635701934e-01       2.742356099472e+03 
       1.701706958081e-01       2.592234145065e+03 
       1.758616357070e-01       2.477215542305e+03 
       1.817427160581e-01       2.385163454721e+03 
       1.878204014651e-01       2.300351627088e+03 
       1.941013163855e-01       2.205781034936e+03 
       2.005922709060e-01       2.090831958984e+03 
       2.073002914514e-01       1.956463695090e+03 
       2.142326570343e-01       1.814178402460e+03 
       2.213969417044e-01       1.679271563376e+03 
       2.288010639201e-01       1.563832703029e+03 
       2.364533436625e-01       1.472666371878e+03 
       2.443625682390e-01       1.401515364453e+03 
       2.525380678946e-01       1.338419212642e+03 
       2.609898025770e-01       1.270899727566e+03 
       2.697284614969e-01       1.193361193619e+03 
       2.787655775073e-01       1.109330113184e+03 
       2.881136588192e-01       1.028764786325e+03 
       2.977863412019e-01       9.604743618687e+02 
       3.077985646248e-01       9.050193092088e+02 
       3.181667793367e-01       8.561366895524e+02 
       3.289091877084e-01       8.061822176098e+02 
       3.400460298905e-01       7.523817134875e+02 
       3.515999235695e-01       6.989134278855e+02 
       3.635962710278e-01       6.510597784315e+02 
       3.760637505499e-01       6.101166797898e+02 
       3.890349143014e-01       5.721277777965e+02 
       4.025469215929e-01       5.337767548873e+02 
       4.166424455447e-01       4.956222214672e+02 
       4.313708034899e-01       4.604648944681e+02 
       4.467893781976e-01       4.287704303224e+02 
       4.629654198623e-01       3.987690532389e+02 
       4.799783500912e-01       3.692361234952e+02 
       4.979227318246e-01       3.412370474147e+02 
       5.169121269689e-01       3.154781418930e+02 
       5.370841403262e-01       2.908300539578e+02 
       5.586070463286e-01       2.671026450261e+02 
       5.816885093582e-01       2.448053118426e+02 
       6.065870143577e-01       2.235654189862e+02 
       6.336266466978e-01       2.032081272933e+02 
       6.632156057925e-01       1.838777218297e+02 
       6.958678637575e-01       1.653530200035e+02 
       7.322247983784e-01       1.476944132313e+02 
       7.730680193171e-01       1.308330933428e+02 
       8.193049551574e-01       1.148305975171e+02 
       8.718988013754e-01       9.976212787045e+01 
       9.317218028590e-01       8.577684334162e+01 
       9.993660906273e-01       7.305371874093e+01 
       1.075037109879e+00       6.173538468878e+01 
       1.158653485387e+00       5.187814486824e+01 
       1.250099156961e+00       4.343951816167e+01 
       1.349432400897e+00       3.628829414693e+01 
       1.456947456991e+00       3.026727761476e+01 
       1.573135110893e+00       2.521392886960e+01 
       1.698621895119e+00       2.098130949266e+01 
       1.834127512423e+00       1.744171631387e+01 
       1.980444933977e+00       1.448498353146e+01 
       2.138435191130e+00       1.201831780504e+01 
       2.309029198543e+00       9.962555444382e+00 
       2.493232376993e+00       8.251190094540e+00 
       2.692130394536e+00       6.827949829062e+00 
       2.906895533764e+00       5.645649363429e+00 
       3.138793596840e+00       4.664252000883e+00 
       3.389191365541e+00       3.850523420915e+00 
       3.659564656886e+00       3.176343797575e+00 
       3.951507021438e+00       2.618290149690e+00 
       4.266739135513e+00       2.156759960322e+00 
       4.607118942658e+00       1.775343331590e+00 
       4.974652604172e+00       1.460419097863e+00 
       5.371506323193e+00       1.200562679989e+00 
       5.800019112071e+00       9.863238496232e-01 
       6.262716578240e+00       8.097943897545e-01 
       6.762325809881e+00       6.644538587341e-01 
       7.301791449077e+00       5.448727610949e-01 
       7.884293047211e+00       4.465474155528e-01 
       8.513263804891e+00       3.657485606156e-01 
       9.192410806865e+00       2.993960378855e-01 
       9.925736871166e+00       2.449375207079e-01 
       1.071756414128e+01       2.002656136849e-01 
       1.157255956041e+01       1.636420869077e-01 
       1.249576237789e+01       1.336341352728e-01 
       1.349261385000e+01       1.090569776051e-01 
       1.456898931011e+01       8.893881584804e-02 
       1.573123279727e+01       7.247999577232e-02 
       1.698619444729e+01       5.901948615490e-02 
       1.834127086665e+01       4.801581805865e-02 
       1.980444872733e+01       3.902415988284e-02 
       2.138435183937e+01       3.167948858446e-02 
       2.309029197863e+01       2.568189115502e-02 
       2.493232376942e+01       2.078606991997e-02 
       2.692130394533e+01       1.679048214683e-02 
       2.906895533764e+01       1.353039210115e-02 
       3.138793596840e+01       1.087082786152e-02 
       3.389191365541e+01       8.701763984930e-03 
       3.659564656886e+01       6.933279881098e-03 
       3.951507021438e+01       5.491795078864e-03 
       4.266739135513e+01       4.317852199144e-03 
       4.607118942658e+01       3.362614290297e-03 
       4.974652604172e+01       2.587094263786e-03 
       5.371506323193e+01       1.959393047419e-03 
       5.800019112071e+01       1.453951373762e-03 
       6.262716578240e+01       1.050310872199e-03 
       6.762325809881e+01       7.320678209780e-04 
