# Matter power spectrum P(k) at redshift z=99
# for k=1.04775e-05 to 66.1767 h/Mpc,
# number of wavenumbers equal to 130
#    1:k (h/Mpc)              2:P (Mpc/h)^3        
       1.047750691046e-05       7.261927680862e-03 
       1.319039970183e-05       9.069258201849e-03 
       1.660572937635e-05       1.132639106725e-02 
       2.090537469327e-05       1.414527123399e-02 
       2.631830744443e-05       1.766569584058e-02 
       3.313278603720e-05       2.206225515942e-02 
       4.171170630578e-05       2.755297766277e-02 
       5.251192703764e-05       3.441013522947e-02 
       6.610859936996e-05       4.297372172778e-02 
       8.322579568497e-05       5.366826852944e-02 
       1.047750691046e-04       6.702379872775e-02 
       1.319039970183e-04       8.370193441286e-02 
       1.660572937635e-04       1.045283355384e-01 
       2.090537469327e-04       1.305329134104e-01 
       2.631830744443e-04       1.629994506606e-01 
       3.313278603720e-04       2.035264004601e-01 
       4.171170630578e-04       2.541004744243e-01 
       5.251192703764e-04       3.171839528557e-01 
       6.610859936996e-04       3.958147256514e-01 
       8.322579568497e-04       4.937136006279e-01 
       1.047750691046e-03       6.153841636042e-01 
       1.319039970183e-03       7.661720592493e-01 
       1.660572937635e-03       9.522588016468e-01 
       2.090537469327e-03       1.180312991699e+00 
       2.631830744443e-03       1.456802684686e+00 
       3.313278603720e-03       1.786503854038e+00 
       4.171170630578e-03       2.169896191221e+00 
       5.251192703764e-03       2.599430630719e+00 
       6.610859936996e-03       3.055668607506e+00 
       8.322579568497e-03       3.505725598411e+00 
       1.047750691046e-02       3.905491137140e+00 
       1.319039970183e-02       4.200915354352e+00 
       1.660572937633e-02       4.325061654128e+00 
       2.090537453514e-02       4.210205421803e+00 
       2.631818545635e-02       3.825155572343e+00 
       3.311571692125e-02       3.229066415149e+00 
       4.113809243311e-02       2.627732176897e+00 
       4.792590854610e-02       2.280793616755e+00 
       5.284436902701e-02       2.110088186579e+00 
       5.689644391095e-02       2.003539970664e+00 
       6.051252627066e-02       1.923056804911e+00 
       6.388413457411e-02       1.852737093512e+00 
       6.711249296401e-02       1.784565179520e+00 
       7.025823437965e-02       1.714279137181e+00 
       7.336115587705e-02       1.639814224342e+00 
       7.644928796912e-02       1.560663323437e+00 
       7.954353299775e-02       1.477457473138e+00 
       8.266024078725e-02       1.391701506178e+00 
       8.581273398637e-02       1.305462057013e+00 
       8.901225918437e-02       1.221126634696e+00 
       9.226860540985e-02       1.141077967240e+00 
       9.559052048996e-02       1.067456627158e+00 
       9.898599946599e-02       1.001889511041e+00 
       1.024624891378e-01       9.453821271674e-01 
       1.060270359164e-01       8.981496017321e-01 
       1.096863943056e-01       8.596132382095e-01 
       1.134471073830e-01       8.284062166611e-01 
       1.173155669539e-01       8.024657150828e-01 
       1.212980586983e-01       7.792299642844e-01 
       1.254007961065e-01       7.559176533924e-01 
       1.296299459934e-01       7.299818908678e-01 
       1.339916477160e-01       6.995929832223e-01 
       1.384920277736e-01       6.640798398041e-01 
       1.431372111762e-01       6.241469964997e-01 
       1.479333307714e-01       5.817642085950e-01 
       1.528865355934e-01       5.396934768026e-01 
       1.580029992204e-01       5.008139003116e-01 
       1.632889290723e-01       4.673991293871e-01 
       1.687505775527e-01       4.405338378980e-01 
       1.743942559171e-01       4.198659990801e-01 
       1.802263517371e-01       4.036598464300e-01 
       1.862533508214e-01       3.893596060751e-01 
       1.924818644494e-01       3.741350273909e-01 
       1.989186627765e-01       3.558018773648e-01 
       2.055707152847e-01       3.339993480997e-01 
       2.124452391818e-01       3.102663365154e-01 
       2.195497567139e-01       2.871215770347e-01 
       2.268921624510e-01       2.668084082915e-01 
       2.344808017550e-01       2.504833149142e-01 
       2.423245618548e-01       2.378331823115e-01 
       2.504329772620e-01       2.271124009474e-01 
       2.588163516754e-01       2.161191903388e-01 
       2.674858990930e-01       2.035463190781e-01 
       2.764539076010e-01       1.895983546874e-01 
       2.857339303080e-01       1.757572277997e-01 
       2.953410092148e-01       1.636993880709e-01 
       3.052919395542e-01       1.539058977980e-01 
       3.156055844677e-01       1.455312411695e-01 
       3.263032530092e-01       1.372504837537e-01 
       3.374091587054e-01       1.283024012614e-01 
       3.489509817175e-01       1.191712920630e-01 
       3.609605657343e-01       1.108075380983e-01 
       3.734747921333e-01       1.036450118245e-01 
       3.865366902904e-01       9.714125402615e-02 
       4.001968667448e-01       9.061550636575e-02 
       4.145153713076e-01       8.403725107618e-02 
       4.295641718077e-01       7.789116265881e-02 
       4.454304922144e-01       7.234177889884e-02 
       4.622214006969e-01       6.709386051566e-02 
       4.800702491654e-01       6.189184203745e-02 
       4.991459272112e-01       5.692624830076e-02 
       5.196665217302e-01       5.231601800626e-02 
       5.419201087032e-01       4.783260193747e-02 
       5.662975451962e-01       4.348681458822e-02 
       5.933463737275e-01       3.933106814508e-02 
       6.238638458458e-01       3.525339453080e-02 
       6.590669257916e-01       3.126280608397e-02 
       7.009246080454e-01       2.728735710938e-02 
       7.528593308799e-01       2.327839679702e-02 
       8.213469537518e-01       1.914823804954e-02 
       9.196980813302e-01       1.481705268412e-02 
       1.075112183810e+00       1.035096131782e-02 
       1.322697471132e+00       6.379441042706e-03 
       1.662328205042e+00       3.705664310186e-03 
       2.092692408506e+00       2.124532420840e-03 
       2.634543445090e+00       1.207960938781e-03 
       3.316693691389e+00       6.817055817808e-04 
       4.175469971226e+00       3.821179300813e-04 
       5.256605252960e+00       2.128698240345e-04 
       6.617673932723e+00       1.179172580297e-04 
       8.331157880872e+00       6.498156279136e-05 
       1.048830636590e+01       3.563941554947e-05 
       1.320399541071e+01       1.945994705271e-05 
       1.662284535976e+01       1.058134677141e-05 
       2.092692243973e+01       5.730497127498e-06 
       2.634543445002e+01       3.090769375659e-06 
       3.316693691389e+01       1.659420402988e-06 
       4.175469971226e+01       8.856661382689e-07 
       5.256605252960e+01       4.683520209301e-07 
       6.617673932723e+01       2.435578509041e-07 
