# Matter power spectrum P(k) at redshift z=0
# for k=1.04775e-05 to 66.1767 h/Mpc,
# number of wavenumbers equal to 130
#    1:k (h/Mpc)              2:P (Mpc/h)^3        
       1.047750691046e-05       5.020964811313e+01 
       1.319039970183e-05       6.270562594775e+01 
       1.660572937635e-05       7.831147247912e+01 
       2.090537469327e-05       9.780108069297e+01 
       2.631830744443e-05       1.221408203809e+02 
       3.313278603720e-05       1.525374501932e+02 
       4.171170630578e-05       1.904975994011e+02 
       5.251192703764e-05       2.379022224241e+02 
       6.610859936996e-05       2.970989227882e+02 
       8.322579568497e-05       3.710167318941e+02 
       1.047750691046e-04       4.633080766732e+02 
       1.319039970183e-04       5.785234129315e+02 
       1.660572937635e-04       7.223242666052e+02 
       2.090537469327e-04       9.017396271744e+02 
       2.631830744443e-04       1.125468123734e+03 
       3.313278603720e-04       1.404223053650e+03 
       4.171170630578e-04       1.751108028729e+03 
       5.251192703764e-04       2.181998448009e+03 
       6.610859936996e-04       2.715889983346e+03 
       8.322579568497e-04       3.375152336649e+03 
       1.047750691046e-03       4.185552173344e+03 
       1.319039970183e-03       5.175742742864e+03 
       1.660572937635e-03       6.376123047713e+03 
       2.090537469327e-03       7.815671858346e+03 
       2.631830744443e-03       9.517783051301e+03 
       3.313278603720e-03       1.149357456724e+04 
       4.171170630578e-03       1.373266003736e+04 
       5.251192703764e-03       1.619061171048e+04 
       6.610859936996e-03       1.877461744599e+04 
       8.322579568497e-03       2.132610231760e+04 
       1.047750691046e-02       2.360555081359e+04 
       1.319039970183e-02       2.528217094569e+04 
       1.660572937633e-02       2.595035340410e+04 
       2.090537453514e-02       2.520919564781e+04 
       2.631818545635e-02       2.287012629524e+04 
       3.311571692125e-02       1.928605350351e+04 
       4.113809243311e-02       1.568407215893e+04 
       4.792590854610e-02       1.361040639964e+04 
       5.284436902701e-02       1.259107393923e+04 
       5.689644391095e-02       1.195529338915e+04 
       6.051252627066e-02       1.147527345010e+04 
       6.388413457411e-02       1.105538815305e+04 
       6.711249296401e-02       1.064860306394e+04 
       7.025823437965e-02       1.022898096875e+04 
       7.336115587705e-02       9.784199908887e+03 
       7.644928796912e-02       9.311338900510e+03 
       7.954353299775e-02       8.814091282662e+03 
       8.266024078725e-02       8.301713550050e+03 
       8.581273398637e-02       7.786435652447e+03 
       8.901225918437e-02       7.282703705137e+03 
       9.226860540985e-02       6.804604616596e+03 
       9.559052048996e-02       6.365001568370e+03 
       9.898599946599e-02       5.973709023810e+03 
       1.024624891378e-01       5.636612916804e+03 
       1.060270359164e-01       5.355005261771e+03 
       1.096863943056e-01       5.125419375836e+03 
       1.134471073830e-01       4.939642803483e+03 
       1.173155669539e-01       4.785235718682e+03 
       1.212980586983e-01       4.646933250425e+03 
       1.254007961065e-01       4.507980079310e+03 
       1.296299459934e-01       4.353369607473e+03 
       1.339916477160e-01       4.171973717824e+03 
       1.384920277736e-01       3.959821140954e+03 
       1.431372111762e-01       3.721260563991e+03 
       1.479333307714e-01       3.468073932356e+03 
       1.528865355934e-01       3.216744342021e+03 
       1.580029992204e-01       2.984606665859e+03 
       1.632889290723e-01       2.785207776934e+03 
       1.687505775527e-01       2.624962673192e+03 
       1.743942559171e-01       2.501802732343e+03 
       1.802263517371e-01       2.405230856149e+03 
       1.862533508214e-01       2.320009236987e+03 
       1.924818644494e-01       2.229166269968e+03 
       1.989186627765e-01       2.119645267959e+03 
       2.055707152847e-01       1.989346328022e+03 
       2.124452391818e-01       1.847512537073e+03 
       2.195497567139e-01       1.709217107834e+03 
       2.268921624510e-01       1.587887594998e+03 
       2.344808017550e-01       1.490407922912e+03 
       2.423245618548e-01       1.414874610564e+03 
       2.504329772620e-01       1.350815941462e+03 
       2.588163516754e-01       1.285065963790e+03 
       2.674858990930e-01       1.209853209774e+03 
       2.764539076010e-01       1.126403042310e+03 
       2.857339303080e-01       1.043613189051e+03 
       2.953410092148e-01       9.714730330466e+02 
       3.052919395542e-01       9.128564965538e+02 
       3.156055844677e-01       8.626729275929e+02 
       3.263032530092e-01       8.130178193985e+02 
       3.374091587054e-01       7.593564265316e+02 
       3.489509817175e-01       7.046089473225e+02 
       3.609605657343e-01       6.544294744453e+02 
       3.734747921333e-01       6.114045665189e+02 
       3.865366902904e-01       5.722814648283e+02 
       4.001968667448e-01       5.330049517285e+02 
       4.145153713076e-01       4.934056371483e+02 
       4.295641718077e-01       4.563714627271e+02 
       4.454304922144e-01       4.228655367351e+02 
       4.622214006969e-01       3.911321306618e+02 
       4.800702491654e-01       3.596512349186e+02 
       4.991459272112e-01       3.295547122464e+02 
       5.196665217302e-01       3.015355768272e+02 
       5.419201087032e-01       2.742336169075e+02 
       5.662975451962e-01       2.477119451749e+02 
       5.933463737275e-01       2.222598739443e+02 
       6.238638458458e-01       1.972066283980e+02 
       6.590669257916e-01       1.725816223748e+02 
       7.009246080454e-01       1.479261957151e+02 
       7.528593308799e-01       1.229060529648e+02 
       8.213469537518e-01       9.692796605117e+01 
       9.196980813302e-01       6.943715489313e+01 
       1.075112183810e+00       4.092371041865e+01 
       1.322697471132e+00       1.629227089535e+01 
       1.662328205042e+00       2.802884005059e+00 
       2.092692408506e+00       1.065351155973e-01 
       2.634543445090e+00       2.496210343603e+00 
       3.316693691389e+00       2.650320895063e+00 
       4.175469971226e+00       2.638393349952e-01 
       5.256605252960e+00       3.479246695545e-01 
       6.617673932723e+00       1.232650387446e-01 
       8.331157880872e+00       7.410206821267e-02 
       1.048830636590e+01       3.219412726351e-03 
       1.320399541071e+01       7.397310648761e-05 
       1.662284535976e+01       1.434311729686e-04 
       2.092692243973e+01       3.938427060497e-05 
       2.634543445002e+01       6.667679573092e-07 
       3.316693691389e+01       9.258601613604e-09 
       4.175469971226e+01       1.220726552280e-10 
       5.256605252960e+01       4.178951915176e-13 
       6.617673932723e+01       8.487396863568e-15 
