# Matter power spectrum P(k) at redshift z=0
# for k=1.04775e-05 to 66.1767 h/Mpc,
# number of wavenumbers equal to 130
#    1:k (h/Mpc)              2:P (Mpc/h)^3        
       1.047750691046e-05       5.020964811308e+01 
       1.319039970183e-05       6.270562594787e+01 
       1.660572937635e-05       7.831147247912e+01 
       2.090537469327e-05       9.780108069294e+01 
       2.631830744443e-05       1.221408203809e+02 
       3.313278603720e-05       1.525374501932e+02 
       4.171170630578e-05       1.904975994009e+02 
       5.251192703764e-05       2.379022224249e+02 
       6.610859936996e-05       2.970989227881e+02 
       8.322579568497e-05       3.710167318945e+02 
       1.047750691046e-04       4.633080766742e+02 
       1.319039970183e-04       5.785234129331e+02 
       1.660572937635e-04       7.223242666092e+02 
       2.090537469327e-04       9.017396271824e+02 
       2.631830744443e-04       1.125468123749e+03 
       3.313278603720e-04       1.404223053681e+03 
       4.171170630578e-04       1.751108028789e+03 
       5.251192703764e-04       2.181998448133e+03 
       6.610859936996e-04       2.715889983592e+03 
       8.322579568497e-04       3.375152337134e+03 
       1.047750691046e-03       4.185552174305e+03 
       1.319039970183e-03       5.175742742850e+03 
       1.660572937635e-03       6.376123051776e+03 
       2.090537469327e-03       7.815671866302e+03 
       2.631830744443e-03       9.517783069112e+03 
       3.313278603720e-03       1.149357460346e+04 
       4.171170630578e-03       1.373266009108e+04 
       5.251192703764e-03       1.619063614560e+04 
       6.610859936996e-03       1.877460426309e+04 
       8.322579568497e-03       2.132606989327e+04 
       1.047750691046e-02       2.360548429577e+04 
       1.319039970183e-02       2.528218712446e+04 
       1.660572937633e-02       2.595026927510e+04 
       2.090537453514e-02       2.520937349848e+04 
       2.631818545635e-02       2.287032812166e+04 
       3.311571692125e-02       1.928625599852e+04 
       4.113809243311e-02       1.568428231804e+04 
       4.792590854610e-02       1.361061372236e+04 
       5.284436902701e-02       1.259127924975e+04 
       5.689644391095e-02       1.195557103720e+04 
       6.051252627066e-02       1.147546487638e+04 
       6.388413457411e-02       1.105589782736e+04 
       6.711249296401e-02       1.064899217727e+04 
       7.025823437965e-02       1.022928421324e+04 
       7.336115587705e-02       9.784524154532e+03 
       7.644928796912e-02       9.311659888677e+03 
       7.954353299775e-02       8.814556692250e+03 
       8.266024078725e-02       8.302128394556e+03 
       8.581273398637e-02       7.786972067629e+03 
       8.901225918437e-02       7.283173546333e+03 
       9.226860540985e-02       6.805168676966e+03 
       9.559052048996e-02       6.365634368130e+03 
       9.898599946599e-02       5.974424774704e+03 
       1.024624891378e-01       5.637318221266e+03 
       1.060270359164e-01       5.355760693091e+03 
       1.096863943056e-01       5.126247204149e+03 
       1.134471073830e-01       4.940469095991e+03 
       1.173155669539e-01       4.786168016549e+03 
       1.212980586983e-01       4.647945597455e+03 
       1.254007961065e-01       4.509148928842e+03 
       1.296299459934e-01       4.354545839658e+03 
       1.339916477160e-01       4.173211946917e+03 
       1.384920277736e-01       3.961164626297e+03 
       1.431372111762e-01       3.722686821765e+03 
       1.479333307714e-01       3.469552745275e+03 
       1.528865355934e-01       3.218343969553e+03 
       1.580029992204e-01       2.986292568534e+03 
       1.632889290723e-01       2.786968191796e+03 
       1.687505775527e-01       2.626831385697e+03 
       1.743942559171e-01       2.503754768561e+03 
       1.802263517371e-01       2.407341234893e+03 
       1.862533508214e-01       2.322246404715e+03 
       1.924818644494e-01       2.231551663788e+03 
       1.989186627765e-01       2.122188749415e+03 
       2.055707152847e-01       1.992023960901e+03 
       2.124452391818e-01       1.850325669954e+03 
       2.195497567139e-01       1.712181036674e+03 
       2.268921624510e-01       1.590988652340e+03 
       2.344808017550e-01       1.493668600577e+03 
       2.423245618548e-01       1.418309383817e+03 
       2.504329772620e-01       1.354463821144e+03 
       2.588163516754e-01       1.288935651155e+03 
       2.674858990930e-01       1.213939548780e+03 
       2.764539076010e-01       1.130697295921e+03 
       2.857339303080e-01       1.048103069131e+03 
       2.953410092148e-01       9.761795811861e+02 
       3.052919395542e-01       9.178108831940e+02 
       3.156055844677e-01       8.678986855489e+02 
       3.263032530092e-01       8.185268369135e+02 
       3.374091587054e-01       7.651459911601e+02 
       3.489509817175e-01       7.106720266934e+02 
       3.609605657343e-01       6.607875439039e+02 
       3.734747921333e-01       6.180872175440e+02 
       3.865366902904e-01       5.793120988818e+02 
       4.001968667448e-01       5.403912329475e+02 
       4.145153713076e-01       5.011507359080e+02 
       4.295641718077e-01       4.644999578253e+02 
       4.454304922144e-01       4.314083326296e+02 
       4.622214006969e-01       4.001130938803e+02 
       4.800702491654e-01       3.690906560755e+02 
       4.991459272112e-01       3.394764147264e+02 
       5.196665217302e-01       3.119848307703e+02 
       5.419201087032e-01       2.852464091162e+02 
       5.662975451962e-01       2.593308635545e+02 
       5.933463737275e-01       2.345481077775e+02 
       6.238638458458e-01       2.102311783618e+02 
       6.590669257916e-01       1.864334639008e+02 
       7.009246080454e-01       1.627257462303e+02 
       7.528593308799e-01       1.388182738575e+02 
       8.213469537518e-01       1.141882491945e+02 
       9.196980813302e-01       8.835970394167e+01 
       1.075112183810e+00       6.172624559265e+01 
       1.322697471132e+00       3.804273755774e+01 
       1.662328205042e+00       2.209807013003e+01 
       2.092692408506e+00       1.266913084994e+01 
       2.634543445090e+00       7.203301215334e+00 
       3.316693691389e+00       4.065149313040e+00 
       4.175469971226e+00       2.278616322116e+00 
       5.256605252960e+00       1.269342761112e+00 
       6.617673932723e+00       7.031407159759e-01 
       8.331157880872e+00       3.874794344629e-01 
       1.048830636590e+01       2.125116070148e-01 
       1.320399541071e+01       1.160364711234e-01 
       1.662284535976e+01       6.309873438408e-02 
       2.092692243973e+01       3.417949886742e-02 
       2.634543445002e+01       1.844584565189e-02 
       3.316693691389e+01       9.919114042575e-03 
       4.175469971226e+01       5.314599076483e-03 
       5.256605252960e+01       2.836667696104e-03 
       6.617673932723e+01       1.507677480972e-03 
