# Matter power spectrum P(k) at redshift z=0
# for k=1.04775e-05 to 66.1767 h/Mpc,
# number of wavenumbers equal to 130
#    1:k (h/Mpc)              2:P (Mpc/h)^3        
       1.047750691046e-05       5.020964811306e+01 
       1.319039970183e-05       6.270562594780e+01 
       1.660572937635e-05       7.831147247912e+01 
       2.090537469327e-05       9.780108069296e+01 
       2.631830744443e-05       1.221408203809e+02 
       3.313278603720e-05       1.525374501932e+02 
       4.171170630578e-05       1.904975994010e+02 
       5.251192703764e-05       2.379022224249e+02 
       6.610859936996e-05       2.970989227882e+02 
       8.322579568497e-05       3.710167318946e+02 
       1.047750691046e-04       4.633080766742e+02 
       1.319039970183e-04       5.785234129333e+02 
       1.660572937635e-04       7.223242666092e+02 
       2.090537469327e-04       9.017396271824e+02 
       2.631830744443e-04       1.125468123750e+03 
       3.313278603720e-04       1.404223053681e+03 
       4.171170630578e-04       1.751108028790e+03 
       5.251192703764e-04       2.181998448133e+03 
       6.610859936996e-04       2.715889983592e+03 
       8.322579568497e-04       3.375152337133e+03 
       1.047750691046e-03       4.185552174305e+03 
       1.319039970183e-03       5.175742744605e+03 
       1.660572937635e-03       6.376123051788e+03 
       2.090537469327e-03       7.815671865723e+03 
       2.631830744443e-03       9.517783069111e+03 
       3.313278603720e-03       1.149357460339e+04 
       4.171170630578e-03       1.373266011995e+04 
       5.251192703764e-03       1.619063614368e+04 
       6.610859936996e-03       1.877460418272e+04 
       8.322579568497e-03       2.132607233421e+04 
       1.047750691046e-02       2.360548859889e+04 
       1.319039970183e-02       2.528218655692e+04 
       1.660572937633e-02       2.595027901634e+04 
       2.090537453514e-02       2.520935124082e+04 
       2.631818545635e-02       2.287037261712e+04 
       3.311571692125e-02       1.928628988629e+04 
       4.113809243311e-02       1.568420832982e+04 
       4.792590854610e-02       1.361063081247e+04 
       5.284436902701e-02       1.259130910020e+04 
       5.689644391095e-02       1.195555558478e+04 
       6.051252627066e-02       1.147546027943e+04 
       6.388413457411e-02       1.105589087730e+04 
       6.711249296401e-02       1.064896551965e+04 
       7.025823437965e-02       1.022927903262e+04 
       7.336115587705e-02       9.784540516313e+03 
       7.644928796912e-02       9.311677189967e+03 
       7.954353299775e-02       8.814488776523e+03 
       8.266024078725e-02       8.302185595614e+03 
       8.581273398637e-02       7.786977481496e+03 
       8.901225918437e-02       7.283224720593e+03 
       9.226860540985e-02       6.805205798344e+03 
       9.559052048996e-02       6.365632546619e+03 
       9.898599946599e-02       5.974425045501e+03 
       1.024624891378e-01       5.637367330221e+03 
       1.060270359164e-01       5.355797746325e+03 
       1.096863943056e-01       5.126254023025e+03 
       1.134471073830e-01       4.940489083138e+03 
       1.173155669539e-01       4.786167345091e+03 
       1.212980586983e-01       4.647941780260e+03 
       1.254007961065e-01       4.509159268082e+03 
       1.296299459934e-01       4.354557800045e+03 
       1.339916477160e-01       4.173227611434e+03 
       1.384920277736e-01       3.961148977395e+03 
       1.431372111762e-01       3.722703370307e+03 
       1.479333307714e-01       3.469568123479e+03 
       1.528865355934e-01       3.218359527280e+03 
       1.580029992204e-01       2.986273368597e+03 
       1.632889290723e-01       2.786952379576e+03 
       1.687505775527e-01       2.626816906324e+03 
       1.743942559171e-01       2.503764461613e+03 
       1.802263517371e-01       2.407329892358e+03 
       1.862533508214e-01       2.322225275213e+03 
       1.924818644494e-01       2.231549573836e+03 
       1.989186627765e-01       2.122182635489e+03 
       2.055707152847e-01       1.992014913526e+03 
       2.124452391818e-01       1.850313909956e+03 
       2.195497567139e-01       1.712168131364e+03 
       2.268921624510e-01       1.590982462616e+03 
       2.344808017550e-01       1.493661544859e+03 
       2.423245618548e-01       1.418313063973e+03 
       2.504329772620e-01       1.354458535395e+03 
       2.588163516754e-01       1.288928900470e+03 
       2.674858990930e-01       1.213933434311e+03 
       2.764539076010e-01       1.130687488610e+03 
       2.857339303080e-01       1.048092665362e+03 
       2.953410092148e-01       9.761746373289e+02 
       3.052919395542e-01       9.178051432886e+02 
       3.156055844677e-01       8.678901087952e+02 
       3.263032530092e-01       8.185207433098e+02 
       3.374091587054e-01       7.651444327874e+02 
       3.489509817175e-01       7.106661255894e+02 
       3.609605657343e-01       6.607809573134e+02 
       3.734747921333e-01       6.180815021140e+02 
       3.865366902904e-01       5.793030472542e+02 
       4.001968667448e-01       5.403880192643e+02 
       4.145153713076e-01       5.011472847160e+02 
       4.295641718077e-01       4.644961174502e+02 
       4.454304922144e-01       4.314022501076e+02 
       4.622214006969e-01       4.001111319135e+02 
       4.800702491654e-01       3.690868536826e+02 
       4.991459272112e-01       3.394732380826e+02 
       5.196665217302e-01       3.119835333093e+02 
       5.419201087032e-01       2.852449929006e+02 
       5.662975451962e-01       2.593300117739e+02 
       5.933463737275e-01       2.345452793193e+02 
       6.238638458458e-01       2.102271326748e+02 
       6.590669257916e-01       1.864318223271e+02 
       7.009246080454e-01       1.627236180558e+02 
       7.528593308799e-01       1.388179016654e+02 
       8.213469537518e-01       1.141875668049e+02 
       9.196980813302e-01       8.835861328935e+01 
       1.075112183810e+00       6.172566295643e+01 
       1.322697471132e+00       3.804293255965e+01 
       1.662328205042e+00       2.209775013542e+01 
       2.092692408506e+00       1.266904013883e+01 
       2.634543445090e+00       7.203249154400e+00 
       3.316693691389e+00       4.065087557383e+00 
       4.175469971226e+00       2.278571637943e+00 
       5.256605252960e+00       1.269323827654e+00 
       6.617673932723e+00       7.031154633070e-01 
       8.331157880872e+00       3.874566431544e-01 
       1.048830636590e+01       2.124924439340e-01 
       1.320399541071e+01       1.160206511599e-01 
       1.662284535976e+01       6.308393573524e-02 
       2.092692243973e+01       3.416583083588e-02 
       2.634543445002e+01       1.843348338078e-02 
       3.316693691389e+01       9.907834746350e-03 
       4.175469971226e+01       5.304294492948e-03 
       5.256605252960e+01       2.827479331885e-03 
       6.617673932723e+01       1.499469643023e-03 
