# Matter power spectrum P(k) at redshift z=0
# for k=1.04775e-05 to 66.1767 h/Mpc,
# number of wavenumbers equal to 130
#    1:k (h/Mpc)              2:P (Mpc/h)^3        
       1.047750691046e-05       5.020964811308e+01 
       1.319039970183e-05       6.270562594779e+01 
       1.660572937635e-05       7.831147247912e+01 
       2.090537469327e-05       9.780108069296e+01 
       2.631830744443e-05       1.221408203809e+02 
       3.313278603720e-05       1.525374501932e+02 
       4.171170630578e-05       1.904975994009e+02 
       5.251192703764e-05       2.379022224249e+02 
       6.610859936996e-05       2.970989227883e+02 
       8.322579568497e-05       3.710167318946e+02 
       1.047750691046e-04       4.633080766742e+02 
       1.319039970183e-04       5.785234129349e+02 
       1.660572937635e-04       7.223242666092e+02 
       2.090537469327e-04       9.017396271824e+02 
       2.631830744443e-04       1.125468123750e+03 
       3.313278603720e-04       1.404223053681e+03 
       4.171170630578e-04       1.751108028790e+03 
       5.251192703764e-04       2.181998448133e+03 
       6.610859936996e-04       2.715889983592e+03 
       8.322579568497e-04       3.375152337135e+03 
       1.047750691046e-03       4.185552174306e+03 
       1.319039970183e-03       5.175742739293e+03 
       1.660572937635e-03       6.376123051778e+03 
       2.090537469327e-03       7.815671866261e+03 
       2.631830744443e-03       9.517783069110e+03 
       3.313278603720e-03       1.149357460340e+04 
       4.171170630578e-03       1.373266010607e+04 
       5.251192703764e-03       1.619063614293e+04 
       6.610859936996e-03       1.877460416080e+04 
       8.322579568497e-03       2.132607233974e+04 
       1.047750691046e-02       2.360548444490e+04 
       1.319039970183e-02       2.528218623969e+04 
       1.660572937633e-02       2.595028645501e+04 
       2.090537453514e-02       2.520934885885e+04 
       2.631818545635e-02       2.287036259252e+04 
       3.311571692125e-02       1.928624394493e+04 
       4.113809243311e-02       1.568425174788e+04 
       4.792590854610e-02       1.361064050375e+04 
       5.284436902701e-02       1.259130049501e+04 
       5.689644391095e-02       1.195556116196e+04 
       6.051252627066e-02       1.147546509398e+04 
       6.388413457411e-02       1.105590851363e+04 
       6.711249296401e-02       1.064897195326e+04 
       7.025823437965e-02       1.022933500492e+04 
       7.336115587705e-02       9.784582544393e+03 
       7.644928796912e-02       9.311632211375e+03 
       7.954353299775e-02       8.814585323767e+03 
       8.266024078725e-02       8.302131146152e+03 
       8.581273398637e-02       7.786930007066e+03 
       8.901225918437e-02       7.283250573260e+03 
       9.226860540985e-02       6.805219230602e+03 
       9.559052048996e-02       6.365676161652e+03 
       9.898599946599e-02       5.974402942201e+03 
       1.024624891378e-01       5.637387209336e+03 
       1.060270359164e-01       5.355792877992e+03 
       1.096863943056e-01       5.126272294983e+03 
       1.134471073830e-01       4.940485785195e+03 
       1.173155669539e-01       4.786173760184e+03 
       1.212980586983e-01       4.647949306543e+03 
       1.254007961065e-01       4.509157963315e+03 
       1.296299459934e-01       4.354570732965e+03 
       1.339916477160e-01       4.173234422199e+03 
       1.384920277736e-01       3.961201455124e+03 
       1.431372111762e-01       3.722672339355e+03 
       1.479333307714e-01       3.469556398410e+03 
       1.528865355934e-01       3.218349442882e+03 
       1.580029992204e-01       2.986266444217e+03 
       1.632889290723e-01       2.786961578599e+03 
       1.687505775527e-01       2.626821214672e+03 
       1.743942559171e-01       2.503767742288e+03 
       1.802263517371e-01       2.407339254028e+03 
       1.862533508214e-01       2.322229976812e+03 
       1.924818644494e-01       2.231545795292e+03 
       1.989186627765e-01       2.122177251486e+03 
       2.055707152847e-01       1.992009874563e+03 
       2.124452391818e-01       1.850314726191e+03 
       2.195497567139e-01       1.712164496539e+03 
       2.268921624510e-01       1.590977831104e+03 
       2.344808017550e-01       1.493660653815e+03 
       2.423245618548e-01       1.418309464292e+03 
       2.504329772620e-01       1.354463283399e+03 
       2.588163516754e-01       1.288925784296e+03 
       2.674858990930e-01       1.213928532459e+03 
       2.764539076010e-01       1.130694124868e+03 
       2.857339303080e-01       1.048091937066e+03 
       2.953410092148e-01       9.761681047482e+02 
       3.052919395542e-01       9.178011894260e+02 
       3.156055844677e-01       8.678929917361e+02 
       3.263032530092e-01       8.185211898195e+02 
       3.374091587054e-01       7.651464047624e+02 
       3.489509817175e-01       7.106665479141e+02 
       3.609605657343e-01       6.607798332983e+02 
       3.734747921333e-01       6.180796624658e+02 
       3.865366902904e-01       5.793062077202e+02 
       4.001968667448e-01       5.403876891656e+02 
       4.145153713076e-01       5.011473608474e+02 
       4.295641718077e-01       4.644944805487e+02 
       4.454304922144e-01       4.314034596245e+02 
       4.622214006969e-01       4.001114437538e+02 
       4.800702491654e-01       3.690875436820e+02 
       4.991459272112e-01       3.394704917819e+02 
       5.196665217302e-01       3.119830501413e+02 
       5.419201087032e-01       2.852422784303e+02 
       5.662975451962e-01       2.593267497063e+02 
       5.933463737275e-01       2.345446227637e+02 
       6.238638458458e-01       2.102288964480e+02 
       6.590669257916e-01       1.864327706612e+02 
       7.009246080454e-01       1.627239128476e+02 
       7.528593308799e-01       1.388169203582e+02 
       8.213469537518e-01       1.141877029738e+02 
       9.196980813302e-01       8.835851511694e+01 
       1.075112183810e+00       6.172566980309e+01 
       1.322697471132e+00       3.804284775110e+01 
       1.662328205042e+00       2.209771508478e+01 
       2.092692408506e+00       1.266905220580e+01 
       2.634543445090e+00       7.203199388942e+00 
       3.316693691389e+00       4.065090514784e+00 
       4.175469971226e+00       2.278586047292e+00 
       5.256605252960e+00       1.269318313615e+00 
       6.617673932723e+00       7.031029758582e-01 
       8.331157880872e+00       3.874511247825e-01 
       1.048830636590e+01       2.124845985867e-01 
       1.320399541071e+01       1.160141810490e-01 
       1.662284535976e+01       6.307822993541e-02 
       2.092692243973e+01       3.416018992895e-02 
       2.634543445002e+01       1.842856000595e-02 
       3.316693691389e+01       9.903323678293e-03 
       4.175469971226e+01       5.300240441527e-03 
       5.256605252960e+01       2.823861581039e-03 
       6.617673932723e+01       1.496244248734e-03 
