# Matter power spectrum P(k) at redshift z=0
# for k=1.04775e-05 to 66.1767 h/Mpc,
# number of wavenumbers equal to 130
#    1:k (h/Mpc)              2:P (Mpc/h)^3        
       1.047750691046e-05       5.020964811308e+01 
       1.319039970183e-05       6.270562594782e+01 
       1.660572937635e-05       7.831147247912e+01 
       2.090537469327e-05       9.780108069295e+01 
       2.631830744443e-05       1.221408203809e+02 
       3.313278603720e-05       1.525374501932e+02 
       4.171170630578e-05       1.904975994010e+02 
       5.251192703764e-05       2.379022224249e+02 
       6.610859936996e-05       2.970989227881e+02 
       8.322579568497e-05       3.710167318945e+02 
       1.047750691046e-04       4.633080766741e+02 
       1.319039970183e-04       5.785234129336e+02 
       1.660572937635e-04       7.223242666091e+02 
       2.090537469327e-04       9.017396271822e+02 
       2.631830744443e-04       1.125468123749e+03 
       3.313278603720e-04       1.404223053680e+03 
       4.171170630578e-04       1.751108028788e+03 
       5.251192703764e-04       2.181998448129e+03 
       6.610859936996e-04       2.715889983585e+03 
       8.322579568497e-04       3.375152337120e+03 
       1.047750691046e-03       4.185552174253e+03 
       1.319039970183e-03       5.175742739318e+03 
       1.660572937635e-03       6.376123051690e+03 
       2.090537469327e-03       7.815671904626e+03 
       2.631830744443e-03       9.517783068575e+03 
       3.313278603720e-03       1.149357460237e+04 
       4.171170630578e-03       1.373266012800e+04 
       5.251192703764e-03       1.619063556119e+04 
       6.610859936996e-03       1.877460435761e+04 
       8.322579568497e-03       2.132611355715e+04 
       1.047750691046e-02       2.360548023441e+04 
       1.319039970183e-02       2.528219713303e+04 
       1.660572937633e-02       2.595035908758e+04 
       2.090537453514e-02       2.520935363464e+04 
       2.631818545635e-02       2.287028379101e+04 
       3.311571692125e-02       1.928620250323e+04 
       4.113809243311e-02       1.568427041487e+04 
       4.792590854610e-02       1.361056457403e+04 
       5.284436902701e-02       1.259122809195e+04 
       5.689644391095e-02       1.195548552871e+04 
       6.051252627066e-02       1.147547710819e+04 
       6.388413457411e-02       1.105563693021e+04 
       6.711249296401e-02       1.064886235360e+04 
       7.025823437965e-02       1.022931143982e+04 
       7.336115587705e-02       9.784557921086e+03 
       7.644928796912e-02       9.311699484750e+03 
       7.954353299775e-02       8.814281727411e+03 
       8.266024078725e-02       8.302158631072e+03 
       8.581273398637e-02       7.786929507156e+03 
       8.901225918437e-02       7.283177185674e+03 
       9.226860540985e-02       6.805194604469e+03 
       9.559052048996e-02       6.365610305495e+03 
       9.898599946599e-02       5.974384031620e+03 
       1.024624891378e-01       5.637339948512e+03 
       1.060270359164e-01       5.355787821454e+03 
       1.096863943056e-01       5.126285158953e+03 
       1.134471073830e-01       4.940474913856e+03 
       1.173155669539e-01       4.786152768724e+03 
       1.212980586983e-01       4.647918418163e+03 
       1.254007961065e-01       4.509030619297e+03 
       1.296299459934e-01       4.354544573170e+03 
       1.339916477160e-01       4.173134913272e+03 
       1.384920277736e-01       3.961170243216e+03 
       1.431372111762e-01       3.722585012097e+03 
       1.479333307714e-01       3.469541998084e+03 
       1.528865355934e-01       3.218311893169e+03 
       1.580029992204e-01       2.986234759656e+03 
       1.632889290723e-01       2.786935834202e+03 
       1.687505775527e-01       2.626805349457e+03 
       1.743942559171e-01       2.503749139201e+03 
       1.802263517371e-01       2.407293906355e+03 
       1.862533508214e-01       2.322250834905e+03 
       1.924818644494e-01       2.231555529909e+03 
       1.989186627765e-01       2.122201090891e+03 
       2.055707152847e-01       1.992034865051e+03 
       2.124452391818e-01       1.850297855972e+03 
       2.195497567139e-01       1.712148175475e+03 
       2.268921624510e-01       1.590963082254e+03 
       2.344808017550e-01       1.493645410323e+03 
       2.423245618548e-01       1.418285854083e+03 
       2.504329772620e-01       1.354430145675e+03 
       2.588163516754e-01       1.288915906122e+03 
       2.674858990930e-01       1.213887574853e+03 
       2.764539076010e-01       1.130663014806e+03 
       2.857339303080e-01       1.048067499552e+03 
       2.953410092148e-01       9.761563018428e+02 
       3.052919395542e-01       9.177813187559e+02 
       3.156055844677e-01       8.678625989605e+02 
       3.263032530092e-01       8.185003182131e+02 
       3.374091587054e-01       7.651124283818e+02 
       3.489509817175e-01       7.106374938458e+02 
       3.609605657343e-01       6.607527087330e+02 
       3.734747921333e-01       6.180553766036e+02 
       3.865366902904e-01       5.792753223806e+02 
       4.001968667448e-01       5.403552782125e+02 
       4.145153713076e-01       5.011205585032e+02 
       4.295641718077e-01       4.644618663742e+02 
       4.454304922144e-01       4.313723918453e+02 
       4.622214006969e-01       4.000733591288e+02 
       4.800702491654e-01       3.690509336477e+02 
       4.991459272112e-01       3.394353048285e+02 
       5.196665217302e-01       3.119425313131e+02 
       5.419201087032e-01       2.852019533995e+02 
       5.662975451962e-01       2.592812068142e+02 
       5.933463737275e-01       2.344989114154e+02 
       6.238638458458e-01       2.101779289035e+02 
       6.590669257916e-01       1.863772868163e+02 
       7.009246080454e-01       1.626641271039e+02 
       7.528593308799e-01       1.387515287992e+02 
       8.213469537518e-01       1.141148734461e+02 
       9.196980813302e-01       8.827411254199e+01 
       1.075112183810e+00       6.162284429652e+01 
       1.322697471132e+00       3.791015321666e+01 
       1.662328205042e+00       2.192454151192e+01 
       2.092692408506e+00       1.244465381830e+01 
       2.634543445090e+00       6.917712060902e+00 
       3.316693691389e+00       3.711585373127e+00 
       4.175469971226e+00       1.859103813802e+00 
       5.256605252960e+00       8.050779840312e-01 
       6.617673932723e+00       2.465310564336e-01 
       8.331157880872e+00       2.253977131724e-02 
       1.048830636590e+01       1.465430488291e-02 
       1.320399541071e+01       6.819029515311e-02 
       1.662284535976e+01       4.649455480210e-02 
       2.092692243973e+01       8.190983052303e-04 
       2.634543445002e+01       9.682929862969e-03 
       3.316693691389e+01       6.278915402317e-04 
       4.175469971226e+01       1.397677906523e-03 
       5.256605252960e+01       2.048109061486e-04 
       6.617673932723e+01       2.546863298614e-05 
