# Matter power spectrum P(k) at redshift z=99
# for k=1.04775e-05 to 67.6233 h/Mpc,
# number of wavenumbers equal to 246
#    1:k (h/Mpc)              2:P (Mpc/h)^3        
       1.047750691046e-05       7.261927680861e-03 
       1.131335172503e-05       7.820331652431e-03 
       1.221587619537e-05       8.421675995454e-03 
       1.319039970183e-05       9.069258201848e-03 
       1.424266597921e-05       9.766638412133e-03 
       1.537887696968e-05       1.051764070801e-02 
       1.660572937635e-05       1.132639106725e-02 
       1.793045413292e-05       1.219733232715e-02 
       1.936085902198e-05       1.313524225779e-02 
       2.090537469327e-05       1.414527123399e-02 
       2.257310435294e-05       1.523296273823e-02 
       2.437387741694e-05       1.640429446288e-02 
       2.631830744443e-05       1.766569584058e-02 
       2.841785469300e-05       1.902408737005e-02 
       3.068489366414e-05       2.048692972772e-02 
       3.313278603720e-05       2.206225515942e-02 
       3.577595942169e-05       2.375870707438e-02 
       3.862999239199e-05       2.558560730202e-02 
       4.171170630578e-05       2.755297766277e-02 
       4.503926444729e-05       2.967161930474e-02 
       4.863227907969e-05       3.195316454233e-02 
       5.251192703764e-05       3.441013522947e-02 
       5.670107454120e-05       3.705601726471e-02 
       6.122441196689e-05       3.990533417797e-02 
       6.610859936996e-05       4.297372172777e-02 
       7.138242361596e-05       4.627802146614e-02 
       7.707696804727e-05       4.983636199464e-02 
       8.322579568497e-05       5.366826852944e-02 
       8.986514704559e-05       5.779476400720e-02 
       9.703415373875e-05       6.223848250510e-02 
       1.047750691046e-04       6.702379872774e-02 
       1.131335172503e-04       7.217695161063e-02 
       1.221587619537e-04       7.772619081845e-02 
       1.319039970183e-04       8.370193441286e-02 
       1.424266597921e-04       9.013692517140e-02 
       1.537887696968e-04       9.706641252902e-02 
       1.660572937635e-04       1.045283355384e-01 
       1.793045413292e-04       1.125635350266e-01 
       1.936085902198e-04       1.212159616259e-01 
       2.090537469327e-04       1.305329134104e-01 
       2.257310435294e-04       1.405652847711e-01 
       2.437387741694e-04       1.513678304151e-01 
       2.631830744443e-04       1.629994506605e-01 
       2.841785469300e-04       1.755234923092e-01 
       3.068489366414e-04       1.890080672425e-01 
       3.313278603720e-04       2.035264004601e-01 
       3.577595942169e-04       2.191571806013e-01 
       3.862999239199e-04       2.359849440104e-01 
       4.171170630578e-04       2.541004744243e-01 
       4.503926444729e-04       2.736012083189e-01 
       4.863227907969e-04       2.945916794099e-01 
       5.251192703764e-04       3.171839528557e-01 
       5.670107454121e-04       3.414980767635e-01 
       6.122441196689e-04       3.676625417011e-01 
       6.610859936996e-04       3.958147256513e-01 
       7.138242361596e-04       4.261013289356e-01 
       7.707696804727e-04       4.586787797352e-01 
       8.322579568497e-04       4.937136006297e-01 
       8.986514704559e-04       5.313826807049e-01 
       9.703415373875e-04       5.718734978233e-01 
       1.047750691046e-03       6.153841636041e-01 
       1.131335172503e-03       6.621233246495e-01 
       1.221587619537e-03       7.123098227985e-01 
       1.319039970183e-03       7.661720592554e-01 
       1.424266597921e-03       8.239546306466e-01 
       1.537887696968e-03       8.859011182851e-01 
       1.660572937635e-03       9.522588016480e-01 
       1.793045413292e-03       1.023280100902e+00 
       1.936085902198e-03       1.099216305740e+00 
       2.090537469327e-03       1.180312991699e+00 
       2.257310435294e-03       1.266804117184e+00 
       2.437387741694e-03       1.358904854832e+00 
       2.631830744443e-03       1.456802684686e+00 
       2.841785469300e-03       1.560646892157e+00 
       3.068489366414e-03       1.670536064245e+00 
       3.313278603720e-03       1.786503854043e+00 
       3.577595942169e-03       1.908502932772e+00 
       3.862999239199e-03       2.036387732815e+00 
       4.171170630578e-03       2.169896193791e+00 
       4.503926444729e-03       2.308631881359e+00 
       4.863227907969e-03       2.452047293460e+00 
       5.251192703764e-03       2.599430630722e+00 
       5.670107454120e-03       2.749896934553e+00 
       6.122441196689e-03       2.902386516276e+00 
       6.610859936996e-03       3.055668698913e+00 
       7.138242361596e-03       3.208356464662e+00 
       7.707696804727e-03       3.358923895825e+00 
       8.322579568496e-03       3.505725598431e+00 
       8.986514704559e-03       3.647009395151e+00 
       9.703415373875e-03       3.780923307752e+00 
       1.047750691046e-02       3.905491072384e+00 
       1.131335172503e-02       4.018587644835e+00 
       1.221587619537e-02       4.117901589894e+00 
       1.319039970183e-02       4.200915393002e+00 
       1.424266597920e-02       4.264942389813e+00 
       1.537887696964e-02       4.307216713901e+00 
       1.660572937560e-02       4.325059988630e+00 
       1.793045412207e-02       4.316058699221e+00 
       1.936085889642e-02       4.278228858145e+00 
       2.090537351881e-02       4.210202953181e+00 
       2.257309534705e-02       4.111421301935e+00 
       2.437382002240e-02       3.982418515405e+00 
       2.631799943729e-02       3.825166882610e+00 
       2.841644544598e-02       3.643279758119e+00 
       3.067933354524e-02       3.442197720891e+00 
       3.311368469821e-02       3.229241211623e+00 
       3.571840442514e-02       3.013511365526e+00 
       3.847720347390e-02       2.805282499336e+00 
       4.135335537314e-02       2.614407268184e+00 
       4.429361666563e-02       2.448129043731e+00 
       4.724366437916e-02       2.309236205841e+00 
       5.016480834039e-02       2.196109996930e+00 
       5.303989618930e-02       2.104368943252e+00 
       5.586870668205e-02       2.028463154962e+00 
       5.866042679206e-02       1.963153777810e+00 
       6.142798931504e-02       1.903781894113e+00 
       6.418496438662e-02       1.846476400034e+00 
       6.694418832236e-02       1.788195986082e+00 
       6.971731104453e-02       1.726715794892e+00 
       7.251476154108e-02       1.660653040813e+00 
       7.534587669814e-02       1.589470027267e+00 
       7.821907664495e-02       1.513437420426e+00 
       8.114203771084e-02       1.433570314723e+00 
       8.412184533139e-02       1.351490676624e+00 
       8.716512277352e-02       1.269273699069e+00 
       9.027813693913e-02       1.189194824764e+00 
       9.346688429613e-02       1.113500943808e+00 
       9.673716026122e-02       1.044173611362e+00 
       1.000946150608e-01       9.827059193455e-01 
       1.035447986307e-01       9.299377205579e-01 
       1.070931966524e-01       8.859632334065e-01 
       1.107452594180e-01       8.500709630645e-01 
       1.145064248899e-01       8.208034040328e-01 
       1.183821370656e-01       7.960266027857e-01 
       1.223778605591e-01       7.731468173847e-01 
       1.264990921707e-01       7.494528317396e-01 
       1.307513701078e-01       7.225576009150e-01 
       1.351402814485e-01       6.909092449846e-01 
       1.396714683894e-01       6.541799521174e-01 
       1.443506337875e-01       6.134278192186e-01 
       1.491835464900e-01       5.708678800015e-01 
       1.541760469368e-01       5.293642320126e-01 
       1.593340535209e-01       4.917109797856e-01 
       1.646635701934e-01       4.599203231798e-01 
       1.701706958081e-01       4.347286607051e-01 
       1.758616357070e-01       4.154080563390e-01 
       1.817427160581e-01       3.999371760894e-01 
       1.878204014651e-01       3.856821721011e-01 
       1.941013163855e-01       3.698101183287e-01 
       2.005922709060e-01       3.505465033837e-01 
       2.073002914514e-01       3.280428173668e-01 
       2.142326570343e-01       3.042139616027e-01 
       2.213969417044e-01       2.816123303264e-01 
       2.288010639201e-01       2.622570392159e-01 
       2.364533436625e-01       2.469622829094e-01 
       2.443625682390e-01       2.350129898713e-01 
       2.525380678946e-01       2.244177584268e-01 
       2.609898025770e-01       2.130938104448e-01 
       2.697284614969e-01       2.001015588481e-01 
       2.787655775073e-01       1.860198883786e-01 
       2.881136588192e-01       1.725175017754e-01 
       2.977863412019e-01       1.610661711146e-01 
       3.077985646248e-01       1.517611397154e-01 
       3.181667793367e-01       1.435593264658e-01 
       3.289091877084e-01       1.351814899086e-01 
       3.400460298905e-01       1.261644551273e-01 
       3.515999235695e-01       1.172018569314e-01 
       3.635962710278e-01       1.091768811348e-01 
       3.760637505499e-01       1.023093551292e-01 
       3.890349143014e-01       9.593767400008e-02 
       4.025469215929e-01       8.950757695561e-02 
       4.166424455447e-01       8.311180837112e-02 
       4.313708034899e-01       7.721530773028e-02 
       4.467893781976e-01       7.190062028874e-02 
       4.629654198623e-01       6.686915522790e-02 
       4.799783500912e-01       6.191753449860e-02 
       4.979227318246e-01       5.722251000182e-02 
       5.169121269689e-01       5.290299560879e-02 
       5.370841403262e-01       4.876973328341e-02 
       5.586070463286e-01       4.479082942042e-02 
       5.816885093582e-01       4.105187489302e-02 
       6.065870143577e-01       3.748995188535e-02 
       6.336266466978e-01       3.407640625853e-02 
       6.632156057925e-01       3.083467774548e-02 
       6.958678637575e-01       2.772831320178e-02 
       7.322247983784e-01       2.476710258369e-02 
       7.730680193171e-01       2.193960006641e-02 
       8.193049551574e-01       1.925613817919e-02 
       8.718988013754e-01       1.672928236835e-02 
       9.317218028590e-01       1.438419218365e-02 
       9.993660906273e-01       1.225070937726e-02 
       1.075037109879e+00       1.035264267478e-02 
       1.158653485387e+00       8.699727114490e-03 
       1.250099156961e+00       7.284579058291e-03 
       1.349432400897e+00       6.085470710844e-03 
       1.456947456991e+00       5.075718984117e-03 
       1.573135110893e+00       4.228312382245e-03 
       1.698621895119e+00       3.518558761519e-03 
       1.834127512423e+00       2.924967642429e-03 
       1.980444933977e+00       2.429158119602e-03 
       2.138435191130e+00       2.015507995940e-03 
       2.309029198543e+00       1.670771597336e-03 
       2.493232376993e+00       1.383784975546e-03 
       2.692130394536e+00       1.145122353148e-03 
       2.906895533764e+00       9.468501509049e-04 
       3.138793596840e+00       7.822828690186e-04 
       3.389191365541e+00       6.458151970988e-04 
       3.659564656886e+00       5.327587381436e-04 
       3.951507021438e+00       4.391758579315e-04 
       4.266739135513e+00       3.617778795209e-04 
       4.607118942658e+00       2.978168368594e-04 
       4.974652604172e+00       2.449994083387e-04 
       5.371506323193e+00       2.014212634219e-04 
       5.800019112071e+00       1.654910676591e-04 
       6.262716578240e+00       1.358871120709e-04 
       6.762325809881e+00       1.115123509259e-04 
       7.301791449077e+00       9.145684895543e-05 
       7.884293047211e+00       7.496636420471e-05 
       8.513263804891e+00       6.141467160845e-05 
       9.192410806865e+00       5.028469185473e-05 
       9.925736871166e+00       4.114992197225e-05 
       1.071756414128e+01       3.365670608034e-05 
       1.157255956041e+01       2.751303405364e-05 
       1.249576237789e+01       2.247863858912e-05 
       1.349261385000e+01       1.835537971458e-05 
       1.456898931011e+01       1.498001616087e-05 
       1.573123279727e+01       1.221800506691e-05 
       1.698619444729e+01       9.959012459550e-06 
       1.834127086665e+01       8.112299995652e-06 
       1.980444872733e+01       6.603087678949e-06 
       2.138435183937e+01       5.370102855254e-06 
       2.309029197863e+01       4.363233871624e-06 
       2.493232376942e+01       3.541248653685e-06 
       2.692130394533e+01       2.870343748139e-06 
       2.906895533764e+01       2.322936607176e-06 
       3.138793596840e+01       1.876343192301e-06 
       3.389191365541e+01       1.512129551988e-06 
       3.659564656886e+01       1.215125992297e-06 
       3.951507021438e+01       9.730182841106e-07 
       4.266739135513e+01       7.757186843889e-07 
       4.607118942658e+01       6.150276648559e-07 
       4.974652604172e+01       4.842583504632e-07 
       5.371506323193e+01       3.779921863200e-07 
       5.800019112071e+01       2.918072767538e-07 
       6.262716578240e+01       2.221453002242e-07 
       6.762325809881e+01       1.661141618427e-07 
