# Matter power spectrum P(k) at redshift z=99
# for k=1.04775e-05 to 66.1767 h/Mpc,
# number of wavenumbers equal to 130
#    1:k (h/Mpc)              2:P (Mpc/h)^3        
       1.047750691046e-05       7.261927686316e-03 
       1.319039970183e-05       9.069258208660e-03 
       1.660572937635e-05       1.132639107576e-02 
       2.090537469327e-05       1.414527124461e-02 
       2.631830744443e-05       1.766569585385e-02 
       3.313278603720e-05       2.206225517599e-02 
       4.171170630578e-05       2.755297768345e-02 
       5.251192703764e-05       3.441013525530e-02 
       6.610859936996e-05       4.297372175999e-02 
       8.322579568497e-05       5.366826856961e-02 
       1.047750691046e-04       6.702379877785e-02 
       1.319039970183e-04       8.370193447527e-02 
       1.660572937635e-04       1.045283356160e-01 
       2.090537469327e-04       1.305329135066e-01 
       2.631830744443e-04       1.629994507794e-01 
       3.313278603720e-04       2.035264006059e-01 
       4.171170630578e-04       2.541004746012e-01 
       5.251192703764e-04       3.171839530661e-01 
       6.610859936996e-04       3.958147258941e-01 
       8.322579568497e-04       4.937136008911e-01 
       1.047750691046e-03       6.153841638529e-01 
       1.319039970183e-03       7.661720593896e-01 
       1.660572937635e-03       9.522588014463e-01 
       2.090537469327e-03       1.180312990647e+00 
       2.631830744443e-03       1.456802681723e+00 
       3.313278603720e-03       1.786503847053e+00 
       4.171170630578e-03       2.169896178934e+00 
       5.251192703764e-03       2.599430598870e+00 
       6.610859936996e-03       3.055668637929e+00 
       8.322579568497e-03       3.505725245601e+00 
       1.047750691046e-02       3.905490659552e+00 
       1.319039970183e-02       4.200915016897e+00 
       1.660572937633e-02       4.325060183139e+00 
       2.090537453514e-02       4.210192719420e+00 
       2.631818545635e-02       3.825136567483e+00 
       3.311571692125e-02       3.229030196720e+00 
       4.113809243311e-02       2.627659677944e+00 
       4.792590854610e-02       2.280704335160e+00 
       5.284436902701e-02       2.109971677953e+00 
       5.689644391095e-02       2.003402623670e+00 
       6.051252627066e-02       1.922898127113e+00 
       6.388413457411e-02       1.852545277339e+00 
       6.711249296401e-02       1.784355063691e+00 
       7.025823437965e-02       1.714038739670e+00 
       7.336115587705e-02       1.639556580424e+00 
       7.644928796912e-02       1.560373899917e+00 
       7.954353299775e-02       1.477139049842e+00 
       8.266024078725e-02       1.391356661562e+00 
       8.581273398637e-02       1.305088954083e+00 
       8.901225918437e-02       1.220723523146e+00 
       9.226860540985e-02       1.140647633223e+00 
       9.559052048996e-02       1.066991610337e+00 
       9.898599946599e-02       1.001397549798e+00 
       1.024624891378e-01       9.448571998514e-01 
       1.060270359164e-01       8.975875012064e-01 
       1.096863943056e-01       8.590159598735e-01 
       1.134471073830e-01       8.277641575850e-01 
       1.173155669539e-01       8.017778290362e-01 
       1.212980586983e-01       7.784877997526e-01 
       1.254007961065e-01       7.551231713353e-01 
       1.296299459934e-01       7.291292879987e-01 
       1.339916477160e-01       6.986778767428e-01 
       1.384920277736e-01       6.631003585966e-01 
       1.431372111762e-01       6.231073198461e-01 
       1.479333307714e-01       5.806638165585e-01 
       1.528865355934e-01       5.385328738885e-01 
       1.580029992204e-01       4.995909902973e-01 
       1.632889290723e-01       4.661099823662e-01 
       1.687505775527e-01       4.391723762423e-01 
       1.743942559171e-01       4.184215699120e-01 
       1.802263517371e-01       4.021233294641e-01 
       1.862533508214e-01       3.877217732252e-01 
       1.924818644494e-01       3.723890123199e-01 
       1.989186627765e-01       3.539485462687e-01 
       2.055707152847e-01       3.320431865731e-01 
       2.124452391818e-01       3.082100301877e-01 
       2.195497567139e-01       2.849657209118e-01 
       2.268921624510e-01       2.645449194766e-01 
       2.344808017550e-01       2.481016729449e-01 
       2.423245618548e-01       2.353170168082e-01 
       2.504329772620e-01       2.244479063418e-01 
       2.588163516754e-01       2.132977364106e-01 
       2.674858990930e-01       2.005765152920e-01 
       2.764539076010e-01       1.864855948635e-01 
       2.857339303080e-01       1.725027562477e-01 
       2.953410092148e-01       1.602928609632e-01 
       3.052919395542e-01       1.503274897927e-01 
       3.156055844677e-01       1.417630820553e-01 
       3.263032530092e-01       1.332882054086e-01 
       3.374091587054e-01       1.241517286492e-01 
       3.489509817175e-01       1.148361967589e-01 
       3.609605657343e-01       1.062786003862e-01 
       3.734747921333e-01       9.890274160308e-02 
       3.865366902904e-01       9.217075260199e-02 
       4.001968667448e-01       8.541623198949e-02 
       4.145153713076e-01       7.861104215644e-02 
       4.295641718077e-01       7.222874429105e-02 
       4.454304922144e-01       6.642533324245e-02 
       4.622214006969e-01       6.091281940546e-02 
       4.800702491654e-01       5.544532640368e-02 
       4.991459272112e-01       5.020544289451e-02 
       5.196665217302e-01       4.530315896978e-02 
       5.419201087032e-01       4.052091339602e-02 
       5.662975451962e-01       3.586822069307e-02 
       5.933463737275e-01       3.139108604906e-02 
       6.238638458458e-01       2.698518971779e-02 
       6.590669257916e-01       2.265806086178e-02 
       7.009246080454e-01       1.834795599029e-02 
       7.528593308799e-01       1.402362248790e-02 
       8.213469537518e-01       9.652240306580e-03 
       9.196980813302e-01       5.317202787581e-03 
       1.075112183810e+00       1.581190853409e-03 
       1.322697471132e+00       6.151533524970e-07 
       1.662328205042e+00       8.565278267808e-04 
       2.092692408506e+00       1.289417909258e-03 
       2.634543445090e+00       2.603812553119e-04 
       3.316693691389e+00       9.804237454783e-05 
       4.175469971226e+00       1.076398580571e-04 
       5.256605252960e+00       2.626434790939e-05 
       6.617673932723e+00       5.615261759932e-08 
       8.331157880872e+00       5.387572369484e-07 
       1.048830636590e+01       1.099606723159e-08 
       1.320399541071e+01       3.341305297934e-08 
       1.662284535976e+01       2.340455608040e-10 
       2.092692243973e+01       5.176446310855e-12 
       2.634543445002e+01       6.668094013994e-13 
       3.316693691389e+01       3.311293871665e-18 
       4.175469971226e+01       6.471901674227e-18 
       5.256605252960e+01       3.196997646543e-18 
       6.617673932723e+01       1.647431244063e-23 
