# Matter power spectrum P(k) at redshift z=0
# for k=1.04775e-05 to 66.1767 h/Mpc,
# number of wavenumbers equal to 130
#    1:k (h/Mpc)              2:P (Mpc/h)^3        
       1.047750691046e-05       5.020964811308e+01 
       1.319039970183e-05       6.270562594781e+01 
       1.660572937635e-05       7.831147247912e+01 
       2.090537469327e-05       9.780108069296e+01 
       2.631830744443e-05       1.221408203810e+02 
       3.313278603720e-05       1.525374501932e+02 
       4.171170630578e-05       1.904975994010e+02 
       5.251192703764e-05       2.379022224249e+02 
       6.610859936996e-05       2.970989227881e+02 
       8.322579568497e-05       3.710167318946e+02 
       1.047750691046e-04       4.633080766742e+02 
       1.319039970183e-04       5.785234129331e+02 
       1.660572937635e-04       7.223242666092e+02 
       2.090537469327e-04       9.017396271824e+02 
       2.631830744443e-04       1.125468123750e+03 
       3.313278603720e-04       1.404223053681e+03 
       4.171170630578e-04       1.751108028789e+03 
       5.251192703764e-04       2.181998448133e+03 
       6.610859936996e-04       2.715889983592e+03 
       8.322579568497e-04       3.375152337131e+03 
       1.047750691046e-03       4.185552174306e+03 
       1.319039970183e-03       5.175742740747e+03 
       1.660572937635e-03       6.376123051790e+03 
       2.090537469327e-03       7.815671865654e+03 
       2.631830744443e-03       9.517783069112e+03 
       3.313278603720e-03       1.149357460342e+04 
       4.171170630578e-03       1.373266011870e+04 
       5.251192703764e-03       1.619063614458e+04 
       6.610859936996e-03       1.877460317909e+04 
       8.322579568497e-03       2.132606951032e+04 
       1.047750691046e-02       2.360548310353e+04 
       1.319039970183e-02       2.528218486553e+04 
       1.660572937633e-02       2.595026762840e+04 
       2.090537453514e-02       2.520935932837e+04 
       2.631818545635e-02       2.287037737620e+04 
       3.311571692125e-02       1.928620134369e+04 
       4.113809243311e-02       1.568427013630e+04 
       4.792590854610e-02       1.361060641036e+04 
       5.284436902701e-02       1.259127519492e+04 
       5.689644391095e-02       1.195556364239e+04 
       6.051252627066e-02       1.147548164667e+04 
       6.388413457411e-02       1.105588614382e+04 
       6.711249296401e-02       1.064897772610e+04 
       7.025823437965e-02       1.022929224050e+04 
       7.336115587705e-02       9.784539659770e+03 
       7.644928796912e-02       9.311644328711e+03 
       7.954353299775e-02       8.814531136706e+03 
       8.266024078725e-02       8.302153041196e+03 
       8.581273398637e-02       7.786971164330e+03 
       8.901225918437e-02       7.283180822562e+03 
       9.226860540985e-02       6.805154127550e+03 
       9.559052048996e-02       6.365635215202e+03 
       9.898599946599e-02       5.974383212809e+03 
       1.024624891378e-01       5.637329035779e+03 
       1.060270359164e-01       5.355817408067e+03 
       1.096863943056e-01       5.126249856303e+03 
       1.134471073830e-01       4.940482951477e+03 
       1.173155669539e-01       4.786162930638e+03 
       1.212980586983e-01       4.647881807953e+03 
       1.254007961065e-01       4.509147558044e+03 
       1.296299459934e-01       4.354562992679e+03 
       1.339916477160e-01       4.173231257919e+03 
       1.384920277736e-01       3.961170850290e+03 
       1.431372111762e-01       3.722685162187e+03 
       1.479333307714e-01       3.469541539306e+03 
       1.528865355934e-01       3.218336291555e+03 
       1.580029992204e-01       2.986276263284e+03 
       1.632889290723e-01       2.786959247577e+03 
       1.687505775527e-01       2.626824437310e+03 
       1.743942559171e-01       2.503762625624e+03 
       1.802263517371e-01       2.407329856420e+03 
       1.862533508214e-01       2.322246760404e+03 
       1.924818644494e-01       2.231550974447e+03 
       1.989186627765e-01       2.122184647250e+03 
       2.055707152847e-01       1.992016775298e+03 
       2.124452391818e-01       1.850320271635e+03 
       2.195497567139e-01       1.712174412453e+03 
       2.268921624510e-01       1.590984729984e+03 
       2.344808017550e-01       1.493662863992e+03 
       2.423245618548e-01       1.418315938536e+03 
       2.504329772620e-01       1.354460871102e+03 
       2.588163516754e-01       1.288931560674e+03 
       2.674858990930e-01       1.213932418968e+03 
       2.764539076010e-01       1.130687274028e+03 
       2.857339303080e-01       1.048094058596e+03 
       2.953410092148e-01       9.761798933962e+02 
       3.052919395542e-01       9.178046741519e+02 
       3.156055844677e-01       8.678940098521e+02 
       3.263032530092e-01       8.185260649289e+02 
       3.374091587054e-01       7.651424622574e+02 
       3.489509817175e-01       7.106659663082e+02 
       3.609605657343e-01       6.607807322878e+02 
       3.734747921333e-01       6.180826062907e+02 
       3.865366902904e-01       5.793073120985e+02 
       4.001968667448e-01       5.403907178721e+02 
       4.145153713076e-01       5.011508751723e+02 
       4.295641718077e-01       4.644969204276e+02 
       4.454304922144e-01       4.314067779169e+02 
       4.622214006969e-01       4.001114492434e+02 
       4.800702491654e-01       3.690880625452e+02 
       4.991459272112e-01       3.394746172558e+02 
       5.196665217302e-01       3.119830057468e+02 
       5.419201087032e-01       2.852435281698e+02 
       5.662975451962e-01       2.593267957031e+02 
       5.933463737275e-01       2.345475474743e+02 
       6.238638458458e-01       2.102296287035e+02 
       6.590669257916e-01       1.864323320494e+02 
       7.009246080454e-01       1.627249437171e+02 
       7.528593308799e-01       1.388177006006e+02 
       8.213469537518e-01       1.141879627591e+02 
       9.196980813302e-01       8.835905732226e+01 
       1.075112183810e+00       6.172567410607e+01 
       1.322697471132e+00       3.804282854985e+01 
       1.662328205042e+00       2.209780216938e+01 
       2.092692408506e+00       1.266906537548e+01 
       2.634543445090e+00       7.203258031815e+00 
       3.316693691389e+00       4.065050477233e+00 
       4.175469971226e+00       2.278543071938e+00 
       5.256605252960e+00       1.269267101729e+00 
       6.617673932723e+00       7.030303570737e-01 
       8.331157880872e+00       3.873442324306e-01 
       1.048830636590e+01       2.123418750905e-01 
       1.320399541071e+01       1.158232609226e-01 
       1.662284535976e+01       6.283172855407e-02 
       2.092692243973e+01       3.384648585475e-02 
       2.634543445002e+01       1.803649424895e-02 
       3.316693691389e+01       9.425322727267e-03 
       4.175469971226e+01       4.737233560303e-03 
       5.256605252960e+01       2.194275344306e-03 
       6.617673932723e+01       8.488453813597e-04 
