# Matter power spectrum P(k) at redshift z=0
# for k=1.04775e-05 to 66.1767 h/Mpc,
# number of wavenumbers equal to 130
#    1:k (h/Mpc)              2:P (Mpc/h)^3        
       1.047750691046e-05       5.020964811307e+01 
       1.319039970183e-05       6.270562594780e+01 
       1.660572937635e-05       7.831147247912e+01 
       2.090537469327e-05       9.780108069296e+01 
       2.631830744443e-05       1.221408203809e+02 
       3.313278603720e-05       1.525374501932e+02 
       4.171170630578e-05       1.904975994009e+02 
       5.251192703764e-05       2.379022224249e+02 
       6.610859936996e-05       2.970989227883e+02 
       8.322579568497e-05       3.710167318946e+02 
       1.047750691046e-04       4.633080766742e+02 
       1.319039970183e-04       5.785234129336e+02 
       1.660572937635e-04       7.223242666091e+02 
       2.090537469327e-04       9.017396271822e+02 
       2.631830744443e-04       1.125468123750e+03 
       3.313278603720e-04       1.404223053680e+03 
       4.171170630578e-04       1.751108028789e+03 
       5.251192703764e-04       2.181998448131e+03 
       6.610859936996e-04       2.715889983587e+03 
       8.322579568497e-04       3.375152337125e+03 
       1.047750691046e-03       4.185552174284e+03 
       1.319039970183e-03       5.175742746356e+03 
       1.660572937635e-03       6.376123051687e+03 
       2.090537469327e-03       7.815671904425e+03 
       2.631830744443e-03       9.517783068805e+03 
       3.313278603720e-03       1.149357460279e+04 
       4.171170630578e-03       1.373265989942e+04 
       5.251192703764e-03       1.619063581224e+04 
       6.610859936996e-03       1.877460432290e+04 
       8.322579568497e-03       2.132611377052e+04 
       1.047750691046e-02       2.360549053432e+04 
       1.319039970183e-02       2.528219639142e+04 
       1.660572937633e-02       2.595033925210e+04 
       2.090537453514e-02       2.520935835590e+04 
       2.631818545635e-02       2.287030650615e+04 
       3.311571692125e-02       1.928617348497e+04 
       4.113809243311e-02       1.568416507074e+04 
       4.792590854610e-02       1.361073542150e+04 
       5.284436902701e-02       1.259132292625e+04 
       5.689644391095e-02       1.195549513810e+04 
       6.051252627066e-02       1.147548441977e+04 
       6.388413457411e-02       1.105567307591e+04 
       6.711249296401e-02       1.064888002023e+04 
       7.025823437965e-02       1.022931537448e+04 
       7.336115587705e-02       9.784554462274e+03 
       7.644928796912e-02       9.311696385431e+03 
       7.954353299775e-02       8.814544059096e+03 
       8.266024078725e-02       8.302180881382e+03 
       8.581273398637e-02       7.786946202628e+03 
       8.901225918437e-02       7.283212293018e+03 
       9.226860540985e-02       6.805209621531e+03 
       9.559052048996e-02       6.365627058612e+03 
       9.898599946599e-02       5.974386066860e+03 
       1.024624891378e-01       5.637333580103e+03 
       1.060270359164e-01       5.355794488893e+03 
       1.096863943056e-01       5.126242093878e+03 
       1.134471073830e-01       4.940479047054e+03 
       1.173155669539e-01       4.786149285212e+03 
       1.212980586983e-01       4.647924578358e+03 
       1.254007961065e-01       4.509044714748e+03 
       1.296299459934e-01       4.354541853705e+03 
       1.339916477160e-01       4.173133157964e+03 
       1.384920277736e-01       3.961169569200e+03 
       1.431372111762e-01       3.722592262674e+03 
       1.479333307714e-01       3.469544187975e+03 
       1.528865355934e-01       3.218319534911e+03 
       1.580029992204e-01       2.986232748862e+03 
       1.632889290723e-01       2.786947380735e+03 
       1.687505775527e-01       2.626809277612e+03 
       1.743942559171e-01       2.503755128873e+03 
       1.802263517371e-01       2.407302736420e+03 
       1.862533508214e-01       2.322253923366e+03 
       1.924818644494e-01       2.231566984502e+03 
       1.989186627765e-01       2.122205413657e+03 
       2.055707152847e-01       1.992040209986e+03 
       2.124452391818e-01       1.850302488961e+03 
       2.195497567139e-01       1.712153997339e+03 
       2.268921624510e-01       1.590965563241e+03 
       2.344808017550e-01       1.493656914664e+03 
       2.423245618548e-01       1.418299551284e+03 
       2.504329772620e-01       1.354443591806e+03 
       2.588163516754e-01       1.288929949171e+03 
       2.674858990930e-01       1.213902817087e+03 
       2.764539076010e-01       1.130678209943e+03 
       2.857339303080e-01       1.048082546060e+03 
       2.953410092148e-01       9.761708369872e+02 
       3.052919395542e-01       9.177999623332e+02 
       3.156055844677e-01       8.678850972897e+02 
       3.263032530092e-01       8.185207791801e+02 
       3.374091587054e-01       7.651454256955e+02 
       3.489509817175e-01       7.106550778404e+02 
       3.609605657343e-01       6.607741128819e+02 
       3.734747921333e-01       6.180778173658e+02 
       3.865366902904e-01       5.792970058793e+02 
       4.001968667448e-01       5.403786806261e+02 
       4.145153713076e-01       5.011386195217e+02 
       4.295641718077e-01       4.644917749287e+02 
       4.454304922144e-01       4.313970704499e+02 
       4.622214006969e-01       4.001055460846e+02 
       4.800702491654e-01       3.690795878077e+02 
       4.991459272112e-01       3.394666876389e+02 
       5.196665217302e-01       3.119755721628e+02 
       5.419201087032e-01       2.852380556655e+02 
       5.662975451962e-01       2.593230646624e+02 
       5.933463737275e-01       2.345405764776e+02 
       6.238638458458e-01       2.102245748403e+02 
       6.590669257916e-01       1.864284662341e+02 
       7.009246080454e-01       1.627202992801e+02 
       7.528593308799e-01       1.388135968470e+02 
       8.213469537518e-01       1.141839974348e+02 
       9.196980813302e-01       8.835441465062e+01 
       1.075112183810e+00       6.172180447861e+01 
       1.322697471132e+00       3.803801035618e+01 
       1.662328205042e+00       2.209357306306e+01 
       2.092692408506e+00       1.266487418014e+01 
       2.634543445090e+00       7.199113657662e+00 
       3.316693691389e+00       4.061086235707e+00 
       4.175469971226e+00       2.274712346777e+00 
       5.256605252960e+00       1.265614562606e+00 
       6.617673932723e+00       6.995827241136e-01 
       8.331157880872e+00       3.841173622760e-01 
       1.048830636590e+01       2.093441858248e-01 
       1.320399541071e+01       1.130640424056e-01 
       1.662284535976e+01       6.031903168196e-02 
       2.092692243973e+01       3.158933861787e-02 
       2.634543445002e+01       1.605085529731e-02 
       3.316693691389e+01       7.736271291089e-03 
       4.175469971226e+01       3.384521819106e-03 
       5.256605252960e+01       1.227884506098e-03 
       6.617673932723e+01       3.004104811620e-04 
