# Matter power spectrum P(k) at redshift z=99
# for k=1.04775e-05 to 66.1767 h/Mpc,
# number of wavenumbers equal to 130
#    1:k (h/Mpc)              2:P (Mpc/h)^3        
       1.047750691046e-05       7.261927710988e-03 
       1.319039970183e-05       9.069258239513e-03 
       1.660572937635e-05       1.132639197470e-02 
       2.090537469327e-05       1.414527129268e-02 
       2.631830744443e-05       1.766569576242e-02 
       3.313278603720e-05       2.206225525056e-02 
       4.171170630578e-05       2.755297777717e-02 
       5.251192703764e-05       3.441013537211e-02 
       6.610859936996e-05       4.297372190568e-02 
       8.322579568497e-05       5.366826875135e-02 
       1.047750691046e-04       6.702379900469e-02 
       1.319039970183e-04       8.370193587339e-02 
       1.660572937635e-04       1.045283359670e-01 
       2.090537469327e-04       1.305329139419e-01 
       2.631830744443e-04       1.629994513193e-01 
       3.313278603720e-04       2.035264012668e-01 
       4.171170630578e-04       2.541004754048e-01 
       5.251192703764e-04       3.171839536025e-01 
       6.610859936996e-04       3.958147270050e-01 
       8.322579568497e-04       4.937136020988e-01 
       1.047750691046e-03       6.153841650245e-01 
       1.319039970183e-03       7.661720601661e-01 
       1.660572937635e-03       9.522587996350e-01 
       2.090537469327e-03       1.180312983596e+00 
       2.631830744443e-03       1.456802645574e+00 
       3.313278603720e-03       1.786503669714e+00 
       4.171170630578e-03       2.169895334015e+00 
       5.251192703764e-03       2.599426693048e+00 
       6.610859936996e-03       3.055655565535e+00 
       8.322579568497e-03       3.505688827426e+00 
       1.047750691046e-02       3.905391270418e+00 
       1.319039970183e-02       4.200664405977e+00 
       1.660572937633e-02       4.324449001478e+00 
       2.090537453514e-02       4.208786508634e+00 
       2.631818545635e-02       3.822089135732e+00 
       3.311571692125e-02       3.222961208904e+00 
       4.113809243311e-02       2.616878952551e+00 
       4.792590854610e-02       2.265112785240e+00 
       5.284436902701e-02       2.090435542534e+00 
       5.689644391095e-02       1.980278691403e+00 
       6.051252627066e-02       1.896304774351e+00 
       6.388413457411e-02       1.822496049193e+00 
       6.711249296401e-02       1.750793613065e+00 
       7.025823437965e-02       1.676898153370e+00 
       7.336115587705e-02       1.598734759411e+00 
       7.644928796912e-02       1.515805688929e+00 
       7.954353299775e-02       1.428743087675e+00 
       8.266024078725e-02       1.339062322607e+00 
       8.581273398637e-02       1.248857693191e+00 
       8.901225918437e-02       1.160499723890e+00 
       9.226860540985e-02       1.076375347118e+00 
       9.559052048996e-02       9.985895715810e-01 
       9.898599946599e-02       9.287446971339e-01 
       1.024624891378e-01       8.677829030121e-01 
       1.060270359164e-01       8.158575320825e-01 
       1.096863943056e-01       7.723531437344e-01 
       1.134471073830e-01       7.358806001908e-01 
       1.173155669539e-01       7.043936335576e-01 
       1.212980586983e-01       6.753894292750e-01 
       1.254007961065e-01       6.462022804712e-01 
       1.296299459934e-01       6.144152963282e-01 
       1.339916477160e-01       5.783422538201e-01 
       1.384920277736e-01       5.374326986088e-01 
       1.431372111762e-01       4.924737810330e-01 
       1.479333307714e-01       4.454245588482e-01 
       1.528865355934e-01       3.989445618688e-01 
       1.580029992204e-01       3.557013759233e-01 
       1.632889290723e-01       3.177058377091e-01 
       1.687505775527e-01       2.858188434916e-01 
       1.743942559171e-01       2.596107043120e-01 
       1.802263517371e-01       2.375284798192e-01 
       1.862533508214e-01       2.174519016730e-01 
       1.924818644494e-01       1.971539191153e-01 
       1.989186627765e-01       1.750654189342e-01 
       2.055707152847e-01       1.511284024311e-01 
       2.124452391818e-01       1.267195579488e-01 
       2.195497567139e-01       1.037980762417e-01 
       2.268921624510e-01       8.390481845711e-02 
       2.344808017550e-01       6.764506265400e-02 
       2.423245618548e-01       5.463416932838e-02 
       2.504329772620e-01       4.378256355883e-02 
       2.588163516754e-01       3.398766104461e-02 
       2.674858990930e-01       2.478344449199e-02 
       2.764539076010e-01       1.645723641635e-02 
       2.857339303080e-01       9.688158435471e-03 
       2.953410092148e-01       4.913879630107e-03 
       3.052919395542e-01       1.980346162690e-03 
       3.156055844677e-01       4.473168862284e-04 
       3.263032530092e-01       2.048848538652e-06 
       3.374091587054e-01       5.945220479705e-04 
       3.489509817175e-01       2.230255782006e-03 
       3.609605657343e-01       4.687859860947e-03 
       3.734747921333e-01       7.559167013287e-03 
       3.865366902904e-01       1.059353342892e-02 
       4.001968667448e-01       1.374838166033e-02 
       4.145153713076e-01       1.689163075933e-02 
       4.295641718077e-01       1.962226607208e-02 
       4.454304922144e-01       2.156244050694e-02 
       4.622214006969e-01       2.259269700199e-02 
       4.800702491654e-01       2.271549788968e-02 
       4.991459272112e-01       2.175669411038e-02 
       5.196665217302e-01       1.959713539399e-02 
       5.419201087032e-01       1.645173896730e-02 
       5.662975451962e-01       1.256772444802e-02 
       5.933463737275e-01       8.306095203207e-03 
       6.238638458458e-01       4.296075423428e-03 
       6.590669257916e-01       1.269237108888e-03 
       7.009246080454e-01       6.911197424268e-06 
       7.528593308799e-01       9.238412425295e-04 
       8.213469537518e-01       3.125185554201e-03 
       9.196980813302e-01       3.233791257468e-03 
       1.075112183810e+00       1.271409897711e-04 
       1.322697471132e+00       6.724011796826e-04 
       1.662328205042e+00       1.214712526436e-04 
       2.092692408506e+00       2.335713903802e-05 
       2.634543445090e+00       7.032106136096e-06 
       3.316693691389e+00       9.177097857630e-08 
       4.175469971226e+00       4.703984854812e-08 
       5.256605252960e+00       8.046225106598e-10 
       6.617673932723e+00       3.767544441073e-11 
       8.331157880872e+00       1.009218437112e-12 
       1.048830636590e+01       6.865836182948e-14 
       1.320399541071e+01       1.160568216545e-14 
       1.662284535976e+01       1.849488620340e-15 
       2.092692243973e+01       1.507333253205e-16 
       2.634543445002e+01       2.856009382760e-18 
       3.316693691389e+01       1.215295564691e-19 
       4.175469971226e+01       3.408426892902e-21 
       5.256605252960e+01       2.806032546022e-22 
       6.617673932723e+01       3.637700346856e-22 
