# Matter power spectrum P(k) at redshift z=99
# for k=1.04775e-05 to 66.1767 h/Mpc,
# number of wavenumbers equal to 130
#    1:k (h/Mpc)              2:P (Mpc/h)^3        
       1.047750691046e-05       7.261927681851e-03 
       1.319039970183e-05       9.069258203084e-03 
       1.660572937635e-05       1.132639106880e-02 
       2.090537469327e-05       1.414527123592e-02 
       2.631830744443e-05       1.766569584299e-02 
       3.313278603720e-05       2.206225516243e-02 
       4.171170630578e-05       2.755297766652e-02 
       5.251192703764e-05       3.441013523416e-02 
       6.610859936996e-05       4.297372173362e-02 
       8.322579568497e-05       5.366826853673e-02 
       1.047750691046e-04       6.702379873684e-02 
       1.319039970183e-04       8.370193442418e-02 
       1.660572937635e-04       1.045283355525e-01 
       2.090537469327e-04       1.305329134278e-01 
       2.631830744443e-04       1.629994506821e-01 
       3.313278603720e-04       2.035264004866e-01 
       4.171170630578e-04       2.541004744564e-01 
       5.251192703764e-04       3.171839528939e-01 
       6.610859936996e-04       3.958147256954e-01 
       8.322579568497e-04       4.937136006755e-01 
       1.047750691046e-03       6.153841636495e-01 
       1.319039970183e-03       7.661720592820e-01 
       1.660572937635e-03       9.522588016057e-01 
       2.090537469327e-03       1.180312991509e+00 
       2.631830744443e-03       1.456802684149e+00 
       3.313278603720e-03       1.786503852769e+00 
       4.171170630578e-03       2.169896193646e+00 
       5.251192703764e-03       2.599430625018e+00 
       6.610859936996e-03       3.055668665213e+00 
       8.322579568497e-03       3.505724931256e+00 
       1.047750691046e-02       3.905490714601e+00 
       1.319039970183e-02       4.200915426940e+00 
       1.660572937633e-02       4.325062806899e+00 
       2.090537453514e-02       4.210196320950e+00 
       2.631818545635e-02       3.825150868002e+00 
       3.311571692125e-02       3.229063141930e+00 
       4.113809243311e-02       2.627721016289e+00 
       4.792590854610e-02       2.280792677007e+00 
       5.284436902701e-02       2.110091326834e+00 
       5.689644391095e-02       2.003541020929e+00 
       6.051252627066e-02       1.923060002309e+00 
       6.388413457411e-02       1.852728304047e+00 
       6.711249296401e-02       1.784562038077e+00 
       7.025823437965e-02       1.714274578327e+00 
       7.336115587705e-02       1.639810396098e+00 
       7.644928796912e-02       1.560661425237e+00 
       7.954353299775e-02       1.477457739498e+00 
       8.266024078725e-02       1.391695896443e+00 
       8.581273398637e-02       1.305456964471e+00 
       8.901225918437e-02       1.221122277954e+00 
       9.226860540985e-02       1.141075756340e+00 
       9.559052048996e-02       1.067447987962e+00 
       9.898599946599e-02       1.001885090516e+00 
       1.024624891378e-01       9.453763171655e-01 
       1.060270359164e-01       8.981469965510e-01 
       1.096863943056e-01       8.596080371181e-01 
       1.134471073830e-01       8.284015343274e-01 
       1.173155669539e-01       8.024624164159e-01 
       1.212980586983e-01       7.792217861683e-01 
       1.254007961065e-01       7.559131695329e-01 
       1.296299459934e-01       7.299771188214e-01 
       1.339916477160e-01       6.995877681667e-01 
       1.384920277736e-01       6.640740212071e-01 
       1.431372111762e-01       6.241414063584e-01 
       1.479333307714e-01       5.817585241670e-01 
       1.528865355934e-01       5.396839540474e-01 
       1.580029992204e-01       5.008086221312e-01 
       1.632889290723e-01       4.673911160702e-01 
       1.687505775527e-01       4.405264677767e-01 
       1.743942559171e-01       4.198573769725e-01 
       1.802263517371e-01       4.036507729396e-01 
       1.862533508214e-01       3.893538634063e-01 
       1.924818644494e-01       3.741314538708e-01 
       1.989186627765e-01       3.557969004485e-01 
       2.055707152847e-01       3.339938754360e-01 
       2.124452391818e-01       3.102552621028e-01 
       2.195497567139e-01       2.871119230654e-01 
       2.268921624510e-01       2.667976412244e-01 
       2.344808017550e-01       2.504718413448e-01 
       2.423245618548e-01       2.378220934004e-01 
       2.504329772620e-01       2.270998593233e-01 
       2.588163516754e-01       2.161069041016e-01 
       2.674858990930e-01       2.035341265570e-01 
       2.764539076010e-01       1.895835730158e-01 
       2.857339303080e-01       1.757427887053e-01 
       2.953410092148e-01       1.636845298815e-01 
       3.052919395542e-01       1.538909260927e-01 
       3.156055844677e-01       1.455152278271e-01 
       3.263032530092e-01       1.372335943251e-01 
       3.374091587054e-01       1.282843686866e-01 
       3.489509817175e-01       1.191531799511e-01 
       3.609605657343e-01       1.107886591669e-01 
       3.734747921333e-01       1.036257576801e-01 
       3.865366902904e-01       9.712117411133e-02 
       4.001968667448e-01       9.059468871268e-02 
       4.145153713076e-01       8.401543881229e-02 
       4.295641718077e-01       7.786872509253e-02 
       4.454304922144e-01       7.231852030170e-02 
       4.622214006969e-01       6.706930157802e-02 
       4.800702491654e-01       6.186650044837e-02 
       4.991459272112e-01       5.689985337849e-02 
       5.196665217302e-01       5.228860072450e-02 
       5.419201087032e-01       4.780368946669e-02 
       5.662975451962e-01       4.345667996428e-02 
       5.933463737275e-01       3.929927124788e-02 
       6.238638458458e-01       3.521989234354e-02 
       6.590669257916e-01       3.122735152787e-02 
       7.009246080454e-01       2.724924074419e-02 
       7.528593308799e-01       2.323735817276e-02 
       8.213469537518e-01       1.910310856370e-02 
       9.196980813302e-01       1.476606259002e-02 
       1.075112183810e+00       1.029072603215e-02 
       1.322697471132e+00       6.304619727985e-03 
       1.662328205042e+00       3.611261056808e-03 
       2.092692408506e+00       2.007135012525e-03 
       2.634543445090e+00       1.065894447862e-03 
       3.316693691389e+00       5.177097791547e-04 
       4.175469971226e+00       2.074824651926e-04 
       5.256605252960e+00       5.116250409372e-05 
       6.617673932723e+00       1.010937704846e-06 
       8.331157880872e+00       1.136180136667e-05 
       1.048830636590e+01       2.310821495186e-05 
       1.320399541071e+01       7.847063795086e-06 
       1.662284535976e+01       3.249480095021e-07 
       2.092692243973e+01       1.911638933024e-06 
       2.634543445002e+01       4.594296116938e-08 
       3.316693691389e+01       2.820610635318e-08 
       4.175469971226e+01       3.795224562214e-09 
       5.256605252960e+01       1.072776087311e-11 
       6.617673932723e+01       2.350644901181e-11 
