# Matter power spectrum P(k) at redshift z=0
# for k=1.04775e-05 to 66.1767 h/Mpc,
# number of wavenumbers equal to 130
#    1:k (h/Mpc)              2:P (Mpc/h)^3        
       1.047750691046e-05       5.020964811312e+01 
       1.319039970183e-05       6.270562594779e+01 
       1.660572937635e-05       7.831147247912e+01 
       2.090537469327e-05       9.780108069291e+01 
       2.631830744443e-05       1.221408203809e+02 
       3.313278603720e-05       1.525374501932e+02 
       4.171170630578e-05       1.904975994010e+02 
       5.251192703764e-05       2.379022224249e+02 
       6.610859936996e-05       2.970989227881e+02 
       8.322579568497e-05       3.710167318946e+02 
       1.047750691046e-04       4.633080766742e+02 
       1.319039970183e-04       5.785234129339e+02 
       1.660572937635e-04       7.223242666092e+02 
       2.090537469327e-04       9.017396271824e+02 
       2.631830744443e-04       1.125468123750e+03 
       3.313278603720e-04       1.404223053681e+03 
       4.171170630578e-04       1.751108028790e+03 
       5.251192703764e-04       2.181998448133e+03 
       6.610859936996e-04       2.715889983592e+03 
       8.322579568497e-04       3.375152337134e+03 
       1.047750691046e-03       4.185552174306e+03 
       1.319039970183e-03       5.175742742915e+03 
       1.660572937635e-03       6.376123051772e+03 
       2.090537469327e-03       7.815671859640e+03 
       2.631830744443e-03       9.517783069106e+03 
       3.313278603720e-03       1.149357460339e+04 
       4.171170630578e-03       1.373266008826e+04 
       5.251192703764e-03       1.619063613837e+04 
       6.610859936996e-03       1.877460418801e+04 
       8.322579568497e-03       2.132607237627e+04 
       1.047750691046e-02       2.360548529495e+04 
       1.319039970183e-02       2.528218673099e+04 
       1.660572937633e-02       2.595026597559e+04 
       2.090537453514e-02       2.520934397028e+04 
       2.631818545635e-02       2.287035528080e+04 
       3.311571692125e-02       1.928623547819e+04 
       4.113809243311e-02       1.568424409176e+04 
       4.792590854610e-02       1.361061056420e+04 
       5.284436902701e-02       1.259131944905e+04 
       5.689644391095e-02       1.195556583496e+04 
       6.051252627066e-02       1.147549565009e+04 
       6.388413457411e-02       1.105595302923e+04 
       6.711249296401e-02       1.064902047222e+04 
       7.025823437965e-02       1.022932867653e+04 
       7.336115587705e-02       9.784571785558e+03 
       7.644928796912e-02       9.311688915337e+03 
       7.954353299775e-02       8.814580782913e+03 
       8.266024078725e-02       8.302188508237e+03 
       8.581273398637e-02       7.786985240803e+03 
       8.901225918437e-02       7.283227110728e+03 
       9.226860540985e-02       6.805195929252e+03 
       9.559052048996e-02       6.365655680568e+03 
       9.898599946599e-02       5.974418251051e+03 
       1.024624891378e-01       5.637363149505e+03 
       1.060270359164e-01       5.355811980113e+03 
       1.096863943056e-01       5.126266776474e+03 
       1.134471073830e-01       4.940507688407e+03 
       1.173155669539e-01       4.786184942221e+03 
       1.212980586983e-01       4.647947128588e+03 
       1.254007961065e-01       4.509087323223e+03 
       1.296299459934e-01       4.354544969054e+03 
       1.339916477160e-01       4.173223194066e+03 
       1.384920277736e-01       3.961177218200e+03 
       1.431372111762e-01       3.722684918819e+03 
       1.479333307714e-01       3.469551840739e+03 
       1.528865355934e-01       3.218320826519e+03 
       1.580029992204e-01       2.986263457902e+03 
       1.632889290723e-01       2.786950510430e+03 
       1.687505775527e-01       2.626817939427e+03 
       1.743942559171e-01       2.503765016899e+03 
       1.802263517371e-01       2.407313561116e+03 
       1.862533508214e-01       2.322231481384e+03 
       1.924818644494e-01       2.231535215796e+03 
       1.989186627765e-01       2.122169883862e+03 
       2.055707152847e-01       1.992018197557e+03 
       2.124452391818e-01       1.850314618746e+03 
       2.195497567139e-01       1.712155250932e+03 
       2.268921624510e-01       1.590974883999e+03 
       2.344808017550e-01       1.493656281940e+03 
       2.423245618548e-01       1.418306945055e+03 
       2.504329772620e-01       1.354447625319e+03 
       2.588163516754e-01       1.288944062046e+03 
       2.674858990930e-01       1.213937404162e+03 
       2.764539076010e-01       1.130687146596e+03 
       2.857339303080e-01       1.048081891432e+03 
       2.953410092148e-01       9.761722555847e+02 
       3.052919395542e-01       9.178048705677e+02 
       3.156055844677e-01       8.678947929414e+02 
       3.263032530092e-01       8.185195491751e+02 
       3.374091587054e-01       7.651400000429e+02 
       3.489509817175e-01       7.106609522062e+02 
       3.609605657343e-01       6.607762355280e+02 
       3.734747921333e-01       6.180805908966e+02 
       3.865366902904e-01       5.793040745193e+02 
       4.001968667448e-01       5.403852428268e+02 
       4.145153713076e-01       5.011433160036e+02 
       4.295641718077e-01       4.644968937389e+02 
       4.454304922144e-01       4.314007796131e+02 
       4.622214006969e-01       4.001086116227e+02 
       4.800702491654e-01       3.690832356940e+02 
       4.991459272112e-01       3.394709553640e+02 
       5.196665217302e-01       3.119813625867e+02 
       5.419201087032e-01       2.852427762933e+02 
       5.662975451962e-01       2.593270760839e+02 
       5.933463737275e-01       2.345442010572e+02 
       6.238638458458e-01       2.102286806489e+02 
       6.590669257916e-01       1.864320613025e+02 
       7.009246080454e-01       1.627235027023e+02 
       7.528593308799e-01       1.388177191633e+02 
       8.213469537518e-01       1.141876006563e+02 
       9.196980813302e-01       8.835848345932e+01 
       1.075112183810e+00       6.172547080068e+01 
       1.322697471132e+00       3.804271851614e+01 
       1.662328205042e+00       2.209777592818e+01 
       2.092692408506e+00       1.266899585241e+01 
       2.634543445090e+00       7.203182102227e+00 
       3.316693691389e+00       4.065029221946e+00 
       4.175469971226e+00       2.278523721463e+00 
       5.256605252960e+00       1.269259540224e+00 
       6.617673932723e+00       7.030549543540e-01 
       8.331157880872e+00       3.874059192606e-01 
       1.048830636590e+01       2.124431397443e-01 
       1.320399541071e+01       1.159749168940e-01 
       1.662284535976e+01       6.304196839753e-02 
       2.092692243973e+01       3.412730687759e-02 
       2.634543445002e+01       1.839842819868e-02 
       3.316693691389e+01       9.875900245866e-03 
       4.175469971226e+01       5.275486998031e-03 
       5.256605252960e+01       2.801496293690e-03 
       6.617673932723e+01       1.476178695441e-03 
