# Matter power spectrum P(k) at redshift z=99
# for k=1.04775e-05 to 67.6233 h/Mpc,
# number of wavenumbers equal to 246
#    1:k (h/Mpc)              2:P (Mpc/h)^3        
       1.047750691046e-05       7.261927680864e-03 
       1.131335172503e-05       7.820331652434e-03 
       1.221587619537e-05       8.421675995456e-03 
       1.319039970183e-05       9.069258201851e-03 
       1.424266597921e-05       9.766638412136e-03 
       1.537887696968e-05       1.051764070801e-02 
       1.660572937635e-05       1.132639106726e-02 
       1.793045413292e-05       1.219733232715e-02 
       1.936085902198e-05       1.313524225779e-02 
       2.090537469327e-05       1.414527123400e-02 
       2.257310435294e-05       1.523296273823e-02 
       2.437387741694e-05       1.640429446289e-02 
       2.631830744443e-05       1.766569584059e-02 
       2.841785469300e-05       1.902408737006e-02 
       3.068489366414e-05       2.048692972773e-02 
       3.313278603720e-05       2.206225515943e-02 
       3.577595942169e-05       2.375870707439e-02 
       3.862999239199e-05       2.558560730203e-02 
       4.171170630578e-05       2.755297766278e-02 
       4.503926444729e-05       2.967161930474e-02 
       4.863227907969e-05       3.195316454234e-02 
       5.251192703764e-05       3.441013522948e-02 
       5.670107454120e-05       3.705601726472e-02 
       6.122441196689e-05       3.990533417797e-02 
       6.610859936996e-05       4.297372172779e-02 
       7.138242361596e-05       4.627802146616e-02 
       7.707696804727e-05       4.983636199465e-02 
       8.322579568497e-05       5.366826852946e-02 
       8.986514704559e-05       5.779476400722e-02 
       9.703415373875e-05       6.223848250512e-02 
       1.047750691046e-04       6.702379872776e-02 
       1.131335172503e-04       7.217695161066e-02 
       1.221587619537e-04       7.772619081846e-02 
       1.319039970183e-04       8.370193441289e-02 
       1.424266597921e-04       9.013692517145e-02 
       1.537887696968e-04       9.706641252905e-02 
       1.660572937635e-04       1.045283355384e-01 
       1.793045413292e-04       1.125635350267e-01 
       1.936085902198e-04       1.212159616259e-01 
       2.090537469327e-04       1.305329134104e-01 
       2.257310435294e-04       1.405652847711e-01 
       2.437387741694e-04       1.513678304152e-01 
       2.631830744443e-04       1.629994506606e-01 
       2.841785469300e-04       1.755234923093e-01 
       3.068489366414e-04       1.890080672425e-01 
       3.313278603720e-04       2.035264004602e-01 
       3.577595942169e-04       2.191571806014e-01 
       3.862999239199e-04       2.359849440105e-01 
       4.171170630578e-04       2.541004744243e-01 
       4.503926444729e-04       2.736012083189e-01 
       4.863227907969e-04       2.945916794100e-01 
       5.251192703764e-04       3.171839528558e-01 
       5.670107454121e-04       3.414980767636e-01 
       6.122441196689e-04       3.676625417012e-01 
       6.610859936996e-04       3.958147256514e-01 
       7.138242361596e-04       4.261013289364e-01 
       7.707696804727e-04       4.586787797353e-01 
       8.322579568497e-04       4.937136006293e-01 
       8.986514704559e-04       5.313826807050e-01 
       9.703415373875e-04       5.718734978234e-01 
       1.047750691046e-03       6.153841636042e-01 
       1.131335172503e-03       6.621233246497e-01 
       1.221587619537e-03       7.123098227991e-01 
       1.319039970183e-03       7.661720592633e-01 
       1.424266597921e-03       8.239546306463e-01 
       1.537887696968e-03       8.859011182851e-01 
       1.660572937635e-03       9.522588016469e-01 
       1.793045413292e-03       1.023280100902e+00 
       1.936085902198e-03       1.099216305740e+00 
       2.090537469327e-03       1.180312991698e+00 
       2.257310435294e-03       1.266804117187e+00 
       2.437387741694e-03       1.358904854834e+00 
       2.631830744443e-03       1.456802684684e+00 
       2.841785469300e-03       1.560646892154e+00 
       3.068489366414e-03       1.670536064240e+00 
       3.313278603720e-03       1.786503854034e+00 
       3.577595942169e-03       1.908502932761e+00 
       3.862999239199e-03       2.036387732803e+00 
       4.171170630578e-03       2.169896190919e+00 
       4.503926444729e-03       2.308631881333e+00 
       4.863227907969e-03       2.452047293421e+00 
       5.251192703764e-03       2.599430630665e+00 
       5.670107454120e-03       2.749896934431e+00 
       6.122441196689e-03       2.902386516156e+00 
       6.610859936996e-03       3.055668714771e+00 
       7.138242361596e-03       3.208356464408e+00 
       7.707696804727e-03       3.358923895546e+00 
       8.322579568496e-03       3.505725598196e+00 
       8.986514704559e-03       3.647009254512e+00 
       9.703415373875e-03       3.780923306722e+00 
       1.047750691046e-02       3.905491322165e+00 
       1.131335172503e-02       4.018587812830e+00 
       1.221587619537e-02       4.117901583381e+00 
       1.319039970183e-02       4.200915322920e+00 
       1.424266597920e-02       4.264942349960e+00 
       1.537887696964e-02       4.307218314461e+00 
       1.660572937560e-02       4.325063170648e+00 
       1.793045412207e-02       4.316061391582e+00 
       1.936085889642e-02       4.278228304917e+00 
       2.090537351881e-02       4.210204583600e+00 
       2.257309534705e-02       4.111419904668e+00 
       2.437382002240e-02       3.982424639609e+00 
       2.631799943729e-02       3.825168038350e+00 
       2.841644544598e-02       3.643273956584e+00 
       3.067933354524e-02       3.442197540446e+00 
       3.311368469821e-02       3.229231631452e+00 
       3.571840442514e-02       3.013513435631e+00 
       3.847720347390e-02       2.805281202858e+00 
       4.135335537314e-02       2.614406692784e+00 
       4.429361666563e-02       2.448132778610e+00 
       4.724366437916e-02       2.309238085630e+00 
       5.016480834039e-02       2.196112504632e+00 
       5.303989618930e-02       2.104367548780e+00 
       5.586870668205e-02       2.028462487641e+00 
       5.866042679206e-02       1.963153094268e+00 
       6.142798931504e-02       1.903781209685e+00 
       6.418496438662e-02       1.846478829138e+00 
       6.694418832236e-02       1.788194958483e+00 
       6.971731104453e-02       1.726712357189e+00 
       7.251476154108e-02       1.660653955729e+00 
       7.534587669814e-02       1.589469840924e+00 
       7.821907664495e-02       1.513438205637e+00 
       8.114203771084e-02       1.433567418527e+00 
       8.412184533139e-02       1.351490988062e+00 
       8.716512277352e-02       1.269271477967e+00 
       9.027813693913e-02       1.189191306673e+00 
       9.346688429613e-02       1.113497976161e+00 
       9.673716026122e-02       1.044172493745e+00 
       1.000946150608e-01       9.827028566740e-01 
       1.035447986307e-01       9.299340803759e-01 
       1.070931966524e-01       8.859560107693e-01 
       1.107452594180e-01       8.500669072445e-01 
       1.145064248899e-01       8.207973814756e-01 
       1.183821370656e-01       7.960192172469e-01 
       1.223778605591e-01       7.731401355455e-01 
       1.264990921707e-01       7.494446474510e-01 
       1.307513701078e-01       7.225511022527e-01 
       1.351402814485e-01       6.909018332220e-01 
       1.396714683894e-01       6.541728392117e-01 
       1.443506337875e-01       6.134199796809e-01 
       1.491835464900e-01       5.708584022777e-01 
       1.541760469368e-01       5.293551487131e-01 
       1.593340535209e-01       4.917013474961e-01 
       1.646635701934e-01       4.599096226574e-01 
       1.701706958081e-01       4.347176655176e-01 
       1.758616357070e-01       4.153967643675e-01 
       1.817427160581e-01       3.999235182384e-01 
       1.878204014651e-01       3.856688998228e-01 
       1.941013163855e-01       3.697949625816e-01 
       2.005922709060e-01       3.505312009176e-01 
       2.073002914514e-01       3.280277219398e-01 
       2.142326570343e-01       3.041964724659e-01 
       2.213969417044e-01       2.815942116166e-01 
       2.288010639201e-01       2.622383140128e-01 
       2.364533436625e-01       2.469430140026e-01 
       2.443625682390e-01       2.349926341314e-01 
       2.525380678946e-01       2.243960906800e-01 
       2.609898025770e-01       2.130705222070e-01 
       2.697284614969e-01       2.000773074804e-01 
       2.787655775073e-01       1.859938097782e-01 
       2.881136588192e-01       1.724900398433e-01 
       2.977863412019e-01       1.610378817541e-01 
       3.077985646248e-01       1.517314276327e-01 
       3.181667793367e-01       1.435286584967e-01 
       3.289091877084e-01       1.351488295021e-01 
       3.400460298905e-01       1.261305825403e-01 
       3.515999235695e-01       1.171659508173e-01 
       3.635962710278e-01       1.091394045471e-01 
       3.760637505499e-01       1.022704307604e-01 
       3.890349143014e-01       9.589678851365e-02 
       4.025469215929e-01       8.946465493775e-02 
       4.166424455447e-01       8.306683494953e-02 
       4.313708034899e-01       7.716849974786e-02 
       4.467893781976e-01       7.185129530197e-02 
       4.629654198623e-01       6.681747758957e-02 
       4.799783500912e-01       6.186330167160e-02 
       4.979227318246e-01       5.716564918526e-02 
       5.169121269689e-01       5.284350977903e-02 
       5.370841403262e-01       4.870745436418e-02 
       5.586070463286e-01       4.472548134432e-02 
       5.816885093582e-01       4.098315459896e-02 
       6.065870143577e-01       3.741759550555e-02 
       6.336266466978e-01       3.400011169952e-02 
       6.632156057925e-01       3.075440659135e-02 
       6.958678637575e-01       2.764349586540e-02 
       7.322247983784e-01       2.467728046409e-02 
       7.730680193171e-01       2.184409580428e-02 
       8.193049551574e-01       1.915449250045e-02 
       8.718988013754e-01       1.662069372613e-02 
       9.317218028590e-01       1.426780890778e-02 
       9.993660906273e-01       1.212572022394e-02 
       1.075037109879e+00       1.021828253287e-02 
       1.158653485387e+00       8.555461538635e-03 
       1.250099156961e+00       7.129858339429e-03 
       1.349432400897e+00       5.919939564279e-03 
       1.456947456991e+00       4.899140958730e-03 
       1.573135110893e+00       4.040513755485e-03 
       1.698621895119e+00       3.319551466260e-03 
       1.834127512423e+00       2.714938681235e-03 
       1.980444933977e+00       2.208409849477e-03 
       2.138435191130e+00       1.784652320102e-03 
       2.309029198543e+00       1.430640070747e-03 
       2.493232376993e+00       1.135534751871e-03 
       2.692130394536e+00       8.902571742345e-04 
       2.906895533764e+00       6.872782942310e-04 
       3.138793596840e+00       5.203208254671e-04 
       3.389191365541e+00       3.842090983508e-04 
       3.659564656886e+00       2.746512337863e-04 
       3.951507021438e+00       1.880736019711e-04 
       4.266739135513e+00       1.214314347472e-04 
       4.607118942658e+00       7.207248875338e-05 
       4.974652604172e+00       3.757384003348e-05 
       5.371506323193e+00       1.562262650665e-05 
       5.800019112071e+00       3.904347612123e-06 
       6.262716578240e+00       4.993307391397e-08 
       6.762325809881e+00       1.633194351397e-06 
       7.301791449077e+00       6.247907414667e-06 
       7.884293047211e+00       1.165904820893e-05 
       8.513263804891e+00       1.601314241981e-05 
       9.192410806865e+00       1.806611986847e-05 
       9.925736871166e+00       1.735710229243e-05 
       1.071756414128e+01       1.424984047045e-05 
       1.157255956041e+01       9.775371442423e-06 
       1.249576237789e+01       5.270326179586e-06 
       1.349261385000e+01       1.899442559538e-06 
       1.456898931011e+01       2.331514560067e-07 
       1.573123279727e+01       7.943586322087e-08 
       1.698619444729e+01       6.807706576245e-07 
       1.834127086665e+01       1.192730681537e-06 
       1.980444872733e+01       1.163129754165e-06 
       2.138435183937e+01       6.981765682012e-07 
       2.309029197863e+01       2.132686726761e-07 
       2.493232376942e+01       6.213379276277e-09 
       2.692130394533e+01       4.132700012253e-08 
       2.906895533764e+01       1.029670806261e-07 
       3.138793596840e+01       7.679942867944e-08 
       3.389191365541e+01       1.854295486798e-08 
       3.659564656886e+01       1.078493282982e-10 
       3.951507021438e+01       8.146455567095e-09 
       4.266739135513e+01       7.234300240756e-09 
       4.607118942658e+01       9.304773349667e-10 
       4.974652604172e+01       3.275542931728e-10 
       5.371506323193e+01       8.412556067695e-10 
       5.800019112071e+01       1.241227519261e-10 
       6.262716578240e+01       4.097945431323e-11 
       6.762325809881e+01       5.895516879844e-11 
