# Matter power spectrum P(k) at redshift z=99
# for k=1.04775e-05 to 66.1767 h/Mpc,
# number of wavenumbers equal to 130
#    1:k (h/Mpc)              2:P (Mpc/h)^3        
       1.047750691046e-05       7.261927681620e-03 
       1.319039970183e-05       9.069258202796e-03 
       1.660572937635e-05       1.132639106844e-02 
       2.090537469327e-05       1.414527123547e-02 
       2.631830744443e-05       1.766569584243e-02 
       3.313278603720e-05       2.206225516173e-02 
       4.171170630578e-05       2.755297766564e-02 
       5.251192703764e-05       3.441013523307e-02 
       6.610859936996e-05       4.297372173226e-02 
       8.322579568497e-05       5.366826853503e-02 
       1.047750691046e-04       6.702379873471e-02 
       1.319039970183e-04       8.370193442153e-02 
       1.660572937635e-04       1.045283355492e-01 
       2.090537469327e-04       1.305329134238e-01 
       2.631830744443e-04       1.629994506771e-01 
       3.313278603720e-04       2.035264004804e-01 
       4.171170630578e-04       2.541004744489e-01 
       5.251192703764e-04       3.171839528850e-01 
       6.610859936996e-04       3.958147256851e-01 
       8.322579568497e-04       4.937136006633e-01 
       1.047750691046e-03       6.153841636384e-01 
       1.319039970183e-03       7.661720592923e-01 
       1.660572937635e-03       9.522588016229e-01 
       2.090537469327e-03       1.180312991552e+00 
       2.631830744443e-03       1.456802684274e+00 
       3.313278603720e-03       1.786503853073e+00 
       4.171170630578e-03       2.169896196002e+00 
       5.251192703764e-03       2.599430626350e+00 
       6.610859936996e-03       3.055668692673e+00 
       8.322579568497e-03       3.505725581265e+00 
       1.047750691046e-02       3.905490865945e+00 
       1.319039970183e-02       4.200915255289e+00 
       1.660572937633e-02       4.325064377667e+00 
       2.090537453514e-02       4.210209940311e+00 
       2.631818545635e-02       3.825151833484e+00 
       3.311571692125e-02       3.229058646050e+00 
       4.113809243311e-02       2.627731985274e+00 
       4.792590854610e-02       2.280796779352e+00 
       5.284436902701e-02       2.110087952273e+00 
       5.689644391095e-02       2.003534498710e+00 
       6.051252627066e-02       1.923056151211e+00 
       6.388413457411e-02       1.852733179474e+00 
       6.711249296401e-02       1.784562799954e+00 
       7.025823437965e-02       1.714274949961e+00 
       7.336115587705e-02       1.639814320619e+00 
       7.644928796912e-02       1.560660877552e+00 
       7.954353299775e-02       1.477457454634e+00 
       8.266024078725e-02       1.391695940729e+00 
       8.581273398637e-02       1.305464745788e+00 
       8.901225918437e-02       1.221125439142e+00 
       9.226860540985e-02       1.141075329570e+00 
       9.559052048996e-02       1.067451543345e+00 
       9.898599946599e-02       1.001889075408e+00 
       1.024624891378e-01       9.453807838368e-01 
       1.060270359164e-01       8.981463318383e-01 
       1.096863943056e-01       8.596090552256e-01 
       1.134471073830e-01       8.284028050114e-01 
       1.173155669539e-01       8.024644939946e-01 
       1.212980586983e-01       7.792260400089e-01 
       1.254007961065e-01       7.559148714496e-01 
       1.296299459934e-01       7.299795245464e-01 
       1.339916477160e-01       6.995899176369e-01 
       1.384920277736e-01       6.640766684815e-01 
       1.431372111762e-01       6.241439634549e-01 
       1.479333307714e-01       5.817603804869e-01 
       1.528865355934e-01       5.396869928970e-01 
       1.580029992204e-01       5.008097420682e-01 
       1.632889290723e-01       4.673944912974e-01 
       1.687505775527e-01       4.405296366351e-01 
       1.743942559171e-01       4.198610687006e-01 
       1.802263517371e-01       4.036544030553e-01 
       1.862533508214e-01       3.893575500647e-01 
       1.924818644494e-01       3.741345212009e-01 
       1.989186627765e-01       3.558015367503e-01 
       2.055707152847e-01       3.339979443400e-01 
       2.124452391818e-01       3.102596035506e-01 
       2.195497567139e-01       2.871160090418e-01 
       2.268921624510e-01       2.668020037429e-01 
       2.344808017550e-01       2.504766759386e-01 
       2.423245618548e-01       2.378262868013e-01 
       2.504329772620e-01       2.271043924877e-01 
       2.588163516754e-01       2.161123354963e-01 
       2.674858990930e-01       2.035399163009e-01 
       2.764539076010e-01       1.895889323425e-01 
       2.857339303080e-01       1.757487259638e-01 
       2.953410092148e-01       1.636908247883e-01 
       3.052919395542e-01       1.538976177062e-01 
       3.156055844677e-01       1.455221667102e-01 
       3.263032530092e-01       1.372405130957e-01 
       3.374091587054e-01       1.282922455886e-01 
       3.489509817175e-01       1.191612963941e-01 
       3.609605657343e-01       1.107968399203e-01 
       3.734747921333e-01       1.036346876544e-01 
       3.865366902904e-01       9.713040666002e-02 
       4.001968667448e-01       9.060419343354e-02 
       4.145153713076e-01       8.402544629989e-02 
       4.295641718077e-01       7.787956660190e-02 
       4.454304922144e-01       7.232935981800e-02 
       4.622214006969e-01       6.708109081223e-02 
       4.800702491654e-01       6.187878648296e-02 
       4.991459272112e-01       5.691286524981e-02 
       5.196665217302e-01       5.230213143705e-02 
       5.419201087032e-01       4.781799020597e-02 
       5.662975451962e-01       4.347174550625e-02 
       5.933463737275e-01       3.931526220123e-02 
       6.238638458458e-01       3.523678420407e-02 
       6.590669257916e-01       3.124550339700e-02 
       7.009246080454e-01       2.726895694126e-02 
       7.528593308799e-01       2.325889779849e-02 
       8.213469537518e-01       1.912707519559e-02 
       9.196980813302e-01       1.479358995210e-02 
       1.075112183810e+00       1.032380098620e-02 
       1.322697471132e+00       6.346571408947e-03 
       1.662328205042e+00       3.664879525043e-03 
       2.092692408506e+00       2.074085090258e-03 
       2.634543445090e+00       1.146194458294e-03 
       3.316693691389e+00       6.077686162703e-04 
       4.175469971226e+00       2.972026779047e-04 
       5.256605252960e+00       1.222454570171e-04 
       6.617673932723e+00       3.289488834601e-05 
       8.331157880872e+00       1.493085913646e-06 
       1.048830636590e+01       4.314203597052e-06 
       1.320399541071e+01       1.133359402713e-05 
       1.662284535976e+01       4.881301788920e-06 
       2.092692243973e+01       1.728779241804e-08 
       2.634543445002e+01       8.855426065880e-07 
       3.316693691389e+01       1.127053972208e-09 
       4.175469971226e+01       1.380254415979e-08 
       5.256605252960e+01       4.721305650698e-10 
       6.617673932723e+01       9.199744192768e-11 
