# Matter power spectrum P(k) at redshift z=0
# for k=1.04775e-05 to 67.6233 h/Mpc,
# number of wavenumbers equal to 246
#    1:k (h/Mpc)              2:P (Mpc/h)^3        
       1.047750691046e-05       5.020964811306e+01 
       1.131335172503e-05       5.407050701931e+01 
       1.221587619537e-05       5.822819068583e+01 
       1.319039970183e-05       6.270562594770e+01 
       1.424266597921e-05       6.752732240880e+01 
       1.537887696968e-05       7.271977206173e+01 
       1.660572937635e-05       7.831147247912e+01 
       1.793045413292e-05       8.433311821988e+01 
       1.936085902198e-05       9.081778249833e+01 
       2.090537469327e-05       9.780108069295e+01 
       2.257310435294e-05       1.053213197893e+02 
       2.437387741694e-05       1.134197377890e+02 
       2.631830744443e-05       1.221408203809e+02 
       2.841785469300e-05       1.315324642474e+02 
       3.068489366414e-05       1.416462094881e+02 
       3.313278603720e-05       1.525374501932e+02 
       3.577595942169e-05       1.642660688414e+02 
       3.862999239199e-05       1.768963506307e+02 
       4.171170630578e-05       1.904975994010e+02 
       4.503926444729e-05       2.051444491974e+02 
       4.863227907969e-05       2.209171465549e+02 
       5.251192703764e-05       2.379022224249e+02 
       5.670107454120e-05       2.561927927583e+02 
       6.122441196689e-05       2.758890444041e+02 
       6.610859936996e-05       2.970989227881e+02 
       7.138242361596e-05       3.199385560802e+02 
       7.707696804727e-05       3.445329783680e+02 
       8.322579568497e-05       3.710167318946e+02 
       8.986514704559e-05       3.995346444203e+02 
       9.703415373875e-05       4.302425407383e+02 
       1.047750691046e-04       4.633080766742e+02 
       1.131335172503e-04       4.989116271565e+02 
       1.221587619537e-04       5.372471950930e+02 
       1.319039970183e-04       5.785234129335e+02 
       1.424266597921e-04       6.229645936045e+02 
       1.537887696968e-04       6.708118490405e+02 
       1.660572937635e-04       7.223242666092e+02 
       1.793045413292e-04       7.777801562623e+02 
       1.936085902198e-04       8.374783614141e+02 
       2.090537469327e-04       9.017396271824e+02 
       2.257310435294e-04       9.709080268041e+02 
       2.437387741694e-04       1.045352449493e+03 
       2.631830744443e-04       1.125468123750e+03 
       2.841785469300e-04       1.211678180495e+03 
       3.068489366414e-04       1.304435250150e+03 
       3.313278603720e-04       1.404223053681e+03 
       3.577595942169e-04       1.511558014616e+03 
       3.862999239199e-04       1.626990837842e+03 
       4.171170630578e-04       1.751108028790e+03 
       4.503926444729e-04       1.884533382872e+03 
       4.863227907969e-04       2.027929378111e+03 
       5.251192703764e-04       2.181998448133e+03 
       5.670107454121e-04       2.347484102755e+03 
       6.122441196689e-04       2.525171871366e+03 
       6.610859936996e-04       2.715889983592e+03 
       7.138242361596e-04       2.920509688382e+03 
       7.707696804727e-04       3.139945100279e+03 
       8.322579568497e-04       3.375152337583e+03 
       8.986514704559e-04       3.627127831140e+03 
       9.703415373875e-04       3.896905453135e+03 
       1.047750691046e-03       4.185552174313e+03 
       1.131335172503e-03       4.494162430372e+03 
       1.221587619537e-03       4.823850706488e+03 
       1.319039970183e-03       5.175742742008e+03 
       1.424266597921e-03       5.551019596912e+03 
       1.537887696968e-03       5.950788340558e+03 
       1.660572937635e-03       6.376123051747e+03 
       1.793045413292e-03       6.828073901444e+03 
       1.936085902198e-03       7.307625381060e+03 
       2.090537469327e-03       7.815671864989e+03 
       2.257310435294e-03       8.352990375816e+03 
       2.437387741694e-03       8.920211064344e+03 
       2.631830744443e-03       9.517783069094e+03 
       2.841785469300e-03       1.014593704433e+04 
       3.068489366414e-03       1.080464502787e+04 
       3.313278603720e-03       1.149357460341e+04 
       3.577595942169e-03       1.221203621717e+04 
       3.862999239199e-03       1.295892539440e+04 
       4.171170630578e-03       1.373266011914e+04 
       4.503926444729e-03       1.453111835616e+04 
       4.863227907969e-03       1.535154984969e+04 
       5.251192703764e-03       1.619063612600e+04 
       5.670107454120e-03       1.704431257623e+04 
       6.122441196689e-03       1.790755940791e+04 
       6.610859936996e-03       1.877460417159e+04 
       7.138242361596e-03       1.963872434099e+04 
       7.707696804727e-03       2.049215714309e+04 
       8.322579568496e-03       2.132607247452e+04 
       8.986514704559e-03       2.213055179909e+04 
       9.703415373875e-03       2.289445487020e+04 
       1.047750691046e-02       2.360548553947e+04 
       1.131335172503e-02       2.425023591843e+04 
       1.221587619537e-02       2.481423929285e+04 
       1.319039970183e-02       2.528218875185e+04 
       1.424266597920e-02       2.563814353973e+04 
       1.537887696964e-02       2.586606288633e+04 
       1.660572937560e-02       2.595028259000e+04 
       1.793045412207e-02       2.587634417539e+04 
       1.936085889642e-02       2.563220227247e+04 
       2.090537351881e-02       2.520935026895e+04 
       2.257309534705e-02       2.460447362315e+04 
       2.437382002240e-02       2.382088446935e+04 
       2.631799943729e-02       2.287047660334e+04 
       2.841644544598e-02       2.177451074817e+04 
       3.067933354524e-02       2.056553231375e+04 
       3.311368469821e-02       1.928728602871e+04 
       3.571840442514e-02       1.799401559356e+04 
       3.847720347390e-02       1.674683014761e+04 
       4.135335537314e-02       1.560460604112e+04 
       4.429361666563e-02       1.461036530866e+04 
       4.724366437916e-02       1.378063821519e+04 
       5.016480834039e-02       1.310498558234e+04 
       5.303989618930e-02       1.255716480265e+04 
       5.586870668205e-02       1.210424374073e+04 
       5.866042679206e-02       1.171470244240e+04 
       6.142798931504e-02       1.136051230316e+04 
       6.418496438662e-02       1.101860942906e+04 
       6.694418832236e-02       1.067074941953e+04 
       6.971731104453e-02       1.030362355136e+04 
       7.251476154108e-02       9.909069777863e+03 
       7.534587669814e-02       9.483796343833e+03 
       7.821907664495e-02       9.029537781568e+03 
       8.114203771084e-02       8.552357874408e+03 
       8.412184533139e-02       8.061972245912e+03 
       8.716512277352e-02       7.570817889583e+03 
       9.027813693913e-02       7.092510433272e+03 
       9.346688429613e-02       6.640561371781e+03 
       9.673716026122e-02       6.226737099091e+03 
       1.000946150608e-01       5.859992347765e+03 
       1.035447986307e-01       5.545295626101e+03 
       1.070931966524e-01       5.283162754360e+03 
       1.107452594180e-01       5.069427534336e+03 
       1.145064248899e-01       4.895255127311e+03 
       1.183821370656e-01       4.747862605635e+03 
       1.223778605591e-01       4.611741535674e+03 
       1.264990921707e-01       4.470611395474e+03 
       1.307513701078e-01       4.310182345141e+03 
       1.351402814485e-01       4.121298128562e+03 
       1.396714683894e-01       3.901999291316e+03 
       1.443506337875e-01       3.658680420693e+03 
       1.491835464900e-01       3.404489233935e+03 
       1.541760469368e-01       3.156662152473e+03 
       1.593340535209e-01       2.931934469475e+03 
       1.646635701934e-01       2.742356368722e+03 
       1.701706958081e-01       2.592242918775e+03 
       1.758616357070e-01       2.477225808664e+03 
       1.817427160581e-01       2.385166502084e+03 
       1.878204014651e-01       2.300349912766e+03 
       1.941013163855e-01       2.205769685218e+03 
       2.005922709060e-01       2.090823813741e+03 
       2.073002914514e-01       1.956462241989e+03 
       2.142326570343e-01       1.814185924313e+03 
       2.213969417044e-01       1.679269183514e+03 
       2.288010639201e-01       1.563835247111e+03 
       2.364533436625e-01       1.472673853022e+03 
       2.443625682390e-01       1.401505859379e+03 
       2.525380678946e-01       1.338417801875e+03 
       2.609898025770e-01       1.270900589199e+03 
       2.697284614969e-01       1.193363409723e+03 
       2.787655775073e-01       1.109332745812e+03 
       2.881136588192e-01       1.028761012918e+03 
       2.977863412019e-01       9.604740677428e+02 
       3.077985646248e-01       9.050182188892e+02 
       3.181667793367e-01       8.561385166340e+02 
       3.289091877084e-01       8.061810813393e+02 
       3.400460298905e-01       7.523832706849e+02 
       3.515999235695e-01       6.989139056660e+02 
       3.635962710278e-01       6.510580577570e+02 
       3.760637505499e-01       6.101183692678e+02 
       3.890349143014e-01       5.721288500073e+02 
       4.025469215929e-01       5.337762980447e+02 
       4.166424455447e-01       4.956248244992e+02 
       4.313708034899e-01       4.604648207679e+02 
       4.467893781976e-01       4.287702636394e+02 
       4.629654198623e-01       3.987697886657e+02 
       4.799783500912e-01       3.692357387344e+02 
       4.979227318246e-01       3.412373446337e+02 
       5.169121269689e-01       3.154781772729e+02 
       5.370841403262e-01       2.908319444629e+02 
       5.586070463286e-01       2.671023029126e+02 
       5.816885093582e-01       2.448053094028e+02 
       6.065870143577e-01       2.235662212047e+02 
       6.336266466978e-01       2.032093930852e+02 
       6.632156057925e-01       1.838774935665e+02 
       6.958678637575e-01       1.653534126141e+02 
       7.322247983784e-01       1.476944915619e+02 
       7.730680193171e-01       1.308331349524e+02 
       8.193049551574e-01       1.148309343467e+02 
       8.718988013754e-01       9.976186621939e+01 
       9.317218028590e-01       8.577724626344e+01 
       9.993660906273e-01       7.305403483205e+01 
       1.075037109879e+00       6.173545518161e+01 
       1.158653485387e+00       5.187851309256e+01 
       1.250099156961e+00       4.343968989250e+01 
       1.349432400897e+00       3.628854281731e+01 
       1.456947456991e+00       3.026767863865e+01 
       1.573135110893e+00       2.521419647092e+01 
       1.698621895119e+00       2.098169989021e+01 
       1.834127512423e+00       1.744210208571e+01 
       1.980444933977e+00       1.448530798381e+01 
       2.138435191130e+00       1.201864416479e+01 
       2.309029198543e+00       9.962926790361e+00 
       2.493232376993e+00       8.251563617760e+00 
       2.692130394536e+00       6.828330701443e+00 
       2.906895533764e+00       5.645976588865e+00 
       3.138793596840e+00       4.664589162238e+00 
       3.389191365541e+00       3.850873328449e+00 
       3.659564656886e+00       3.176713252616e+00 
       3.951507021438e+00       2.618636963756e+00 
       4.266739135513e+00       2.157112908415e+00 
       4.607118942658e+00       1.775703152603e+00 
       4.974652604172e+00       1.460771610021e+00 
       5.371506323193e+00       1.200915253365e+00 
       5.800019112071e+00       9.866710185374e-01 
       6.262716578240e+00       8.101414118876e-01 
       6.762325809881e+00       6.647993557028e-01 
       7.301791449077e+00       5.452254879494e-01 
       7.884293047211e+00       4.468988870355e-01 
       8.513263804891e+00       3.661027565610e-01 
       9.192410806865e+00       2.997502929296e-01 
       9.925736871166e+00       2.452937586733e-01 
       1.071756414128e+01       2.006255301104e-01 
       1.157255956041e+01       1.640051482878e-01 
       1.249576237789e+01       1.340017454987e-01 
       1.349261385000e+01       1.094316192594e-01 
       1.456898931011e+01       8.932142794744e-02 
       1.573123279727e+01       7.287017545040e-02 
       1.698619444729e+01       5.941823915367e-02 
       1.834127086665e+01       4.842470897428e-02 
       1.980444872733e+01       3.944430216956e-02 
       2.138435183937e+01       3.211175681227e-02 
       2.309029197863e+01       2.612782935618e-02 
       2.493232376942e+01       2.124605705182e-02 
       2.692130394533e+01       1.726526130908e-02 
       2.906895533764e+01       1.402105915464e-02 
       3.138793596840e+01       1.137790876838e-02 
       3.389191365541e+01       9.225510656193e-03 
       3.659564656886e+01       7.473249037484e-03 
       3.951507021438e+01       6.047636522938e-03 
       4.266739135513e+01       4.888069111886e-03 
       4.607118942658e+01       3.945345174686e-03 
       4.974652604172e+01       3.179246803526e-03 
       5.371506323193e+01       2.557003687775e-03 
       5.800019112071e+01       2.051777193503e-03 
       6.262716578240e+01       1.641784871903e-03 
       6.762325809881e+01       1.309283237219e-03 
