# Matter power spectrum P(k) at redshift z=0
# for k=1.04775e-05 to 66.1767 h/Mpc,
# number of wavenumbers equal to 130
#    1:k (h/Mpc)              2:P (Mpc/h)^3        
       1.047750691046e-05       5.020964811306e+01 
       1.319039970183e-05       6.270562594783e+01 
       1.660572937635e-05       7.831147247912e+01 
       2.090537469327e-05       9.780108069295e+01 
       2.631830744443e-05       1.221408203810e+02 
       3.313278603720e-05       1.525374501932e+02 
       4.171170630578e-05       1.904975994010e+02 
       5.251192703764e-05       2.379022224249e+02 
       6.610859936996e-05       2.970989227882e+02 
       8.322579568497e-05       3.710167318946e+02 
       1.047750691046e-04       4.633080766742e+02 
       1.319039970183e-04       5.785234129338e+02 
       1.660572937635e-04       7.223242666092e+02 
       2.090537469327e-04       9.017396271824e+02 
       2.631830744443e-04       1.125468123750e+03 
       3.313278603720e-04       1.404223053681e+03 
       4.171170630578e-04       1.751108028790e+03 
       5.251192703764e-04       2.181998448133e+03 
       6.610859936996e-04       2.715889983592e+03 
       8.322579568497e-04       3.375152337134e+03 
       1.047750691046e-03       4.185552174307e+03 
       1.319039970183e-03       5.175742743350e+03 
       1.660572937635e-03       6.376123051775e+03 
       2.090537469327e-03       7.815671904692e+03 
       2.631830744443e-03       9.517783069112e+03 
       3.313278603720e-03       1.149357460339e+04 
       4.171170630578e-03       1.373266008837e+04 
       5.251192703764e-03       1.619063614560e+04 
       6.610859936996e-03       1.877460421600e+04 
       8.322579568497e-03       2.132607231913e+04 
       1.047750691046e-02       2.360548919913e+04 
       1.319039970183e-02       2.528218616481e+04 
       1.660572937633e-02       2.595026070865e+04 
       2.090537453514e-02       2.520935401191e+04 
       2.631818545635e-02       2.287033829847e+04 
       3.311571692125e-02       1.928625984759e+04 
       4.113809243311e-02       1.568429293404e+04 
       4.792590854610e-02       1.361062326434e+04 
       5.284436902701e-02       1.259130361823e+04 
       5.689644391095e-02       1.195554511205e+04 
       6.051252627066e-02       1.147548604696e+04 
       6.388413457411e-02       1.105587296564e+04 
       6.711249296401e-02       1.064898400331e+04 
       7.025823437965e-02       1.022930085739e+04 
       7.336115587705e-02       9.784548863098e+03 
       7.644928796912e-02       9.311658451896e+03 
       7.954353299775e-02       8.814527532760e+03 
       8.266024078725e-02       8.302120873509e+03 
       8.581273398637e-02       7.786940918467e+03 
       8.901225918437e-02       7.283178606744e+03 
       9.226860540985e-02       6.805158919768e+03 
       9.559052048996e-02       6.365627256986e+03 
       9.898599946599e-02       5.974404007771e+03 
       1.024624891378e-01       5.637321577424e+03 
       1.060270359164e-01       5.355772349600e+03 
       1.096863943056e-01       5.126242096141e+03 
       1.134471073830e-01       4.940478039974e+03 
       1.173155669539e-01       4.786166744328e+03 
       1.212980586983e-01       4.647930448369e+03 
       1.254007961065e-01       4.509162922935e+03 
       1.296299459934e-01       4.354557149444e+03 
       1.339916477160e-01       4.173212685534e+03 
       1.384920277736e-01       3.961162151562e+03 
       1.431372111762e-01       3.722682928456e+03 
       1.479333307714e-01       3.469552686843e+03 
       1.528865355934e-01       3.218345007474e+03 
       1.580029992204e-01       2.986293346498e+03 
       1.632889290723e-01       2.786960602365e+03 
       1.687505775527e-01       2.626833396780e+03 
       1.743942559171e-01       2.503758739312e+03 
       1.802263517371e-01       2.407342687617e+03 
       1.862533508214e-01       2.322243925673e+03 
       1.924818644494e-01       2.231551335492e+03 
       1.989186627765e-01       2.122189620092e+03 
       2.055707152847e-01       1.992032559706e+03 
       2.124452391818e-01       1.850325233849e+03 
       2.195497567139e-01       1.712184336597e+03 
       2.268921624510e-01       1.590989462990e+03 
       2.344808017550e-01       1.493670506514e+03 
       2.423245618548e-01       1.418311353194e+03 
       2.504329772620e-01       1.354466999488e+03 
       2.588163516754e-01       1.288932617347e+03 
       2.674858990930e-01       1.213938620699e+03 
       2.764539076010e-01       1.130695288934e+03 
       2.857339303080e-01       1.048098631725e+03 
       2.953410092148e-01       9.761836772245e+02 
       3.052919395542e-01       9.178096778046e+02 
       3.156055844677e-01       8.678978790291e+02 
       3.263032530092e-01       8.185251813878e+02 
       3.374091587054e-01       7.651486893278e+02 
       3.489509817175e-01       7.106722790977e+02 
       3.609605657343e-01       6.607849567003e+02 
       3.734747921333e-01       6.180870118656e+02 
       3.865366902904e-01       5.793116933220e+02 
       4.001968667448e-01       5.403917510430e+02 
       4.145153713076e-01       5.011523858698e+02 
       4.295641718077e-01       4.644987023620e+02 
       4.454304922144e-01       4.314110745415e+02 
       4.622214006969e-01       4.001131925431e+02 
       4.800702491654e-01       3.690893247642e+02 
       4.991459272112e-01       3.394766837259e+02 
       5.196665217302e-01       3.119868277049e+02 
       5.419201087032e-01       2.852474480417e+02 
       5.662975451962e-01       2.593315673711e+02 
       5.933463737275e-01       2.345478733486e+02 
       6.238638458458e-01       2.102312351437e+02 
       6.590669257916e-01       1.864333340140e+02 
       7.009246080454e-01       1.627258266868e+02 
       7.528593308799e-01       1.388184774201e+02 
       8.213469537518e-01       1.141887423585e+02 
       9.196980813302e-01       8.835912152088e+01 
       1.075112183810e+00       6.172623142463e+01 
       1.322697471132e+00       3.804283008938e+01 
       1.662328205042e+00       2.209796345841e+01 
       2.092692408506e+00       1.266925258480e+01 
       2.634543445090e+00       7.203379209112e+00 
       3.316693691389e+00       4.065159261675e+00 
       4.175469971226e+00       2.278618635251e+00 
       5.256605252960e+00       1.269360436898e+00 
       6.617673932723e+00       7.031366490133e-01 
       8.331157880872e+00       3.874780248597e-01 
       1.048830636590e+01       2.125114806094e-01 
       1.320399541071e+01       1.160365909247e-01 
       1.662284535976e+01       6.309894692813e-02 
       2.092692243973e+01       3.417958529551e-02 
       2.634543445002e+01       1.844627513324e-02 
       3.316693691389e+01       9.919118950731e-03 
       4.175469971226e+01       5.314601809398e-03 
       5.256605252960e+01       2.836697729814e-03 
       6.617673932723e+01       1.507684509018e-03 
