# Matter power spectrum P(k) at redshift z=99
# for k=1.04775e-05 to 67.6233 h/Mpc,
# number of wavenumbers equal to 246
#    1:k (h/Mpc)              2:P (Mpc/h)^3        
       1.047750691046e-05       7.261927680866e-03 
       1.131335172503e-05       7.820331652437e-03 
       1.221587619537e-05       8.421675995459e-03 
       1.319039970183e-05       9.069258201855e-03 
       1.424266597921e-05       9.766638412139e-03 
       1.537887696968e-05       1.051764070802e-02 
       1.660572937635e-05       1.132639106726e-02 
       1.793045413292e-05       1.219733232716e-02 
       1.936085902198e-05       1.313524225780e-02 
       2.090537469327e-05       1.414527123400e-02 
       2.257310435294e-05       1.523296273824e-02 
       2.437387741694e-05       1.640429446289e-02 
       2.631830744443e-05       1.766569584059e-02 
       2.841785469300e-05       1.902408737006e-02 
       3.068489366414e-05       2.048692972774e-02 
       3.313278603720e-05       2.206225515944e-02 
       3.577595942169e-05       2.375870707440e-02 
       3.862999239199e-05       2.558560730204e-02 
       4.171170630578e-05       2.755297766279e-02 
       4.503926444729e-05       2.967161930475e-02 
       4.863227907969e-05       3.195316454235e-02 
       5.251192703764e-05       3.441013522949e-02 
       5.670107454120e-05       3.705601726476e-02 
       6.122441196689e-05       3.990533417797e-02 
       6.610859936996e-05       4.297372172780e-02 
       7.138242361596e-05       4.627802146617e-02 
       7.707696804727e-05       4.983636199467e-02 
       8.322579568497e-05       5.366826852948e-02 
       8.986514704559e-05       5.779476400724e-02 
       9.703415373875e-05       6.223848250514e-02 
       1.047750691046e-04       6.702379872779e-02 
       1.131335172503e-04       7.217695161068e-02 
       1.221587619537e-04       7.772619081851e-02 
       1.319039970183e-04       8.370193441291e-02 
       1.424266597921e-04       9.013692517150e-02 
       1.537887696968e-04       9.706641252909e-02 
       1.660572937635e-04       1.045283355385e-01 
       1.793045413292e-04       1.125635350267e-01 
       1.936085902198e-04       1.212159616259e-01 
       2.090537469327e-04       1.305329134105e-01 
       2.257310435294e-04       1.405652847712e-01 
       2.437387741694e-04       1.513678304152e-01 
       2.631830744443e-04       1.629994506606e-01 
       2.841785469300e-04       1.755234923094e-01 
       3.068489366414e-04       1.890080672426e-01 
       3.313278603720e-04       2.035264004603e-01 
       3.577595942169e-04       2.191571806015e-01 
       3.862999239199e-04       2.359849440106e-01 
       4.171170630578e-04       2.541004744244e-01 
       4.503926444729e-04       2.736012083190e-01 
       4.863227907969e-04       2.945916794101e-01 
       5.251192703764e-04       3.171839528559e-01 
       5.670107454121e-04       3.414980767637e-01 
       6.122441196689e-04       3.676625417014e-01 
       6.610859936996e-04       3.958147256515e-01 
       7.138242361596e-04       4.261013289358e-01 
       7.707696804727e-04       4.586787797353e-01 
       8.322579568497e-04       4.937136006301e-01 
       8.986514704559e-04       5.313826807051e-01 
       9.703415373875e-04       5.718734978236e-01 
       1.047750691046e-03       6.153841636045e-01 
       1.131335172503e-03       6.621233246498e-01 
       1.221587619537e-03       7.123098227994e-01 
       1.319039970183e-03       7.661720592913e-01 
       1.424266597921e-03       8.239546306462e-01 
       1.537887696968e-03       8.859011182851e-01 
       1.660572937635e-03       9.522588016496e-01 
       1.793045413292e-03       1.023280100901e+00 
       1.936085902198e-03       1.099216305740e+00 
       2.090537469327e-03       1.180312991699e+00 
       2.257310435294e-03       1.266804117184e+00 
       2.437387741694e-03       1.358904854833e+00 
       2.631830744443e-03       1.456802684683e+00 
       2.841785469300e-03       1.560646892153e+00 
       3.068489366414e-03       1.670536064239e+00 
       3.313278603720e-03       1.786503854037e+00 
       3.577595942169e-03       1.908502932760e+00 
       3.862999239199e-03       2.036387732805e+00 
       4.171170630578e-03       2.169896196500e+00 
       4.503926444729e-03       2.308631881341e+00 
       4.863227907969e-03       2.452047293437e+00 
       5.251192703764e-03       2.599430630693e+00 
       5.670107454120e-03       2.749896934491e+00 
       6.122441196689e-03       2.902386516228e+00 
       6.610859936996e-03       3.055668709991e+00 
       7.138242361596e-03       3.208356464588e+00 
       7.707696804727e-03       3.358923895779e+00 
       8.322579568496e-03       3.505725598475e+00 
       8.986514704559e-03       3.647009257637e+00 
       9.703415373875e-03       3.780923307646e+00 
       1.047750691046e-02       3.905491320123e+00 
       1.131335172503e-02       4.018588044553e+00 
       1.221587619537e-02       4.117901588022e+00 
       1.319039970183e-02       4.200915401074e+00 
       1.424266597920e-02       4.264942525979e+00 
       1.537887696964e-02       4.307219076272e+00 
       1.660572937560e-02       4.325061531303e+00 
       1.793045412207e-02       4.316059180488e+00 
       1.936085889642e-02       4.278226501743e+00 
       2.090537351881e-02       4.210196517088e+00 
       2.257309534705e-02       4.111421974750e+00 
       2.437382002240e-02       3.982422999086e+00 
       2.631799943729e-02       3.825161348316e+00 
       2.841644544598e-02       3.643284935799e+00 
       3.067933354524e-02       3.442191719273e+00 
       3.311368469821e-02       3.229234561149e+00 
       3.571840442514e-02       3.013514889312e+00 
       3.847720347390e-02       2.805279110011e+00 
       4.135335537314e-02       2.614414341323e+00 
       4.429361666563e-02       2.448134581305e+00 
       4.724366437916e-02       2.309235153252e+00 
       5.016480834039e-02       2.196110865397e+00 
       5.303989618930e-02       2.104364336419e+00 
       5.586870668205e-02       2.028459832860e+00 
       5.866042679206e-02       1.963157056529e+00 
       6.142798931504e-02       1.903782313548e+00 
       6.418496438662e-02       1.846479881924e+00 
       6.694418832236e-02       1.788197018661e+00 
       6.971731104453e-02       1.726718503137e+00 
       7.251476154108e-02       1.660655238968e+00 
       7.534587669814e-02       1.589474970618e+00 
       7.821907664495e-02       1.513439602959e+00 
       8.114203771084e-02       1.433567275629e+00 
       8.412184533139e-02       1.351491614083e+00 
       8.716512277352e-02       1.269273172611e+00 
       9.027813693913e-02       1.189192480076e+00 
       9.346688429613e-02       1.113499156780e+00 
       9.673716026122e-02       1.044175410322e+00 
       1.000946150608e-01       9.827066430373e-01 
       1.035447986307e-01       9.299414884537e-01 
       1.070931966524e-01       8.859588316976e-01 
       1.107452594180e-01       8.500706211145e-01 
       1.145064248899e-01       8.208031066862e-01 
       1.183821370656e-01       7.960261947876e-01 
       1.223778605591e-01       7.731453506985e-01 
       1.264990921707e-01       7.494512776198e-01 
       1.307513701078e-01       7.225565971165e-01 
       1.351402814485e-01       6.909086616721e-01 
       1.396714683894e-01       6.541807693273e-01 
       1.443506337875e-01       6.134269961592e-01 
       1.491835464900e-01       5.708681612238e-01 
       1.541760469368e-01       5.293645507456e-01 
       1.593340535209e-01       4.917112980633e-01 
       1.646635701934e-01       4.599189641263e-01 
       1.701706958081e-01       4.347282574082e-01 
       1.758616357070e-01       4.154070889295e-01 
       1.817427160581e-01       3.999359817964e-01 
       1.878204014651e-01       3.856862991570e-01 
       1.941013163855e-01       3.698124900280e-01 
       2.005922709060e-01       3.505490703641e-01 
       2.073002914514e-01       3.280465934568e-01 
       2.142326570343e-01       3.042138345658e-01 
       2.213969417044e-01       2.816114189097e-01 
       2.288010639201e-01       2.622566938622e-01 
       2.364533436625e-01       2.469618370459e-01 
       2.443625682390e-01       2.350122416656e-01 
       2.525380678946e-01       2.244206990506e-01 
       2.609898025770e-01       2.130958268996e-01 
       2.697284614969e-01       2.001025714020e-01 
       2.787655775073e-01       1.860196035020e-01 
       2.881136588192e-01       1.725167911770e-01 
       2.977863412019e-01       1.610658282102e-01 
       3.077985646248e-01       1.517606892659e-01 
       3.181667793367e-01       1.435592479146e-01 
       3.289091877084e-01       1.351812359706e-01 
       3.400460298905e-01       1.261640703430e-01 
       3.515999235695e-01       1.172019550914e-01 
       3.635962710278e-01       1.091766945949e-01 
       3.760637505499e-01       1.023096618012e-01 
       3.890349143014e-01       9.593733211227e-02 
       4.025469215929e-01       8.950745267624e-02 
       4.166424455447e-01       8.311148765749e-02 
       4.313708034899e-01       7.721529598456e-02 
       4.467893781976e-01       7.190042821808e-02 
       4.629654198623e-01       6.686885043710e-02 
       4.799783500912e-01       6.191729353130e-02 
       4.979227318246e-01       5.722216943635e-02 
       5.169121269689e-01       5.290295129240e-02 
       5.370841403262e-01       4.876957166672e-02 
       5.586070463286e-01       4.479075994465e-02 
       5.816885093582e-01       4.105178018393e-02 
       6.065870143577e-01       3.748977758044e-02 
       6.336266466978e-01       3.407621945894e-02 
       6.632156057925e-01       3.083454956150e-02 
       6.958678637575e-01       2.772828073815e-02 
       7.322247983784e-01       2.476705904415e-02 
       7.730680193171e-01       2.193951827875e-02 
       8.193049551574e-01       1.925605343493e-02 
       8.718988013754e-01       1.672917373174e-02 
       9.317218028590e-01       1.438416473516e-02 
       9.993660906273e-01       1.225058037457e-02 
       1.075037109879e+00       1.035255384680e-02 
       1.158653485387e+00       8.699648881897e-03 
       1.250099156961e+00       7.284547010788e-03 
       1.349432400897e+00       6.085388270326e-03 
       1.456947456991e+00       5.075637726703e-03 
       1.573135110893e+00       4.228249878667e-03 
       1.698621895119e+00       3.518484036046e-03 
       1.834127512423e+00       2.924928818275e-03 
       1.980444933977e+00       2.429106631389e-03 
       2.138435191130e+00       2.015451117810e-03 
       2.309029198543e+00       1.670718985887e-03 
       2.493232376993e+00       1.383737200175e-03 
       2.692130394536e+00       1.145074091699e-03 
       2.906895533764e+00       9.468025938070e-04 
       3.138793596840e+00       7.822388906337e-04 
       3.389191365541e+00       6.457664460954e-04 
       3.659564656886e+00       5.327161203515e-04 
       3.951507021438e+00       4.391319995587e-04 
       4.266739135513e+00       3.617350101752e-04 
       4.607118942658e+00       2.977740045025e-04 
       4.974652604172e+00       2.449622853684e-04 
       5.371506323193e+00       2.013853130525e-04 
       5.800019112071e+00       1.654551248382e-04 
       6.262716578240e+00       1.358541792708e-04 
       6.762325809881e+00       1.114800894121e-04 
       7.301791449077e+00       9.142802823264e-05 
       7.884293047211e+00       7.493885107096e-05 
       8.513263804891e+00       6.138998638438e-05 
       9.192410806865e+00       5.026283137858e-05 
       9.925736871166e+00       4.113019276176e-05 
       1.071756414128e+01       3.363911648191e-05 
       1.157255956041e+01       2.749769603450e-05 
       1.249576237789e+01       2.246622903367e-05 
       1.349261385000e+01       1.834549024344e-05 
       1.456898931011e+01       1.497279710409e-05 
       1.573123279727e+01       1.221377924150e-05 
       1.698619444729e+01       9.957629252386e-06 
       1.834127086665e+01       8.113740561464e-06 
       1.980444872733e+01       6.607417267404e-06 
       2.138435183937e+01       5.377434027594e-06 
       2.309029197863e+01       4.373543067201e-06 
       2.493232376942e+01       3.554505591307e-06 
       2.692130394533e+01       2.886615709671e-06 
       2.906895533764e+01       2.342158499607e-06 
       3.138793596840e+01       1.898459531242e-06 
       3.389191365541e+01       1.537053774231e-06 
       3.659564656886e+01       1.242765175508e-06 
       3.951507021438e+01       1.003200141080e-06 
       4.266739135513e+01       8.082618727367e-07 
       4.607118942658e+01       6.496784425963e-07 
       4.974652604172e+01       5.207134310146e-07 
       5.371506323193e+01       4.158734064671e-07 
       5.800019112071e+01       3.306836762662e-07 
       6.262716578240e+01       2.614997041363e-07 
       6.762325809881e+01       2.053719025814e-07 
