# Matter power spectrum P(k) at redshift z=0
# for k=1.04775e-05 to 66.1767 h/Mpc,
# number of wavenumbers equal to 130
#    1:k (h/Mpc)              2:P (Mpc/h)^3        
       1.047750691046e-05       5.020964811308e+01 
       1.319039970183e-05       6.270562594773e+01 
       1.660572937635e-05       7.831147247912e+01 
       2.090537469327e-05       9.780108069297e+01 
       2.631830744443e-05       1.221408203809e+02 
       3.313278603720e-05       1.525374501932e+02 
       4.171170630578e-05       1.904975994010e+02 
       5.251192703764e-05       2.379022224246e+02 
       6.610859936996e-05       2.970989227881e+02 
       8.322579568497e-05       3.710167318944e+02 
       1.047750691046e-04       4.633080766739e+02 
       1.319039970183e-04       5.785234129326e+02 
       1.660572937635e-04       7.223242666079e+02 
       2.090537469327e-04       9.017396271798e+02 
       2.631830744443e-04       1.125468123745e+03 
       3.313278603720e-04       1.404223053671e+03 
       4.171170630578e-04       1.751108028771e+03 
       5.251192703764e-04       2.181998448093e+03 
       6.610859936996e-04       2.715889983515e+03 
       8.322579568497e-04       3.375152336981e+03 
       1.047750691046e-03       4.185552174010e+03 
       1.319039970183e-03       5.175742738200e+03 
       1.660572937635e-03       6.376123050509e+03 
       2.090537469327e-03       7.815671865546e+03 
       2.631830744443e-03       9.517783063429e+03 
       3.313278603720e-03       1.149357459191e+04 
       4.171170630578e-03       1.373266007303e+04 
       5.251192703764e-03       1.619062952353e+04 
       6.610859936996e-03       1.877460562663e+04 
       8.322579568497e-03       2.132610845775e+04 
       1.047750691046e-02       2.360545209735e+04 
       1.319039970183e-02       2.528217115060e+04 
       1.660572937633e-02       2.594998170796e+04 
       2.090537453514e-02       2.520927953917e+04 
       2.631818545635e-02       2.287011107112e+04 
       3.311571692125e-02       1.928608765066e+04 
       4.113809243311e-02       1.568413766196e+04 
       4.792590854610e-02       1.361052345536e+04 
       5.284436902701e-02       1.259122513210e+04 
       5.689644391095e-02       1.195549325040e+04 
       6.051252627066e-02       1.147544072586e+04 
       6.388413457411e-02       1.105560451429e+04 
       6.711249296401e-02       1.064882833549e+04 
       7.025823437965e-02       1.022927880854e+04 
       7.336115587705e-02       9.784545687124e+03 
       7.644928796912e-02       9.311684376980e+03 
       7.954353299775e-02       8.814455654378e+03 
       8.266024078725e-02       8.301905679778e+03 
       8.581273398637e-02       7.786916365783e+03 
       8.901225918437e-02       7.283181513742e+03 
       9.226860540985e-02       6.805158505256e+03 
       9.559052048996e-02       6.365630558422e+03 
       9.898599946599e-02       5.974361559398e+03 
       1.024624891378e-01       5.637290141749e+03 
       1.060270359164e-01       5.355768678792e+03 
       1.096863943056e-01       5.126203300659e+03 
       1.134471073830e-01       4.940445371623e+03 
       1.173155669539e-01       4.786127480346e+03 
       1.212980586983e-01       4.647902487449e+03 
       1.254007961065e-01       4.508997932471e+03 
       1.296299459934e-01       4.354499679883e+03 
       1.339916477160e-01       4.173085654472e+03 
       1.384920277736e-01       3.961129912962e+03 
       1.431372111762e-01       3.722546309817e+03 
       1.479333307714e-01       3.469504420190e+03 
       1.528865355934e-01       3.218270273357e+03 
       1.580029992204e-01       2.986183373195e+03 
       1.632889290723e-01       2.786889993466e+03 
       1.687505775527e-01       2.626751721408e+03 
       1.743942559171e-01       2.503692938841e+03 
       1.802263517371e-01       2.407238474560e+03 
       1.862533508214e-01       2.322187809273e+03 
       1.924818644494e-01       2.231495135479e+03 
       1.989186627765e-01       2.122134986675e+03 
       2.055707152847e-01       1.991962020229e+03 
       2.124452391818e-01       1.850219571905e+03 
       2.195497567139e-01       1.712072346376e+03 
       2.268921624510e-01       1.590881124142e+03 
       2.344808017550e-01       1.493563203020e+03 
       2.423245618548e-01       1.418208118617e+03 
       2.504329772620e-01       1.354338922616e+03 
       2.588163516754e-01       1.288826954410e+03 
       2.674858990930e-01       1.213795673960e+03 
       2.764539076010e-01       1.130565311307e+03 
       2.857339303080e-01       1.047970066732e+03 
       2.953410092148e-01       9.760491315678e+02 
       3.052919395542e-01       9.176731306311e+02 
       3.156055844677e-01       8.677480917873e+02 
       3.263032530092e-01       8.183837267038e+02 
       3.374091587054e-01       7.649962250479e+02 
       3.489509817175e-01       7.105086570922e+02 
       3.609605657343e-01       6.606219777911e+02 
       3.734747921333e-01       6.179160128933e+02 
       3.865366902904e-01       5.791300464112e+02 
       4.001968667448e-01       5.402043125672e+02 
       4.145153713076e-01       5.009586071284e+02 
       4.295641718077e-01       4.643023460837e+02 
       4.454304922144e-01       4.311992881029e+02 
       4.622214006969e-01       3.998989557303e+02 
       4.800702491654e-01       3.688632941696e+02 
       4.991459272112e-01       3.392420914906e+02 
       5.196665217302e-01       3.117407451163e+02 
       5.419201087032e-01       2.849899057497e+02 
       5.662975451962e-01       2.590611444669e+02 
       5.933463737275e-01       2.342640370357e+02 
       6.238638458458e-01       2.099316034701e+02 
       6.590669257916e-01       1.861159007602e+02 
       7.009246080454e-01       1.623842149468e+02 
       7.528593308799e-01       1.384487219614e+02 
       8.213469537518e-01       1.137811602752e+02 
       9.196980813302e-01       8.789654958787e+01 
       1.075112183810e+00       6.117648362924e+01 
       1.322697471132e+00       3.735582766048e+01 
       1.662328205042e+00       2.123095784528e+01 
       2.092692408506e+00       1.159801190472e+01 
       2.634543445090e+00       5.929824559330e+00 
       3.316693691389e+00       2.645894707777e+00 
       4.175469971226e+00       8.622714913106e-01 
       5.256605252960e+00       1.035204821213e-01 
       6.617673932723e+00       2.567055865398e-02 
       8.331157880872e+00       1.793032781442e-01 
       1.048830636590e+01       1.389053727082e-01 
       1.320399541071e+01       5.527522413665e-03 
       1.662284535976e+01       2.034542631041e-02 
       2.092692243973e+01       2.155405634076e-03 
       2.634543445002e+01       2.015473976046e-03 
       3.316693691389e+01       1.456780904666e-04 
       4.175469971226e+01       8.264170684714e-06 
       5.256605252960e+01       3.564884894848e-08 
       6.617673932723e+01       9.054061664283e-08 
