# Matter power spectrum P(k) at redshift z=99
# for k=1.04775e-05 to 66.1767 h/Mpc,
# number of wavenumbers equal to 130
#    1:k (h/Mpc)              2:P (Mpc/h)^3        
       1.047750691046e-05       7.261927680873e-03 
       1.319039970183e-05       9.069258201863e-03 
       1.660572937635e-05       1.132639106727e-02 
       2.090537469327e-05       1.414527123401e-02 
       2.631830744443e-05       1.766569584061e-02 
       3.313278603720e-05       2.206225515946e-02 
       4.171170630578e-05       2.755297766281e-02 
       5.251192703764e-05       3.441013522953e-02 
       6.610859936996e-05       4.297372172784e-02 
       8.322579568497e-05       5.366826852953e-02 
       1.047750691046e-04       6.702379872785e-02 
       1.319039970183e-04       8.370193441299e-02 
       1.660572937635e-04       1.045283355386e-01 
       2.090537469327e-04       1.305329134106e-01 
       2.631830744443e-04       1.629994506608e-01 
       3.313278603720e-04       2.035264004604e-01 
       4.171170630578e-04       2.541004744247e-01 
       5.251192703764e-04       3.171839528562e-01 
       6.610859936996e-04       3.958147256519e-01 
       8.322579568497e-04       4.937136006279e-01 
       1.047750691046e-03       6.153841636048e-01 
       1.319039970183e-03       7.661720592820e-01 
       1.660572937635e-03       9.522588016489e-01 
       2.090537469327e-03       1.180312991697e+00 
       2.631830744443e-03       1.456802684679e+00 
       3.313278603720e-03       1.786503854024e+00 
       4.171170630578e-03       2.169896161746e+00 
       5.251192703764e-03       2.599430630654e+00 
       6.610859936996e-03       3.055668542170e+00 
       8.322579568497e-03       3.505725598375e+00 
       1.047750691046e-02       3.905490216512e+00 
       1.319039970183e-02       4.200915376162e+00 
       1.660572937633e-02       4.325061098234e+00 
       2.090537453514e-02       4.210206332983e+00 
       2.631818545635e-02       3.825153728413e+00 
       3.311571692125e-02       3.229059412697e+00 
       4.113809243311e-02       2.627730451944e+00 
       4.792590854610e-02       2.280791639941e+00 
       5.284436902701e-02       2.110087285010e+00 
       5.689644391095e-02       2.003541265234e+00 
       6.051252627066e-02       1.923057285829e+00 
       6.388413457411e-02       1.852733726266e+00 
       6.711249296401e-02       1.784562831797e+00 
       7.025823437965e-02       1.714277256178e+00 
       7.336115587705e-02       1.639814062550e+00 
       7.644928796912e-02       1.560662697084e+00 
       7.954353299775e-02       1.477461141285e+00 
       8.266024078725e-02       1.391701866220e+00 
       8.581273398637e-02       1.305462837414e+00 
       8.901225918437e-02       1.221124920649e+00 
       9.226860540985e-02       1.141077155693e+00 
       9.559052048996e-02       1.067450969801e+00 
       9.898599946599e-02       1.001889265597e+00 
       1.024624891378e-01       9.453822417028e-01 
       1.060270359164e-01       8.981503781304e-01 
       1.096863943056e-01       8.596149870567e-01 
       1.134471073830e-01       8.284071051472e-01 
       1.173155669539e-01       8.024672182185e-01 
       1.212980586983e-01       7.792300660840e-01 
       1.254007961065e-01       7.559181494630e-01 
       1.296299459934e-01       7.299833258919e-01 
       1.339916477160e-01       6.995908027241e-01 
       1.384920277736e-01       6.640802960087e-01 
       1.431372111762e-01       6.241480251697e-01 
       1.479333307714e-01       5.817657448970e-01 
       1.528865355934e-01       5.396900101570e-01 
       1.580029992204e-01       5.008137387216e-01 
       1.632889290723e-01       4.673980205241e-01 
       1.687505775527e-01       4.405347315630e-01 
       1.743942559171e-01       4.198657955591e-01 
       1.802263517371e-01       4.036599874757e-01 
       1.862533508214e-01       3.893626643248e-01 
       1.924818644494e-01       3.741393442028e-01 
       1.989186627765e-01       3.558070679052e-01 
       2.055707152847e-01       3.340032311404e-01 
       2.124452391818e-01       3.102650902759e-01 
       2.195497567139e-01       2.871223208851e-01 
       2.268921624510e-01       2.668079703116e-01 
       2.344808017550e-01       2.504833350788e-01 
       2.423245618548e-01       2.378335611041e-01 
       2.504329772620e-01       2.271115437874e-01 
       2.588163516754e-01       2.161195952393e-01 
       2.674858990930e-01       2.035478134108e-01 
       2.764539076010e-01       1.895969784560e-01 
       2.857339303080e-01       1.757571845814e-01 
       2.953410092148e-01       1.636993175045e-01 
       3.052919395542e-01       1.539059294907e-01 
       3.156055844677e-01       1.455312001566e-01 
       3.263032530092e-01       1.372504065371e-01 
       3.374091587054e-01       1.283019529168e-01 
       3.489509817175e-01       1.191714151041e-01 
       3.609605657343e-01       1.108070625913e-01 
       3.734747921333e-01       1.036450203577e-01 
       3.865366902904e-01       9.714137622657e-02 
       4.001968667448e-01       9.061545350136e-02 
       4.145153713076e-01       8.403677380761e-02 
       4.295641718077e-01       7.789114854300e-02 
       4.454304922144e-01       7.234178292898e-02 
       4.622214006969e-01       6.709341084602e-02 
       4.800702491654e-01       6.189182927181e-02 
       4.991459272112e-01       5.692617802261e-02 
       5.196665217302e-01       5.231606897441e-02 
       5.419201087032e-01       4.783261774510e-02 
       5.662975451962e-01       4.348678985185e-02 
       5.933463737275e-01       3.933096111115e-02 
       6.238638458458e-01       3.525328747604e-02 
       6.590669257916e-01       3.126272844340e-02 
       7.009246080454e-01       2.728720143449e-02 
       7.528593308799e-01       2.327829400640e-02 
       8.213469537518e-01       1.914811333906e-02 
       9.196980813302e-01       1.481695208975e-02 
       1.075112183810e+00       1.035078491391e-02 
       1.322697471132e+00       6.379312538535e-03 
       1.662328205042e+00       3.705527129549e-03 
       2.092692408506e+00       2.124405914614e-03 
       2.634543445090e+00       1.207834024083e-03 
       3.316693691389e+00       6.815838264039e-04 
       4.175469971226e+00       3.819990893795e-04 
       5.256605252960e+00       2.127562958208e-04 
       6.617673932723e+00       1.178108934505e-04 
       8.331157880872e+00       6.488234161549e-05 
       1.048830636590e+01       3.554703930458e-05 
       1.320399541071e+01       1.937497528913e-05 
       1.662284535976e+01       1.050373996893e-05 
       2.092692243973e+01       5.660260241856e-06 
       2.634543445002e+01       3.028048906386e-06 
       3.316693691389e+01       1.604262065706e-06 
       4.175469971226e+01       8.381327250097e-07 
       5.256605252960e+01       4.286154581192e-07 
       6.617673932723e+01       2.117859541719e-07 
