# Matter power spectrum P(k) at redshift z=99
# for k=1.04775e-05 to 66.1767 h/Mpc,
# number of wavenumbers equal to 130
#    1:k (h/Mpc)              2:P (Mpc/h)^3        
       1.047750691046e-05       7.261927681161e-03 
       1.319039970183e-05       9.069258202222e-03 
       1.660572937635e-05       1.132639106772e-02 
       2.090537469327e-05       1.414527123457e-02 
       2.631830744443e-05       1.766569584131e-02 
       3.313278603720e-05       2.206225516033e-02 
       4.171170630578e-05       2.755297766390e-02 
       5.251192703764e-05       3.441013523089e-02 
       6.610859936996e-05       4.297372172954e-02 
       8.322579568497e-05       5.366826853164e-02 
       1.047750691046e-04       6.702379873049e-02 
       1.319039970183e-04       8.370193441627e-02 
       1.660572937635e-04       1.045283355427e-01 
       2.090537469327e-04       1.305329134157e-01 
       2.631830744443e-04       1.629994506671e-01 
       3.313278603720e-04       2.035264004681e-01 
       4.171170630578e-04       2.541004744340e-01 
       5.251192703764e-04       3.171839528672e-01 
       6.610859936996e-04       3.958147256646e-01 
       8.322579568497e-04       4.937136006431e-01 
       1.047750691046e-03       6.153841636180e-01 
       1.319039970183e-03       7.661720592969e-01 
       1.660572937635e-03       9.522588016368e-01 
       2.090537469327e-03       1.180312991641e+00 
       2.631830744443e-03       1.456802684523e+00 
       3.313278603720e-03       1.786503853657e+00 
       4.171170630578e-03       2.169896192242e+00 
       5.251192703764e-03       2.599430628997e+00 
       6.610859936996e-03       3.055668702459e+00 
       8.322579568497e-03       3.505725591722e+00 
       1.047750691046e-02       3.905490475424e+00 
       1.319039970183e-02       4.200915303828e+00 
       1.660572937633e-02       4.325062258643e+00 
       2.090537453514e-02       4.210201833498e+00 
       2.631818545635e-02       3.825147880111e+00 
       3.311571692125e-02       3.229059900682e+00 
       4.113809243311e-02       2.627726286226e+00 
       4.792590854610e-02       2.280788459144e+00 
       5.284436902701e-02       2.110083731287e+00 
       5.689644391095e-02       2.003536946668e+00 
       6.051252627066e-02       1.923057852773e+00 
       6.388413457411e-02       1.852731738064e+00 
       6.711249296401e-02       1.784564416124e+00 
       7.025823437965e-02       1.714277687071e+00 
       7.336115587705e-02       1.639815286056e+00 
       7.644928796912e-02       1.560660477891e+00 
       7.954353299775e-02       1.477456906114e+00 
       8.266024078725e-02       1.391697919283e+00 
       8.581273398637e-02       1.305460199573e+00 
       8.901225918437e-02       1.221124990476e+00 
       9.226860540985e-02       1.141076056210e+00 
       9.559052048996e-02       1.067449859887e+00 
       9.898599946599e-02       1.001888173717e+00 
       1.024624891378e-01       9.453770031758e-01 
       1.060270359164e-01       8.981494463989e-01 
       1.096863943056e-01       8.596116076357e-01 
       1.134471073830e-01       8.284060521331e-01 
       1.173155669539e-01       8.024661257918e-01 
       1.212980586983e-01       7.792260624122e-01 
       1.254007961065e-01       7.559170297688e-01 
       1.296299459934e-01       7.299813206204e-01 
       1.339916477160e-01       6.995918526296e-01 
       1.384920277736e-01       6.640784163072e-01 
       1.431372111762e-01       6.241463243854e-01 
       1.479333307714e-01       5.817639128136e-01 
       1.528865355934e-01       5.396898767349e-01 
       1.580029992204e-01       5.008121680366e-01 
       1.632889290723e-01       4.673972364681e-01 
       1.687505775527e-01       4.405326126571e-01 
       1.743942559171e-01       4.198637965406e-01 
       1.802263517371e-01       4.036575984958e-01 
       1.862533508214e-01       3.893605283087e-01 
       1.924818644494e-01       3.741378974515e-01 
       1.989186627765e-01       3.558051178649e-01 
       2.055707152847e-01       3.340013737148e-01 
       2.124452391818e-01       3.102649288868e-01 
       2.195497567139e-01       2.871205366073e-01 
       2.268921624510e-01       2.668065232287e-01 
       2.344808017550e-01       2.504817720381e-01 
       2.423245618548e-01       2.378313074615e-01 
       2.504329772620e-01       2.271092469363e-01 
       2.588163516754e-01       2.161176353804e-01 
       2.674858990930e-01       2.035458813900e-01 
       2.764539076010e-01       1.895946470330e-01 
       2.857339303080e-01       1.757549166696e-01 
       2.953410092148e-01       1.636970447003e-01 
       3.052919395542e-01       1.539038159233e-01 
       3.156055844677e-01       1.455285231499e-01 
       3.263032530092e-01       1.372481106578e-01 
       3.374091587054e-01       1.282990694101e-01 
       3.489509817175e-01       1.191689460953e-01 
       3.609605657343e-01       1.108045068261e-01 
       3.734747921333e-01       1.036424634782e-01 
       3.865366902904e-01       9.713848986717e-02 
       4.001968667448e-01       9.061257121845e-02 
       4.145153713076e-01       8.403450209267e-02 
       4.295641718077e-01       7.788828281333e-02 
       4.454304922144e-01       7.233894816210e-02 
       4.622214006969e-01       6.709083514430e-02 
       4.800702491654e-01       6.188884267590e-02 
       4.991459272112e-01       5.692329407723e-02 
       5.196665217302e-01       5.231308355414e-02 
       5.419201087032e-01       4.782952339040e-02 
       5.662975451962e-01       4.348385944194e-02 
       5.933463737275e-01       3.932784829505e-02 
       6.238638458458e-01       3.525012372755e-02 
       6.590669257916e-01       3.125954987178e-02 
       7.009246080454e-01       2.728394111637e-02 
       7.528593308799e-01       2.327497700142e-02 
       8.213469537518e-01       1.914459410565e-02 
       9.196980813302e-01       1.481325117872e-02 
       1.075112183810e+00       1.034697058781e-02 
       1.322697471132e+00       6.375300823399e-03 
       1.662328205042e+00       3.701210041182e-03 
       2.092692408506e+00       2.119763382857e-03 
       2.634543445090e+00       1.202793534730e-03 
       3.316693691389e+00       6.760689654937e-04 
       4.175469971226e+00       3.758923368819e-04 
       5.256605252960e+00       2.059402920479e-04 
       6.617673932723e+00       1.101881263575e-04 
       8.331157880872e+00       5.644675604469e-05 
       1.048830636590e+01       2.650979700442e-05 
       1.320399541071e+01       1.033261757558e-05 
       1.662284535976e+01       2.546226275852e-06 
       2.092692243973e+01       8.276646945442e-08 
       2.634543445002e+01       3.333979663153e-07 
       3.316693691389e+01       6.457205634674e-07 
       4.175469971226e+01       1.735251700862e-07 
       5.256605252960e+01       2.625126094705e-09 
       6.617673932723e+01       4.151296760151e-09 
