# Matter power spectrum P(k) at redshift z=0
# for k=1.04775e-05 to 66.1767 h/Mpc,
# number of wavenumbers equal to 130
#    1:k (h/Mpc)              2:P (Mpc/h)^3        
       1.047750691046e-05       5.020964811313e+01 
       1.319039970183e-05       6.270562594784e+01 
       1.660572937635e-05       7.831147247912e+01 
       2.090537469327e-05       9.780108069296e+01 
       2.631830744443e-05       1.221408203809e+02 
       3.313278603720e-05       1.525374501932e+02 
       4.171170630578e-05       1.904975994010e+02 
       5.251192703764e-05       2.379022224249e+02 
       6.610859936996e-05       2.970989227882e+02 
       8.322579568497e-05       3.710167318946e+02 
       1.047750691046e-04       4.633080766742e+02 
       1.319039970183e-04       5.785234129338e+02 
       1.660572937635e-04       7.223242666092e+02 
       2.090537469327e-04       9.017396271824e+02 
       2.631830744443e-04       1.125468123750e+03 
       3.313278603720e-04       1.404223053681e+03 
       4.171170630578e-04       1.751108028790e+03 
       5.251192703764e-04       2.181998448133e+03 
       6.610859936996e-04       2.715889983592e+03 
       8.322579568497e-04       3.375152337134e+03 
       1.047750691046e-03       4.185552174307e+03 
       1.319039970183e-03       5.175742743508e+03 
       1.660572937635e-03       6.376123051775e+03 
       2.090537469327e-03       7.815671866292e+03 
       2.631830744443e-03       9.517783069112e+03 
       3.313278603720e-03       1.149357460346e+04 
       4.171170630578e-03       1.373266011946e+04 
       5.251192703764e-03       1.619063614559e+04 
       6.610859936996e-03       1.877460426666e+04 
       8.322579568497e-03       2.132607231916e+04 
       1.047750691046e-02       2.360548058889e+04 
       1.319039970183e-02       2.528218864044e+04 
       1.660572937633e-02       2.595027763800e+04 
       2.090537453514e-02       2.520935625694e+04 
       2.631818545635e-02       2.287033756831e+04 
       3.311571692125e-02       1.928626739732e+04 
       4.113809243311e-02       1.568420971437e+04 
       4.792590854610e-02       1.361061590826e+04 
       5.284436902701e-02       1.259130162731e+04 
       5.689644391095e-02       1.195556915992e+04 
       6.051252627066e-02       1.147546114670e+04 
       6.388413457411e-02       1.105588743745e+04 
       6.711249296401e-02       1.064901780566e+04 
       7.025823437965e-02       1.022929857917e+04 
       7.336115587705e-02       9.784520437505e+03 
       7.644928796912e-02       9.311669761728e+03 
       7.954353299775e-02       8.814537203412e+03 
       8.266024078725e-02       8.302126907424e+03 
       8.581273398637e-02       7.786960905526e+03 
       8.901225918437e-02       7.283178633037e+03 
       9.226860540985e-02       6.805166871221e+03 
       9.559052048996e-02       6.365621300179e+03 
       9.898599946599e-02       5.974399765284e+03 
       1.024624891378e-01       5.637318184294e+03 
       1.060270359164e-01       5.355764616358e+03 
       1.096863943056e-01       5.126251368252e+03 
       1.134471073830e-01       4.940479866282e+03 
       1.173155669539e-01       4.786166062130e+03 
       1.212980586983e-01       4.647957200487e+03 
       1.254007961065e-01       4.509145541105e+03 
       1.296299459934e-01       4.354538996472e+03 
       1.339916477160e-01       4.173213647923e+03 
       1.384920277736e-01       3.961168144526e+03 
       1.431372111762e-01       3.722686683341e+03 
       1.479333307714e-01       3.469547601836e+03 
       1.528865355934e-01       3.218337043826e+03 
       1.580029992204e-01       2.986299312956e+03 
       1.632889290723e-01       2.786973933629e+03 
       1.687505775527e-01       2.626832306830e+03 
       1.743942559171e-01       2.503756190771e+03 
       1.802263517371e-01       2.407344661590e+03 
       1.862533508214e-01       2.322250525335e+03 
       1.924818644494e-01       2.231551971146e+03 
       1.989186627765e-01       2.122191106871e+03 
       2.055707152847e-01       1.992028915759e+03 
       2.124452391818e-01       1.850323619192e+03 
       2.195497567139e-01       1.712185465050e+03 
       2.268921624510e-01       1.590991025419e+03 
       2.344808017550e-01       1.493669019499e+03 
       2.423245618548e-01       1.418311138679e+03 
       2.504329772620e-01       1.354462839698e+03 
       2.588163516754e-01       1.288932384028e+03 
       2.674858990930e-01       1.213935983844e+03 
       2.764539076010e-01       1.130691077095e+03 
       2.857339303080e-01       1.048102335179e+03 
       2.953410092148e-01       9.761823555448e+02 
       3.052919395542e-01       9.178128789677e+02 
       3.156055844677e-01       8.678968535488e+02 
       3.263032530092e-01       8.185261592041e+02 
       3.374091587054e-01       7.651444367237e+02 
       3.489509817175e-01       7.106728056337e+02 
       3.609605657343e-01       6.607848906488e+02 
       3.734747921333e-01       6.180875764342e+02 
       3.865366902904e-01       5.793110172908e+02 
       4.001968667448e-01       5.403895328979e+02 
       4.145153713076e-01       5.011515867286e+02 
       4.295641718077e-01       4.644998946379e+02 
       4.454304922144e-01       4.314088665095e+02 
       4.622214006969e-01       4.001137412562e+02 
       4.800702491654e-01       3.690892882323e+02 
       4.991459272112e-01       3.394769934941e+02 
       5.196665217302e-01       3.119851393396e+02 
       5.419201087032e-01       2.852466670664e+02 
       5.662975451962e-01       2.593311530646e+02 
       5.933463737275e-01       2.345488496794e+02 
       6.238638458458e-01       2.102304096909e+02 
       6.590669257916e-01       1.864337467868e+02 
       7.009246080454e-01       1.627259477349e+02 
       7.528593308799e-01       1.388187487976e+02 
       8.213469537518e-01       1.141883571917e+02 
       9.196980813302e-01       8.835909571373e+01 
       1.075112183810e+00       6.172614290040e+01 
       1.322697471132e+00       3.804278171415e+01 
       1.662328205042e+00       2.209796424221e+01 
       2.092692408506e+00       1.266911626496e+01 
       2.634543445090e+00       7.203337498467e+00 
       3.316693691389e+00       4.065130401261e+00 
       4.175469971226e+00       2.278608972348e+00 
       5.256605252960e+00       1.269346139581e+00 
       6.617673932723e+00       7.031315528172e-01 
       8.331157880872e+00       3.874734625364e-01 
       1.048830636590e+01       2.125040607394e-01 
       1.320399541071e+01       1.160271751080e-01 
       1.662284535976e+01       6.308754365102e-02 
       2.092692243973e+01       3.416641757929e-02 
       2.634543445002e+01       1.843058510801e-02 
       3.316693691389e+01       9.901368030291e-03 
       4.175469971226e+01       5.294353559425e-03 
       5.256605252960e+01       2.813858646018e-03 
       6.617673932723e+01       1.482428772578e-03 
