# Matter power spectrum P(k) at redshift z=0
# for k=1.04775e-05 to 66.1767 h/Mpc,
# number of wavenumbers equal to 130
#    1:k (h/Mpc)              2:P (Mpc/h)^3        
       1.047750691046e-05       5.020964811307e+01 
       1.319039970183e-05       6.270562594785e+01 
       1.660572937635e-05       7.831147247912e+01 
       2.090537469327e-05       9.780108069296e+01 
       2.631830744443e-05       1.221408203809e+02 
       3.313278603720e-05       1.525374501932e+02 
       4.171170630578e-05       1.904975994009e+02 
       5.251192703764e-05       2.379022224249e+02 
       6.610859936996e-05       2.970989227883e+02 
       8.322579568497e-05       3.710167318945e+02 
       1.047750691046e-04       4.633080766742e+02 
       1.319039970183e-04       5.785234129342e+02 
       1.660572937635e-04       7.223242666091e+02 
       2.090537469327e-04       9.017396271821e+02 
       2.631830744443e-04       1.125468123749e+03 
       3.313278603720e-04       1.404223053680e+03 
       4.171170630578e-04       1.751108028788e+03 
       5.251192703764e-04       2.181998448129e+03 
       6.610859936996e-04       2.715889983585e+03 
       8.322579568497e-04       3.375152337119e+03 
       1.047750691046e-03       4.185552174271e+03 
       1.319039970183e-03       5.175742738283e+03 
       1.660572937635e-03       6.376123051645e+03 
       2.090537469327e-03       7.815671914421e+03 
       2.631830744443e-03       9.517783068557e+03 
       3.313278603720e-03       1.149357460232e+04 
       4.171170630578e-03       1.373266011796e+04 
       5.251192703764e-03       1.619063554137e+04 
       6.610859936996e-03       1.877460438998e+04 
       8.322579568497e-03       2.132610980491e+04 
       1.047750691046e-02       2.360549046833e+04 
       1.319039970183e-02       2.528219694697e+04 
       1.660572937633e-02       2.595034602168e+04 
       2.090537453514e-02       2.520932219943e+04 
       2.631818545635e-02       2.287024892130e+04 
       3.311571692125e-02       1.928620965631e+04 
       4.113809243311e-02       1.568424749256e+04 
       4.792590854610e-02       1.361049216939e+04 
       5.284436902701e-02       1.259123139784e+04 
       5.689644391095e-02       1.195551446907e+04 
       6.051252627066e-02       1.147548084902e+04 
       6.388413457411e-02       1.105564350825e+04 
       6.711249296401e-02       1.064888916975e+04 
       7.025823437965e-02       1.022929682540e+04 
       7.336115587705e-02       9.784542542186e+03 
       7.644928796912e-02       9.311695188739e+03 
       7.954353299775e-02       8.814263293640e+03 
       8.266024078725e-02       8.302181423713e+03 
       8.581273398637e-02       7.786934606963e+03 
       8.901225918437e-02       7.283193495517e+03 
       9.226860540985e-02       6.805176863554e+03 
       9.559052048996e-02       6.365639834636e+03 
       9.898599946599e-02       5.974392044937e+03 
       1.024624891378e-01       5.637332140410e+03 
       1.060270359164e-01       5.355788383030e+03 
       1.096863943056e-01       5.126248570214e+03 
       1.134471073830e-01       4.940476299164e+03 
       1.173155669539e-01       4.786152083429e+03 
       1.212980586983e-01       4.647915801113e+03 
       1.254007961065e-01       4.509038564306e+03 
       1.296299459934e-01       4.354543043602e+03 
       1.339916477160e-01       4.173132645185e+03 
       1.384920277736e-01       3.961173585821e+03 
       1.431372111762e-01       3.722586572938e+03 
       1.479333307714e-01       3.469540847478e+03 
       1.528865355934e-01       3.218317857103e+03 
       1.580029992204e-01       2.986239443106e+03 
       1.632889290723e-01       2.786945310795e+03 
       1.687505775527e-01       2.626808048992e+03 
       1.743942559171e-01       2.503749527239e+03 
       1.802263517371e-01       2.407299145991e+03 
       1.862533508214e-01       2.322248847279e+03 
       1.924818644494e-01       2.231564527019e+03 
       1.989186627765e-01       2.122203539895e+03 
       2.055707152847e-01       1.992035367440e+03 
       2.124452391818e-01       1.850295707552e+03 
       2.195497567139e-01       1.712155253298e+03 
       2.268921624510e-01       1.590968069926e+03 
       2.344808017550e-01       1.493654564841e+03 
       2.423245618548e-01       1.418300153466e+03 
       2.504329772620e-01       1.354440695132e+03 
       2.588163516754e-01       1.288927847715e+03 
       2.674858990930e-01       1.213900248387e+03 
       2.764539076010e-01       1.130676353959e+03 
       2.857339303080e-01       1.048081839627e+03 
       2.953410092148e-01       9.761693659734e+02 
       3.052919395542e-01       9.177958350300e+02 
       3.156055844677e-01       8.678798286302e+02 
       3.263032530092e-01       8.185170272431e+02 
       3.374091587054e-01       7.651377663744e+02 
       3.489509817175e-01       7.106506156230e+02 
       3.609605657343e-01       6.607722806148e+02 
       3.734747921333e-01       6.180739966546e+02 
       3.865366902904e-01       5.792956416452e+02 
       4.001968667448e-01       5.403746196419e+02 
       4.145153713076e-01       5.011363253832e+02 
       4.295641718077e-01       4.644881358967e+02 
       4.454304922144e-01       4.313945938988e+02 
       4.622214006969e-01       4.001030657590e+02 
       4.800702491654e-01       3.690769946846e+02 
       4.991459272112e-01       3.394644497576e+02 
       5.196665217302e-01       3.119749218474e+02 
       5.419201087032e-01       2.852359540794e+02 
       5.662975451962e-01       2.593206153088e+02 
       5.933463737275e-01       2.345373613823e+02 
       6.238638458458e-01       2.102218156465e+02 
       6.590669257916e-01       1.864255666145e+02 
       7.009246080454e-01       1.627172256550e+02 
       7.528593308799e-01       1.388104053449e+02 
       8.213469537518e-01       1.141809484569e+02 
       9.196980813302e-01       8.835115423962e+01 
       1.075112183810e+00       6.171826009163e+01 
       1.322697471132e+00       3.803463893475e+01 
       1.662328205042e+00       2.209013335050e+01 
       2.092692408506e+00       1.266135549469e+01 
       2.634543445090e+00       7.195612203141e+00 
       3.316693691389e+00       4.057571776845e+00 
       4.175469971226e+00       2.271223607523e+00 
       5.256605252960e+00       1.262141956375e+00 
       6.617673932723e+00       6.961202654057e-01 
       8.331157880872e+00       3.806404046963e-01 
       1.048830636590e+01       2.058200622948e-01 
       1.320399541071e+01       1.094712312421e-01 
       1.662284535976e+01       5.665448944228e-02 
       2.092692243973e+01       2.790503562216e-02 
       2.634543445002e+01       1.249821057220e-02 
       3.316693691389e+01       4.611554883000e-03 
       4.175469971226e+01       1.094532448475e-03 
       5.256605252960e+01       5.735432996523e-05 
       6.617673932723e+01       3.741626736612e-05 
