# Matter power spectrum P(k) at redshift z=0
# for k=1.04775e-05 to 66.1767 h/Mpc,
# number of wavenumbers equal to 130
#    1:k (h/Mpc)              2:P (Mpc/h)^3        
       1.047750691046e-05       5.020964811312e+01 
       1.319039970183e-05       6.270562594779e+01 
       1.660572937635e-05       7.831147247912e+01 
       2.090537469327e-05       9.780108069297e+01 
       2.631830744443e-05       1.221408203809e+02 
       3.313278603720e-05       1.525374501932e+02 
       4.171170630578e-05       1.904975994009e+02 
       5.251192703764e-05       2.379022224249e+02 
       6.610859936996e-05       2.970989227883e+02 
       8.322579568497e-05       3.710167318946e+02 
       1.047750691046e-04       4.633080766742e+02 
       1.319039970183e-04       5.785234129331e+02 
       1.660572937635e-04       7.223242666092e+02 
       2.090537469327e-04       9.017396271823e+02 
       2.631830744443e-04       1.125468123750e+03 
       3.313278603720e-04       1.404223053681e+03 
       4.171170630578e-04       1.751108028789e+03 
       5.251192703764e-04       2.181998448131e+03 
       6.610859936996e-04       2.715889983589e+03 
       8.322579568497e-04       3.375152337129e+03 
       1.047750691046e-03       4.185552174263e+03 
       1.319039970183e-03       5.175742739633e+03 
       1.660572937635e-03       6.376123051689e+03 
       2.090537469327e-03       7.815671864020e+03 
       2.631830744443e-03       9.517783068907e+03 
       3.313278603720e-03       1.149357460304e+04 
       4.171170630578e-03       1.373266008759e+04 
       5.251192703764e-03       1.619063592364e+04 
       6.610859936996e-03       1.877460432320e+04 
       8.322579568497e-03       2.132611385921e+04 
       1.047750691046e-02       2.360548715292e+04 
       1.319039970183e-02       2.528219568799e+04 
       1.660572937633e-02       2.595028219290e+04 
       2.090537453514e-02       2.520938431310e+04 
       2.631818545635e-02       2.287026934059e+04 
       3.311571692125e-02       1.928617618679e+04 
       4.113809243311e-02       1.568423712124e+04 
       4.792590854610e-02       1.361063550580e+04 
       5.284436902701e-02       1.259130717071e+04 
       5.689644391095e-02       1.195551290255e+04 
       6.051252627066e-02       1.147549365929e+04 
       6.388413457411e-02       1.105569719124e+04 
       6.711249296401e-02       1.064890429772e+04 
       7.025823437965e-02       1.022930786338e+04 
       7.336115587705e-02       9.784559249940e+03 
       7.644928796912e-02       9.311661393527e+03 
       7.954353299775e-02       8.814558264554e+03 
       8.266024078725e-02       8.302176387992e+03 
       8.581273398637e-02       7.786965944414e+03 
       8.901225918437e-02       7.283223439481e+03 
       9.226860540985e-02       6.805235862199e+03 
       9.559052048996e-02       6.365615816108e+03 
       9.898599946599e-02       5.974382323097e+03 
       1.024624891378e-01       5.637329911797e+03 
       1.060270359164e-01       5.355796277870e+03 
       1.096863943056e-01       5.126245955768e+03 
       1.134471073830e-01       4.940478294288e+03 
       1.173155669539e-01       4.786155393000e+03 
       1.212980586983e-01       4.647919900850e+03 
       1.254007961065e-01       4.509057726422e+03 
       1.296299459934e-01       4.354548276120e+03 
       1.339916477160e-01       4.173142900119e+03 
       1.384920277736e-01       3.961169398671e+03 
       1.431372111762e-01       3.722591737896e+03 
       1.479333307714e-01       3.469554596402e+03 
       1.528865355934e-01       3.218320570940e+03 
       1.580029992204e-01       2.986245017645e+03 
       1.632889290723e-01       2.786939209248e+03 
       1.687505775527e-01       2.626815959773e+03 
       1.743942559171e-01       2.503751436209e+03 
       1.802263517371e-01       2.407300108183e+03 
       1.862533508214e-01       2.322254607886e+03 
       1.924818644494e-01       2.231566865573e+03 
       1.989186627765e-01       2.122208016741e+03 
       2.055707152847e-01       1.992038669551e+03 
       2.124452391818e-01       1.850298565700e+03 
       2.195497567139e-01       1.712158329259e+03 
       2.268921624510e-01       1.590964538033e+03 
       2.344808017550e-01       1.493657701686e+03 
       2.423245618548e-01       1.418304021240e+03 
       2.504329772620e-01       1.354442344225e+03 
       2.588163516754e-01       1.288934159915e+03 
       2.674858990930e-01       1.213905711240e+03 
       2.764539076010e-01       1.130679261180e+03 
       2.857339303080e-01       1.048084776954e+03 
       2.953410092148e-01       9.761739348456e+02 
       3.052919395542e-01       9.178001050086e+02 
       3.156055844677e-01       8.678836339106e+02 
       3.263032530092e-01       8.185230180531e+02 
       3.374091587054e-01       7.651451763441e+02 
       3.489509817175e-01       7.106603867122e+02 
       3.609605657343e-01       6.607773634130e+02 
       3.734747921333e-01       6.180802724780e+02 
       3.865366902904e-01       5.792990652911e+02 
       4.001968667448e-01       5.403792720302e+02 
       4.145153713076e-01       5.011400559769e+02 
       4.295641718077e-01       4.644927484817e+02 
       4.454304922144e-01       4.313985843860e+02 
       4.622214006969e-01       4.001070131738e+02 
       4.800702491654e-01       3.690807774147e+02 
       4.991459272112e-01       3.394678118256e+02 
       5.196665217302e-01       3.119784521085e+02 
       5.419201087032e-01       2.852390167938e+02 
       5.662975451962e-01       2.593248509378e+02 
       5.933463737275e-01       2.345421523235e+02 
       6.238638458458e-01       2.102271418498e+02 
       6.590669257916e-01       1.864294053482e+02 
       7.009246080454e-01       1.627214452423e+02 
       7.528593308799e-01       1.388150660007e+02 
       8.213469537518e-01       1.141854464097e+02 
       9.196980813302e-01       8.835590410132e+01 
       1.075112183810e+00       6.172302992611e+01 
       1.322697471132e+00       3.803957543246e+01 
       1.662328205042e+00       2.209506530841e+01 
       2.092692408506e+00       1.266629092907e+01 
       2.634543445090e+00       7.200493864112e+00 
       3.316693691389e+00       4.062428047850e+00 
       4.175469971226e+00       2.276029475749e+00 
       5.256605252960e+00       1.266896253392e+00 
       6.617673932723e+00       7.008040871911e-01 
       8.331157880872e+00       3.852784989477e-01 
       1.048830636590e+01       2.104561672174e-01 
       1.320399541071e+01       1.141265263987e-01 
       1.662284535976e+01       6.133315659381e-02 
       2.092692243973e+01       3.255699128580e-02 
       2.634543445002e+01       1.696667429758e-02 
       3.316693691389e+01       8.584837841304e-03 
       4.175469971226e+01       4.132123029290e-03 
       5.256605252960e+01       1.820467099289e-03 
       6.617673932723e+01       6.804558586098e-04 
