# Matter power spectrum P(k) at redshift z=99
# for k=1.04775e-05 to 66.1767 h/Mpc,
# number of wavenumbers equal to 130
#    1:k (h/Mpc)              2:P (Mpc/h)^3        
       1.047750691046e-05       7.261927680915e-03 
       1.319039970183e-05       9.069258201915e-03 
       1.660572937635e-05       1.132639106734e-02 
       2.090537469327e-05       1.414527123409e-02 
       2.631830744443e-05       1.766569584071e-02 
       3.313278603720e-05       2.206225515958e-02 
       4.171170630578e-05       2.755297766297e-02 
       5.251192703764e-05       3.441013522972e-02 
       6.610859936996e-05       4.297372172809e-02 
       8.322579568497e-05       5.366826852983e-02 
       1.047750691046e-04       6.702379872823e-02 
       1.319039970183e-04       8.370193441346e-02 
       1.660572937635e-04       1.045283355392e-01 
       2.090537469327e-04       1.305329134113e-01 
       2.631830744443e-04       1.629994506617e-01 
       3.313278603720e-04       2.035264004615e-01 
       4.171170630578e-04       2.541004744260e-01 
       5.251192703764e-04       3.171839528577e-01 
       6.610859936996e-04       3.958147256537e-01 
       8.322579568497e-04       4.937136006316e-01 
       1.047750691046e-03       6.153841636067e-01 
       1.319039970183e-03       7.661720592874e-01 
       1.660572937635e-03       9.522588016406e-01 
       2.090537469327e-03       1.180312991689e+00 
       2.631830744443e-03       1.456802684657e+00 
       3.313278603720e-03       1.786503853973e+00 
       4.171170630578e-03       2.169896193844e+00 
       5.251192703764e-03       2.599430630416e+00 
       6.610859936996e-03       3.055668702612e+00 
       8.322579568497e-03       3.505724919580e+00 
       1.047750691046e-02       3.905491283972e+00 
       1.319039970183e-02       4.200915309074e+00 
       1.660572937633e-02       4.325063928345e+00 
       2.090537453514e-02       4.210206085462e+00 
       2.631818545635e-02       3.825151074125e+00 
       3.311571692125e-02       3.229061478150e+00 
       4.113809243311e-02       2.627728867548e+00 
       4.792590854610e-02       2.280789853557e+00 
       5.284436902701e-02       2.110087424990e+00 
       5.689644391095e-02       2.003534974993e+00 
       6.051252627066e-02       1.923055407691e+00 
       6.388413457411e-02       1.852730344508e+00 
       6.711249296401e-02       1.784563539100e+00 
       7.025823437965e-02       1.714275106065e+00 
       7.336115587705e-02       1.639814383101e+00 
       7.644928796912e-02       1.560663123438e+00 
       7.954353299775e-02       1.477457355487e+00 
       8.266024078725e-02       1.391698674775e+00 
       8.581273398637e-02       1.305460687968e+00 
       8.901225918437e-02       1.221126911122e+00 
       9.226860540985e-02       1.141080013045e+00 
       9.559052048996e-02       1.067450739252e+00 
       9.898599946599e-02       1.001890318824e+00 
       1.024624891378e-01       9.453798696451e-01 
       1.060270359164e-01       8.981526865698e-01 
       1.096863943056e-01       8.596139832038e-01 
       1.134471073830e-01       8.284041241848e-01 
       1.173155669539e-01       8.024675228446e-01 
       1.212980586983e-01       7.792264643745e-01 
       1.254007961065e-01       7.559164104599e-01 
       1.296299459934e-01       7.299840771261e-01 
       1.339916477160e-01       6.995930550900e-01 
       1.384920277736e-01       6.640795815197e-01 
       1.431372111762e-01       6.241488018788e-01 
       1.479333307714e-01       5.817657827445e-01 
       1.528865355934e-01       5.396898547662e-01 
       1.580029992204e-01       5.008135388633e-01 
       1.632889290723e-01       4.673973964598e-01 
       1.687505775527e-01       4.405336230124e-01 
       1.743942559171e-01       4.198654833357e-01 
       1.802263517371e-01       4.036597816948e-01 
       1.862533508214e-01       3.893620978920e-01 
       1.924818644494e-01       3.741389129241e-01 
       1.989186627765e-01       3.558071277631e-01 
       2.055707152847e-01       3.340024708465e-01 
       2.124452391818e-01       3.102659633808e-01 
       2.195497567139e-01       2.871218147823e-01 
       2.268921624510e-01       2.668077085884e-01 
       2.344808017550e-01       2.504835857896e-01 
       2.423245618548e-01       2.378334309207e-01 
       2.504329772620e-01       2.271112404155e-01 
       2.588163516754e-01       2.161194422734e-01 
       2.674858990930e-01       2.035470042349e-01 
       2.764539076010e-01       1.895968290473e-01 
       2.857339303080e-01       1.757569370716e-01 
       2.953410092148e-01       1.636980494936e-01 
       3.052919395542e-01       1.539064062287e-01 
       3.156055844677e-01       1.455301217879e-01 
       3.263032530092e-01       1.372498991721e-01 
       3.374091587054e-01       1.283013567525e-01 
       3.489509817175e-01       1.191708433373e-01 
       3.609605657343e-01       1.108067380192e-01 
       3.734747921333e-01       1.036447487470e-01 
       3.865366902904e-01       9.714067428512e-02 
       4.001968667448e-01       9.061504325159e-02 
       4.145153713076e-01       8.403668481426e-02 
       4.295641718077e-01       7.789059906546e-02 
       4.454304922144e-01       7.234113643090e-02 
       4.622214006969e-01       6.709331448525e-02 
       4.800702491654e-01       6.189122056068e-02 
       4.991459272112e-01       5.692578399091e-02 
       5.196665217302e-01       5.231572109373e-02 
       5.419201087032e-01       4.783197013745e-02 
       5.662975451962e-01       4.348650529931e-02 
       5.933463737275e-01       3.933051217376e-02 
       6.238638458458e-01       3.525295254589e-02 
       6.590669257916e-01       3.126240408524e-02 
       7.009246080454e-01       2.728680075960e-02 
       7.528593308799e-01       2.327785530343e-02 
       8.213469537518e-01       1.914763064401e-02 
       9.196980813302e-01       1.481648605185e-02 
       1.075112183810e+00       1.035033360889e-02 
       1.322697471132e+00       6.378815314494e-03 
       1.662328205042e+00       3.705055211360e-03 
       2.092692408506e+00       2.123932122343e-03 
       2.634543445090e+00       1.207370062637e-03 
       3.316693691389e+00       6.811278519058e-04 
       4.175469971226e+00       3.815602053484e-04 
       5.256605252960e+00       2.123366843354e-04 
       6.617673932723e+00       1.174114920803e-04 
       8.331157880872e+00       6.450390661464e-05 
       1.048830636590e+01       3.519129097685e-05 
       1.320399541071e+01       1.904160354506e-05 
       1.662284535976e+01       1.019254271099e-05 
       2.092692243973e+01       5.371174882338e-06 
       2.634543445002e+01       2.761302415330e-06 
       3.316693691389e+01       1.361426347700e-06 
       4.175469971226e+01       6.230150038600e-07 
       5.256605252960e+01       2.480007658898e-07 
       6.617673932723e+01       7.477976991722e-08 
