# Matter power spectrum P(k) at redshift z=0
# for k=1.04775e-05 to 66.1767 h/Mpc,
# number of wavenumbers equal to 130
#    1:k (h/Mpc)              2:P (Mpc/h)^3        
       1.047750691046e-05       5.020964811306e+01 
       1.319039970183e-05       6.270562594778e+01 
       1.660572937635e-05       7.831147247912e+01 
       2.090537469327e-05       9.780108069295e+01 
       2.631830744443e-05       1.221408203809e+02 
       3.313278603720e-05       1.525374501932e+02 
       4.171170630578e-05       1.904975994010e+02 
       5.251192703764e-05       2.379022224249e+02 
       6.610859936996e-05       2.970989227881e+02 
       8.322579568497e-05       3.710167318946e+02 
       1.047750691046e-04       4.633080766742e+02 
       1.319039970183e-04       5.785234129342e+02 
       1.660572937635e-04       7.223242666092e+02 
       2.090537469327e-04       9.017396271824e+02 
       2.631830744443e-04       1.125468123750e+03 
       3.313278603720e-04       1.404223053681e+03 
       4.171170630578e-04       1.751108028790e+03 
       5.251192703764e-04       2.181998448133e+03 
       6.610859936996e-04       2.715889983593e+03 
       8.322579568497e-04       3.375152337134e+03 
       1.047750691046e-03       4.185552174306e+03 
       1.319039970183e-03       5.175742741958e+03 
       1.660572937635e-03       6.376123051774e+03 
       2.090537469327e-03       7.815671904632e+03 
       2.631830744443e-03       9.517783069112e+03 
       3.313278603720e-03       1.149357460346e+04 
       4.171170630578e-03       1.373266009494e+04 
       5.251192703764e-03       1.619063614559e+04 
       6.610859936996e-03       1.877460431058e+04 
       8.322579568497e-03       2.132606817687e+04 
       1.047750691046e-02       2.360547849883e+04 
       1.319039970183e-02       2.528218701508e+04 
       1.660572937633e-02       2.595028893132e+04 
       2.090537453514e-02       2.520935652767e+04 
       2.631818545635e-02       2.287033610789e+04 
       3.311571692125e-02       1.928625901920e+04 
       4.113809243311e-02       1.568426209031e+04 
       4.792590854610e-02       1.361062533087e+04 
       5.284436902701e-02       1.259130978699e+04 
       5.689644391095e-02       1.195554967188e+04 
       6.051252627066e-02       1.147546191248e+04 
       6.388413457411e-02       1.105589437382e+04 
       6.711249296401e-02       1.064898512461e+04 
       7.025823437965e-02       1.022929130250e+04 
       7.336115587705e-02       9.784509422585e+03 
       7.644928796912e-02       9.311658018153e+03 
       7.954353299775e-02       8.814544792215e+03 
       8.266024078725e-02       8.302106730457e+03 
       8.581273398637e-02       7.786973842760e+03 
       8.901225918437e-02       7.283179207471e+03 
       9.226860540985e-02       6.805163809056e+03 
       9.559052048996e-02       6.365637229801e+03 
       9.898599946599e-02       5.974392169960e+03 
       1.024624891378e-01       5.637329012102e+03 
       1.060270359164e-01       5.355774511923e+03 
       1.096863943056e-01       5.126276568927e+03 
       1.134471073830e-01       4.940470666230e+03 
       1.173155669539e-01       4.786169174487e+03 
       1.212980586983e-01       4.647924521024e+03 
       1.254007961065e-01       4.509146878504e+03 
       1.296299459934e-01       4.354554597444e+03 
       1.339916477160e-01       4.173214323941e+03 
       1.384920277736e-01       3.961164965039e+03 
       1.431372111762e-01       3.722682794664e+03 
       1.479333307714e-01       3.469551871956e+03 
       1.528865355934e-01       3.218339860377e+03 
       1.580029992204e-01       2.986293196568e+03 
       1.632889290723e-01       2.786968132171e+03 
       1.687505775527e-01       2.626832433749e+03 
       1.743942559171e-01       2.503755358659e+03 
       1.802263517371e-01       2.407344637684e+03 
       1.862533508214e-01       2.322252756064e+03 
       1.924818644494e-01       2.231552664592e+03 
       1.989186627765e-01       2.122186668126e+03 
       2.055707152847e-01       1.992017191722e+03 
       2.124452391818e-01       1.850327287864e+03 
       2.195497567139e-01       1.712184125017e+03 
       2.268921624510e-01       1.590990252990e+03 
       2.344808017550e-01       1.493668612197e+03 
       2.423245618548e-01       1.418314077400e+03 
       2.504329772620e-01       1.354465363562e+03 
       2.588163516754e-01       1.288934777793e+03 
       2.674858990930e-01       1.213938680700e+03 
       2.764539076010e-01       1.130691350879e+03 
       2.857339303080e-01       1.048098686851e+03 
       2.953410092148e-01       9.761836466899e+02 
       3.052919395542e-01       9.178143403944e+02 
       3.156055844677e-01       8.678959452134e+02 
       3.263032530092e-01       8.185263484329e+02 
       3.374091587054e-01       7.651464159677e+02 
       3.489509817175e-01       7.106713663259e+02 
       3.609605657343e-01       6.607858713383e+02 
       3.734747921333e-01       6.180860251164e+02 
       3.865366902904e-01       5.793118177410e+02 
       4.001968667448e-01       5.403920313600e+02 
       4.145153713076e-01       5.011494361559e+02 
       4.295641718077e-01       4.645003791399e+02 
       4.454304922144e-01       4.314083447395e+02 
       4.622214006969e-01       4.001142341731e+02 
       4.800702491654e-01       3.690886983190e+02 
       4.991459272112e-01       3.394759524111e+02 
       5.196665217302e-01       3.119846522211e+02 
       5.419201087032e-01       2.852470688177e+02 
       5.662975451962e-01       2.593310821513e+02 
       5.933463737275e-01       2.345482591062e+02 
       6.238638458458e-01       2.102309009009e+02 
       6.590669257916e-01       1.864337534156e+02 
       7.009246080454e-01       1.627249843074e+02 
       7.528593308799e-01       1.388183018527e+02 
       8.213469537518e-01       1.141885054460e+02 
       9.196980813302e-01       8.835972682950e+01 
       1.075112183810e+00       6.172611722830e+01 
       1.322697471132e+00       3.804287699150e+01 
       1.662328205042e+00       2.209798407889e+01 
       2.092692408506e+00       1.266920568713e+01 
       2.634543445090e+00       7.203375623047e+00 
       3.316693691389e+00       4.065146061468e+00 
       4.175469971226e+00       2.278625270828e+00 
       5.256605252960e+00       1.269334576502e+00 
       6.617673932723e+00       7.031385606037e-01 
       8.331157880872e+00       3.874776156250e-01 
       1.048830636590e+01       2.125087838027e-01 
       1.320399541071e+01       1.160362474870e-01 
       1.662284535976e+01       6.309813753038e-02 
       2.092692243973e+01       3.417944815049e-02 
       2.634543445002e+01       1.844592664658e-02 
       3.316693691389e+01       9.919033932756e-03 
       4.175469971226e+01       5.314593989647e-03 
       5.256605252960e+01       2.836668517716e-03 
       6.617673932723e+01       1.507670223477e-03 
