# Matter power spectrum P(k) at redshift z=0
# for k=1.04775e-05 to 66.1767 h/Mpc,
# number of wavenumbers equal to 130
#    1:k (h/Mpc)              2:P (Mpc/h)^3        
       1.047750691046e-05       5.020964811306e+01 
       1.319039970183e-05       6.270562594770e+01 
       1.660572937635e-05       7.831147247912e+01 
       2.090537469327e-05       9.780108069297e+01 
       2.631830744443e-05       1.221408203809e+02 
       3.313278603720e-05       1.525374501932e+02 
       4.171170630578e-05       1.904975994009e+02 
       5.251192703764e-05       2.379022224249e+02 
       6.610859936996e-05       2.970989227882e+02 
       8.322579568497e-05       3.710167318945e+02 
       1.047750691046e-04       4.633080766742e+02 
       1.319039970183e-04       5.785234129336e+02 
       1.660572937635e-04       7.223242666092e+02 
       2.090537469327e-04       9.017396271824e+02 
       2.631830744443e-04       1.125468123749e+03 
       3.313278603720e-04       1.404223053681e+03 
       4.171170630578e-04       1.751108028789e+03 
       5.251192703764e-04       2.181998448133e+03 
       6.610859936996e-04       2.715889983592e+03 
       8.322579568497e-04       3.375152337133e+03 
       1.047750691046e-03       4.185552174291e+03 
       1.319039970183e-03       5.175742740740e+03 
       1.660572937635e-03       6.376123051809e+03 
       2.090537469327e-03       7.815671868438e+03 
       2.631830744443e-03       9.517783069094e+03 
       3.313278603720e-03       1.149357460341e+04 
       4.171170630578e-03       1.373266009653e+04 
       5.251192703764e-03       1.619063612601e+04 
       6.610859936996e-03       1.877460410440e+04 
       8.322579568497e-03       2.132606857264e+04 
       1.047750691046e-02       2.360548992060e+04 
       1.319039970183e-02       2.528218774526e+04 
       1.660572937633e-02       2.595027258713e+04 
       2.090537453514e-02       2.520938620243e+04 
       2.631818545635e-02       2.287033356286e+04 
       3.311571692125e-02       1.928624815311e+04 
       4.113809243311e-02       1.568424073072e+04 
       4.792590854610e-02       1.361061140254e+04 
       5.284436902701e-02       1.259127343844e+04 
       5.689644391095e-02       1.195559532495e+04 
       6.051252627066e-02       1.147553093332e+04 
       6.388413457411e-02       1.105594689194e+04 
       6.711249296401e-02       1.064904638492e+04 
       7.025823437965e-02       1.022936686952e+04 
       7.336115587705e-02       9.784590103676e+03 
       7.644928796912e-02       9.311695236826e+03 
       7.954353299775e-02       8.814554136605e+03 
       8.266024078725e-02       8.302193575810e+03 
       8.581273398637e-02       7.786995901516e+03 
       8.901225918437e-02       7.283253290086e+03 
       9.226860540985e-02       6.805191301908e+03 
       9.559052048996e-02       6.365663065404e+03 
       9.898599946599e-02       5.974411617588e+03 
       1.024624891378e-01       5.637368873514e+03 
       1.060270359164e-01       5.355803961133e+03 
       1.096863943056e-01       5.126249831910e+03 
       1.134471073830e-01       4.940496898105e+03 
       1.173155669539e-01       4.786172769600e+03 
       1.212980586983e-01       4.647939132021e+03 
       1.254007961065e-01       4.509142984204e+03 
       1.296299459934e-01       4.354562166419e+03 
       1.339916477160e-01       4.173219918947e+03 
       1.384920277736e-01       3.961180710465e+03 
       1.431372111762e-01       3.722625404512e+03 
       1.479333307714e-01       3.469557435392e+03 
       1.528865355934e-01       3.218324585151e+03 
       1.580029992204e-01       2.986260245201e+03 
       1.632889290723e-01       2.786947713773e+03 
       1.687505775527e-01       2.626805067785e+03 
       1.743942559171e-01       2.503760492969e+03 
       1.802263517371e-01       2.407311552033e+03 
       1.862533508214e-01       2.322251077397e+03 
       1.924818644494e-01       2.231565188745e+03 
       1.989186627765e-01       2.122197574601e+03 
       2.055707152847e-01       1.992043249022e+03 
       2.124452391818e-01       1.850314572326e+03 
       2.195497567139e-01       1.712161950239e+03 
       2.268921624510e-01       1.590973554751e+03 
       2.344808017550e-01       1.493655637359e+03 
       2.423245618548e-01       1.418305834125e+03 
       2.504329772620e-01       1.354446826898e+03 
       2.588163516754e-01       1.288934103733e+03 
       2.674858990930e-01       1.213906314718e+03 
       2.764539076010e-01       1.130685076702e+03 
       2.857339303080e-01       1.048088252299e+03 
       2.953410092148e-01       9.761756868766e+02 
       3.052919395542e-01       9.178021821940e+02 
       3.156055844677e-01       8.678814301458e+02 
       3.263032530092e-01       8.185226764528e+02 
       3.374091587054e-01       7.651405467765e+02 
       3.489509817175e-01       7.106584989631e+02 
       3.609605657343e-01       6.607761917477e+02 
       3.734747921333e-01       6.180804579332e+02 
       3.865366902904e-01       5.793005051452e+02 
       4.001968667448e-01       5.403826943194e+02 
       4.145153713076e-01       5.011451022369e+02 
       4.295641718077e-01       4.644951813126e+02 
       4.454304922144e-01       4.314011656747e+02 
       4.622214006969e-01       4.001090065721e+02 
       4.800702491654e-01       3.690833960329e+02 
       4.991459272112e-01       3.394709111146e+02 
       5.196665217302e-01       3.119790256200e+02 
       5.419201087032e-01       2.852417386039e+02 
       5.662975451962e-01       2.593271760608e+02 
       5.933463737275e-01       2.345445794178e+02 
       6.238638458458e-01       2.102281208483e+02 
       6.590669257916e-01       1.864318999516e+02 
       7.009246080454e-01       1.627237711485e+02 
       7.528593308799e-01       1.388171391691e+02 
       8.213469537518e-01       1.141872065451e+02 
       9.196980813302e-01       8.835816735449e+01 
       1.075112183810e+00       6.172537921747e+01 
       1.322697471132e+00       3.804273305953e+01 
       1.662328205042e+00       2.209755608711e+01 
       2.092692408506e+00       1.266886773292e+01 
       2.634543445090e+00       7.203020053124e+00 
       3.316693691389e+00       4.064888544671e+00 
       4.175469971226e+00       2.278391508068e+00 
       5.256605252960e+00       1.269121119514e+00 
       6.617673932723e+00       7.029250216723e-01 
       8.331157880872e+00       3.872833349921e-01 
       1.048830636590e+01       2.123283376489e-01 
       1.320399541071e+01       1.158635879366e-01 
       1.662284535976e+01       6.293847120143e-02 
       2.092692243973e+01       3.402935120307e-02 
       2.634543445002e+01       1.830582974330e-02 
       3.316693691389e+01       9.787660623540e-03 
       4.175469971226e+01       5.190869682424e-03 
       5.256605252960e+01       2.719424698313e-03 
       6.617673932723e+01       1.396009696631e-03 
