# Matter power spectrum P(k) at redshift z=99
# for k=1.04775e-05 to 66.1767 h/Mpc,
# number of wavenumbers equal to 130
#    1:k (h/Mpc)              2:P (Mpc/h)^3        
       1.047750691046e-05       7.261927680868e-03 
       1.319039970183e-05       9.069258201856e-03 
       1.660572937635e-05       1.132639106726e-02 
       2.090537469327e-05       1.414527123400e-02 
       2.631830744443e-05       1.766569584060e-02 
       3.313278603720e-05       2.206225515944e-02 
       4.171170630578e-05       2.755297766279e-02 
       5.251192703764e-05       3.441013522950e-02 
       6.610859936996e-05       4.297372172781e-02 
       8.322579568497e-05       5.366826852949e-02 
       1.047750691046e-04       6.702379872780e-02 
       1.319039970183e-04       8.370193441293e-02 
       1.660572937635e-04       1.045283355385e-01 
       2.090537469327e-04       1.305329134105e-01 
       2.631830744443e-04       1.629994506607e-01 
       3.313278603720e-04       2.035264004603e-01 
       4.171170630578e-04       2.541004744245e-01 
       5.251192703764e-04       3.171839528559e-01 
       6.610859936996e-04       3.958147256516e-01 
       8.322579568497e-04       4.937136006274e-01 
       1.047750691046e-03       6.153841636043e-01 
       1.319039970183e-03       7.661720592365e-01 
       1.660572937635e-03       9.522588016472e-01 
       2.090537469327e-03       1.180312991698e+00 
       2.631830744443e-03       1.456802684682e+00 
       3.313278603720e-03       1.786503854033e+00 
       4.171170630578e-03       2.169896161430e+00 
       5.251192703764e-03       2.599430630686e+00 
       6.610859936996e-03       3.055668566219e+00 
       8.322579568497e-03       3.505725131277e+00 
       1.047750691046e-02       3.905491426681e+00 
       1.319039970183e-02       4.200915358836e+00 
       1.660572937633e-02       4.325062165476e+00 
       2.090537453514e-02       4.210200754569e+00 
       2.631818545635e-02       3.825156400132e+00 
       3.311571692125e-02       3.229062919339e+00 
       4.113809243311e-02       2.627732412793e+00 
       4.792590854610e-02       2.280793380381e+00 
       5.284436902701e-02       2.110092922103e+00 
       5.689644391095e-02       2.003537907329e+00 
       6.051252627066e-02       1.923055543292e+00 
       6.388413457411e-02       1.852734090177e+00 
       6.711249296401e-02       1.784565654565e+00 
       7.025823437965e-02       1.714278265269e+00 
       7.336115587705e-02       1.639815689658e+00 
       7.644928796912e-02       1.560658819832e+00 
       7.954353299775e-02       1.477456830125e+00 
       8.266024078725e-02       1.391696591468e+00 
       8.581273398637e-02       1.305460214280e+00 
       8.901225918437e-02       1.221124887147e+00 
       9.226860540985e-02       1.141078780933e+00 
       9.559052048996e-02       1.067454622266e+00 
       9.898599946599e-02       1.001891789365e+00 
       1.024624891378e-01       9.453846836954e-01 
       1.060270359164e-01       8.981510823707e-01 
       1.096863943056e-01       8.596128945974e-01 
       1.134471073830e-01       8.284068565918e-01 
       1.173155669539e-01       8.024673020854e-01 
       1.212980586983e-01       7.792291334516e-01 
       1.254007961065e-01       7.559179857723e-01 
       1.296299459934e-01       7.299820383457e-01 
       1.339916477160e-01       6.995926846302e-01 
       1.384920277736e-01       6.640779380018e-01 
       1.431372111762e-01       6.241473782091e-01 
       1.479333307714e-01       5.817645877560e-01 
       1.528865355934e-01       5.396899976885e-01 
       1.580029992204e-01       5.008126764262e-01 
       1.632889290723e-01       4.673990135968e-01 
       1.687505775527e-01       4.405338680204e-01 
       1.743942559171e-01       4.198659224029e-01 
       1.802263517371e-01       4.036598405373e-01 
       1.862533508214e-01       3.893624305680e-01 
       1.924818644494e-01       3.741394342146e-01 
       1.989186627765e-01       3.558057250539e-01 
       2.055707152847e-01       3.340028568057e-01 
       2.124452391818e-01       3.102659732141e-01 
       2.195497567139e-01       2.871219487266e-01 
       2.268921624510e-01       2.668081614586e-01 
       2.344808017550e-01       2.504834238325e-01 
       2.423245618548e-01       2.378330598789e-01 
       2.504329772620e-01       2.271120930993e-01 
       2.588163516754e-01       2.161190292238e-01 
       2.674858990930e-01       2.035473092716e-01 
       2.764539076010e-01       1.895975969750e-01 
       2.857339303080e-01       1.757571950117e-01 
       2.953410092148e-01       1.636992185040e-01 
       3.052919395542e-01       1.539064384713e-01 
       3.156055844677e-01       1.455308885300e-01 
       3.263032530092e-01       1.372500688039e-01 
       3.374091587054e-01       1.283019238026e-01 
       3.489509817175e-01       1.191710588219e-01 
       3.609605657343e-01       1.108071317419e-01 
       3.734747921333e-01       1.036452413312e-01 
       3.865366902904e-01       9.714104829266e-02 
       4.001968667448e-01       9.061560625767e-02 
       4.145153713076e-01       8.403725541724e-02 
       4.295641718077e-01       7.789117053845e-02 
       4.454304922144e-01       7.234179324567e-02 
       4.622214006969e-01       6.709360684774e-02 
       4.800702491654e-01       6.189175280263e-02 
       4.991459272112e-01       5.692626550096e-02 
       5.196665217302e-01       5.231602334687e-02 
       5.419201087032e-01       4.783243642199e-02 
       5.662975451962e-01       4.348673170225e-02 
       5.933463737275e-01       3.933106696951e-02 
       6.238638458458e-01       3.525345206602e-02 
       6.590669257916e-01       3.126281485574e-02 
       7.009246080454e-01       2.728728074032e-02 
       7.528593308799e-01       2.327832745416e-02 
       8.213469537518e-01       1.914820103700e-02 
       9.196980813302e-01       1.481696566256e-02 
       1.075112183810e+00       1.035086010694e-02 
       1.322697471132e+00       6.379389461896e-03 
       1.662328205042e+00       3.705584882139e-03 
       2.092692408506e+00       2.124468401864e-03 
       2.634543445090e+00       1.207892719592e-03 
       3.316693691389e+00       6.816431000029e-04 
       4.175469971226e+00       3.820551735826e-04 
       5.256605252960e+00       2.128111577856e-04 
       6.617673932723e+00       1.178629354079e-04 
       8.331157880872e+00       6.493076514618e-05 
       1.048830636590e+01       3.559256998435e-05 
       1.320399541071e+01       1.941718395676e-05 
       1.662284535976e+01       1.054259846700e-05 
       2.092692243973e+01       5.695802364134e-06 
       2.634543445002e+01       3.060290201231e-06 
       3.316693691389e+01       1.633259739105e-06 
       4.175469971226e+01       8.639515808684e-07 
       5.256605252960e+01       4.512299581970e-07 
       6.617673932723e+01       2.311538706363e-07 
