# Matter power spectrum P(k) at redshift z=0
# for k=1.04775e-05 to 66.1767 h/Mpc,
# number of wavenumbers equal to 130
#    1:k (h/Mpc)              2:P (Mpc/h)^3        
       1.047750691046e-05       5.020964811306e+01 
       1.319039970183e-05       6.270562594780e+01 
       1.660572937635e-05       7.831147247912e+01 
       2.090537469327e-05       9.780108069295e+01 
       2.631830744443e-05       1.221408203809e+02 
       3.313278603720e-05       1.525374501932e+02 
       4.171170630578e-05       1.904975994010e+02 
       5.251192703764e-05       2.379022224249e+02 
       6.610859936996e-05       2.970989227881e+02 
       8.322579568497e-05       3.710167318945e+02 
       1.047750691046e-04       4.633080766742e+02 
       1.319039970183e-04       5.785234129339e+02 
       1.660572937635e-04       7.223242666092e+02 
       2.090537469327e-04       9.017396271824e+02 
       2.631830744443e-04       1.125468123750e+03 
       3.313278603720e-04       1.404223053681e+03 
       4.171170630578e-04       1.751108028790e+03 
       5.251192703764e-04       2.181998448133e+03 
       6.610859936996e-04       2.715889983592e+03 
       8.322579568497e-04       3.375152337134e+03 
       1.047750691046e-03       4.185552174309e+03 
       1.319039970183e-03       5.175742739596e+03 
       1.660572937635e-03       6.376123051776e+03 
       2.090537469327e-03       7.815671866252e+03 
       2.631830744443e-03       9.517783069112e+03 
       3.313278603720e-03       1.149357460346e+04 
       4.171170630578e-03       1.373266011904e+04 
       5.251192703764e-03       1.619063614556e+04 
       6.610859936996e-03       1.877460412110e+04 
       8.322579568497e-03       2.132606941246e+04 
       1.047750691046e-02       2.360548281317e+04 
       1.319039970183e-02       2.528218652775e+04 
       1.660572937633e-02       2.595028611173e+04 
       2.090537453514e-02       2.520933017049e+04 
       2.631818545635e-02       2.287034808488e+04 
       3.311571692125e-02       1.928626986931e+04 
       4.113809243311e-02       1.568418293436e+04 
       4.792590854610e-02       1.361065987365e+04 
       5.284436902701e-02       1.259131750883e+04 
       5.689644391095e-02       1.195554650955e+04 
       6.051252627066e-02       1.147545775886e+04 
       6.388413457411e-02       1.105590445608e+04 
       6.711249296401e-02       1.064899757051e+04 
       7.025823437965e-02       1.022926587483e+04 
       7.336115587705e-02       9.784512202739e+03 
       7.644928796912e-02       9.311650162423e+03 
       7.954353299775e-02       8.814533657633e+03 
       8.266024078725e-02       8.302118659162e+03 
       8.581273398637e-02       7.786946307319e+03 
       8.901225918437e-02       7.283210917588e+03 
       9.226860540985e-02       6.805157023357e+03 
       9.559052048996e-02       6.365643749783e+03 
       9.898599946599e-02       5.974403517691e+03 
       1.024624891378e-01       5.637325089675e+03 
       1.060270359164e-01       5.355756251560e+03 
       1.096863943056e-01       5.126237152979e+03 
       1.134471073830e-01       4.940489598249e+03 
       1.173155669539e-01       4.786151202708e+03 
       1.212980586983e-01       4.647932171345e+03 
       1.254007961065e-01       4.509143385475e+03 
       1.296299459934e-01       4.354549828774e+03 
       1.339916477160e-01       4.173208010837e+03 
       1.384920277736e-01       3.961168365471e+03 
       1.431372111762e-01       3.722689387972e+03 
       1.479333307714e-01       3.469525916838e+03 
       1.528865355934e-01       3.218341783599e+03 
       1.580029992204e-01       2.986295529405e+03 
       1.632889290723e-01       2.786971053803e+03 
       1.687505775527e-01       2.626828317600e+03 
       1.743942559171e-01       2.503755070209e+03 
       1.802263517371e-01       2.407344874350e+03 
       1.862533508214e-01       2.322249469590e+03 
       1.924818644494e-01       2.231556230966e+03 
       1.989186627765e-01       2.122186548405e+03 
       2.055707152847e-01       1.992028323936e+03 
       2.124452391818e-01       1.850327755409e+03 
       2.195497567139e-01       1.712181917132e+03 
       2.268921624510e-01       1.590991087480e+03 
       2.344808017550e-01       1.493668062554e+03 
       2.423245618548e-01       1.418306692268e+03 
       2.504329772620e-01       1.354464786525e+03 
       2.588163516754e-01       1.288937544021e+03 
       2.674858990930e-01       1.213933285103e+03 
       2.764539076010e-01       1.130689477652e+03 
       2.857339303080e-01       1.048098547977e+03 
       2.953410092148e-01       9.761814979215e+02 
       3.052919395542e-01       9.178086427535e+02 
       3.156055844677e-01       8.678977858642e+02 
       3.263032530092e-01       8.185251319662e+02 
       3.374091587054e-01       7.651454903608e+02 
       3.489509817175e-01       7.106695649807e+02 
       3.609605657343e-01       6.607870830174e+02 
       3.734747921333e-01       6.180859179383e+02 
       3.865366902904e-01       5.793103619310e+02 
       4.001968667448e-01       5.403919290521e+02 
       4.145153713076e-01       5.011501250060e+02 
       4.295641718077e-01       4.645006217025e+02 
       4.454304922144e-01       4.314079115860e+02 
       4.622214006969e-01       4.001135188750e+02 
       4.800702491654e-01       3.690901152780e+02 
       4.991459272112e-01       3.394763510366e+02 
       5.196665217302e-01       3.119839659973e+02 
       5.419201087032e-01       2.852466170909e+02 
       5.662975451962e-01       2.593308121166e+02 
       5.933463737275e-01       2.345480182664e+02 
       6.238638458458e-01       2.102304819976e+02 
       6.590669257916e-01       1.864331468861e+02 
       7.009246080454e-01       1.627258346084e+02 
       7.528593308799e-01       1.388183130831e+02 
       8.213469537518e-01       1.141884058229e+02 
       9.196980813302e-01       8.835907474244e+01 
       1.075112183810e+00       6.172627373707e+01 
       1.322697471132e+00       3.804272950346e+01 
       1.662328205042e+00       2.209793847700e+01 
       2.092692408506e+00       1.266913332850e+01 
       2.634543445090e+00       7.203266359392e+00 
       3.316693691389e+00       4.065123299247e+00 
       4.175469971226e+00       2.278598668351e+00 
       5.256605252960e+00       1.269346923829e+00 
       6.617673932723e+00       7.031308673129e-01 
       8.331157880872e+00       3.874739086711e-01 
       1.048830636590e+01       2.125091033317e-01 
       1.320399541071e+01       1.160355775698e-01 
       1.662284535976e+01       6.309917446673e-02 
       2.092692243973e+01       3.417922969626e-02 
       2.634543445002e+01       1.844570238232e-02 
       3.316693691389e+01       9.919042580440e-03 
       4.175469971226e+01       5.314457664605e-03 
       5.256605252960e+01       2.836535643256e-03 
       6.617673932723e+01       1.507549456115e-03 
