# Matter power spectrum P(k) at redshift z=0
# for k=1.04775e-05 to 66.1767 h/Mpc,
# number of wavenumbers equal to 130
#    1:k (h/Mpc)              2:P (Mpc/h)^3        
       1.047750691046e-05       5.020964811308e+01 
       1.319039970183e-05       6.270562594976e+01 
       1.660572937635e-05       7.831147247916e+01 
       2.090537469327e-05       9.780108069305e+01 
       2.631830744443e-05       1.221408203819e+02 
       3.313278603720e-05       1.525374501932e+02 
       4.171170630578e-05       1.904975994010e+02 
       5.251192703764e-05       2.379022224221e+02 
       6.610859936996e-05       2.970989227885e+02 
       8.322579568497e-05       3.710167318930e+02 
       1.047750691046e-04       4.633080766706e+02 
       1.319039970183e-04       5.785234139799e+02 
       1.660572937635e-04       7.223242665947e+02 
       2.090537469327e-04       9.017396271534e+02 
       2.631830744443e-04       1.125468123691e+03 
       3.313278603720e-04       1.404223053566e+03 
       4.171170630578e-04       1.751108028566e+03 
       5.251192703764e-04       2.181998447680e+03 
       6.610859936996e-04       2.715889982700e+03 
       8.322579568497e-04       3.375152335365e+03 
       1.047750691046e-03       4.185552170800e+03 
       1.319039970183e-03       5.175742732004e+03 
       1.660572937635e-03       6.376123037002e+03 
       2.090537469327e-03       7.815671834453e+03 
       2.631830744443e-03       9.517783002152e+03 
       3.313278603720e-03       1.149357445852e+04 
       4.171170630578e-03       1.373266002418e+04 
       5.251192703764e-03       1.619057391896e+04 
       6.610859936996e-03       1.877450709454e+04 
       8.322579568497e-03       2.132605959657e+04 
       1.047750691046e-02       2.360549948668e+04 
       1.319039970183e-02       2.528202396602e+04 
       1.660572937633e-02       2.594987499927e+04 
       2.090537453514e-02       2.520835214817e+04 
       2.631818545635e-02       2.286828464448e+04 
       3.311571692125e-02       1.928221265648e+04 
       4.113809243311e-02       1.567717541158e+04 
       4.792590854610e-02       1.360033556578e+04 
       5.284436902701e-02       1.257833028262e+04 
       5.689644391095e-02       1.194014742031e+04 
       6.051252627066e-02       1.145759905749e+04 
       6.388413457411e-02       1.103552170698e+04 
       6.711249296401e-02       1.062601288870e+04 
       7.025823437965e-02       1.020360196438e+04 
       7.336115587705e-02       9.756045937376e+03 
       7.644928796912e-02       9.280282928757e+03 
       7.954353299775e-02       8.780205229119e+03 
       8.266024078725e-02       8.264795108418e+03 
       8.581273398637e-02       7.746463245002e+03 
       8.901225918437e-02       7.239611184155e+03 
       9.226860540985e-02       6.758416614214e+03 
       9.559052048996e-02       6.315609330230e+03 
       9.898599946599e-02       5.920940651894e+03 
       1.024624891378e-01       5.580433869007e+03 
       1.060270359164e-01       5.295093044093e+03 
       1.096863943056e-01       5.061462414476e+03 
       1.134471073830e-01       4.871340256213e+03 
       1.173155669539e-01       4.712249649838e+03 
       1.212980586983e-01       4.568831154947e+03 
       1.254007961065e-01       4.424678059593e+03 
       1.296299459934e-01       4.264399045950e+03 
       1.339916477160e-01       4.077226920148e+03 
       1.384920277736e-01       3.859305445722e+03 
       1.431372111762e-01       3.614967591747e+03 
       1.479333307714e-01       3.356075468844e+03 
       1.528865355934e-01       3.099114210658e+03 
       1.580029992204e-01       2.861163197332e+03 
       1.632889290723e-01       2.655579586255e+03 
       1.687505775527e-01       2.488582248333e+03 
       1.743942559171e-01       2.357889608156e+03 
       1.802263517371e-01       2.253031402870e+03 
       1.862533508214e-01       2.158991288295e+03 
       1.924818644494e-01       2.059189998147e+03 
       1.989186627765e-01       1.941052236335e+03 
       2.055707152847e-01       1.802706977434e+03 
       2.124452391818e-01       1.653384400486e+03 
       2.195497567139e-01       1.507784576990e+03 
       2.268921624510e-01       1.378737795948e+03 
       2.344808017550e-01       1.272623699716e+03 
       2.423245618548e-01       1.187404151842e+03 
       2.504329772620e-01       1.113075072710e+03 
       2.588163516754e-01       1.037365564191e+03 
       2.674858990930e-01       9.533041568866e+02 
       2.764539076010e-01       8.623023862158e+02 
       2.857339303080e-01       7.726497063851e+02 
       2.953410092148e-01       6.932839947588e+02 
       3.052919395542e-01       6.265279195747e+02 
       3.156055844677e-01       5.678515294621e+02 
       3.263032530092e-01       5.105515014407e+02 
       3.374091587054e-01       4.511022540384e+02 
       3.489509817175e-01       3.921388636830e+02 
       3.609605657343e-01       3.382581436407e+02 
       3.734747921333e-01       2.913594265824e+02 
       3.865366902904e-01       2.490034350257e+02 
       4.001968667448e-01       2.084533875534e+02 
       4.145153713076e-01       1.698448603400e+02 
       4.295641718077e-01       1.351965910291e+02 
       4.454304922144e-01       1.051258455943e+02 
       4.622214006969e-01       7.872997913059e+01 
       4.800702491654e-01       5.546006576937e+01 
       4.991459272112e-01       3.604550387650e+01 
       5.196665217302e-01       2.087670858385e+01 
       5.419201087032e-01       9.670625569114e+00 
       5.662975451962e-01       2.657806082942e+00 
       5.933463737275e-01       2.258599273448e-02 
       6.238638458458e-01       1.788109029058e+00 
       6.590669257916e-01       7.876108351253e+00 
       7.009246080454e-01       1.785269669241e+01 
       7.528593308799e-01       3.033237642729e+01 
       8.213469537518e-01       4.165081760499e+01 
       9.196980813302e-01       4.287613840306e+01 
       1.075112183810e+00       2.116649838552e+01 
       1.322697471132e+00       1.575675299259e-03 
       1.662328205042e+00       6.947092366769e+00 
       2.092692408506e+00       6.921241908309e-04 
       2.634543445090e+00       6.970119653218e-01 
       3.316693691389e+00       2.482796227222e-01 
       4.175469971226e+00       5.082891640586e-02 
       5.256605252960e+00       4.238986985435e-03 
       6.617673932723e+00       3.052430184979e-04 
       8.331157880872e+00       1.294492312809e-06 
       1.048830636590e+01       6.976453293059e-07 
       1.320399541071e+01       1.543023353762e-09 
       1.662284535976e+01       2.332728164589e-11 
       2.092692243973e+01       1.782238309139e-11 
       2.634543445002e+01       1.159744257405e-12 
       3.316693691389e+01       1.100954522024e-15 
       4.175469971226e+01       3.745167470210e-15 
       5.256605252960e+01       1.109418767609e-17 
       6.617673932723e+01       2.875023699804e-18 
