# Matter power spectrum P(k) at redshift z=99
# for k=1.04775e-05 to 66.1767 h/Mpc,
# number of wavenumbers equal to 130
#    1:k (h/Mpc)              2:P (Mpc/h)^3        
       1.047750691046e-05       7.261927680867e-03 
       1.319039970183e-05       9.069258201855e-03 
       1.660572937635e-05       1.132639106726e-02 
       2.090537469327e-05       1.414527123400e-02 
       2.631830744443e-05       1.766569584059e-02 
       3.313278603720e-05       2.206225515944e-02 
       4.171170630578e-05       2.755297766279e-02 
       5.251192703764e-05       3.441013522950e-02 
       6.610859936996e-05       4.297372172781e-02 
       8.322579568497e-05       5.366826852948e-02 
       1.047750691046e-04       6.702379872780e-02 
       1.319039970183e-04       8.370193441292e-02 
       1.660572937635e-04       1.045283355385e-01 
       2.090537469327e-04       1.305329134105e-01 
       2.631830744443e-04       1.629994506607e-01 
       3.313278603720e-04       2.035264004603e-01 
       4.171170630578e-04       2.541004744245e-01 
       5.251192703764e-04       3.171839528559e-01 
       6.610859936996e-04       3.958147256516e-01 
       8.322579568497e-04       4.937136006274e-01 
       1.047750691046e-03       6.153841636044e-01 
       1.319039970183e-03       7.661720592505e-01 
       1.660572937635e-03       9.522588016468e-01 
       2.090537469327e-03       1.180312991698e+00 
       2.631830744443e-03       1.456802684683e+00 
       3.313278603720e-03       1.786503854039e+00 
       4.171170630578e-03       2.169896194159e+00 
       5.251192703764e-03       2.599430630689e+00 
       6.610859936996e-03       3.055668706361e+00 
       8.322579568497e-03       3.505725598521e+00 
       1.047750691046e-02       3.905491096343e+00 
       1.319039970183e-02       4.200915308043e+00 
       1.660572937633e-02       4.325062621605e+00 
       2.090537453514e-02       4.210201943294e+00 
       2.631818545635e-02       3.825149258629e+00 
       3.311571692125e-02       3.229062646003e+00 
       4.113809243311e-02       2.627716201719e+00 
       4.792590854610e-02       2.280795262192e+00 
       5.284436902701e-02       2.110081254365e+00 
       5.689644391095e-02       2.003541981122e+00 
       6.051252627066e-02       1.923060493120e+00 
       6.388413457411e-02       1.852731913854e+00 
       6.711249296401e-02       1.784563342070e+00 
       7.025823437965e-02       1.714275041959e+00 
       7.336115587705e-02       1.639813535300e+00 
       7.644928796912e-02       1.560663201626e+00 
       7.954353299775e-02       1.477456491267e+00 
       8.266024078725e-02       1.391698403906e+00 
       8.581273398637e-02       1.305461304568e+00 
       8.901225918437e-02       1.221127172917e+00 
       9.226860540985e-02       1.141078676708e+00 
       9.559052048996e-02       1.067453615197e+00 
       9.898599946599e-02       1.001891905114e+00 
       1.024624891378e-01       9.453829974521e-01 
       1.060270359164e-01       8.981504060516e-01 
       1.096863943056e-01       8.596130322470e-01 
       1.134471073830e-01       8.284054218942e-01 
       1.173155669539e-01       8.024689943366e-01 
       1.212980586983e-01       7.792287378598e-01 
       1.254007961065e-01       7.559164551548e-01 
       1.296299459934e-01       7.299817397172e-01 
       1.339916477160e-01       6.995917209292e-01 
       1.384920277736e-01       6.640776997833e-01 
       1.431372111762e-01       6.241471148825e-01 
       1.479333307714e-01       5.817646002891e-01 
       1.528865355934e-01       5.396902285779e-01 
       1.580029992204e-01       5.008137210013e-01 
       1.632889290723e-01       4.673985792226e-01 
       1.687505775527e-01       4.405336523386e-01 
       1.743942559171e-01       4.198662797566e-01 
       1.802263517371e-01       4.036595168960e-01 
       1.862533508214e-01       3.893628355021e-01 
       1.924818644494e-01       3.741389002075e-01 
       1.989186627765e-01       3.558044877454e-01 
       2.055707152847e-01       3.340035885064e-01 
       2.124452391818e-01       3.102656233777e-01 
       2.195497567139e-01       2.871225019730e-01 
       2.268921624510e-01       2.668086327027e-01 
       2.344808017550e-01       2.504835172770e-01 
       2.423245618548e-01       2.378330448775e-01 
       2.504329772620e-01       2.271118882678e-01 
       2.588163516754e-01       2.161202210046e-01 
       2.674858990930e-01       2.035480332896e-01 
       2.764539076010e-01       1.895975253026e-01 
       2.857339303080e-01       1.757566135810e-01 
       2.953410092148e-01       1.636991111195e-01 
       3.052919395542e-01       1.539060008281e-01 
       3.156055844677e-01       1.455309811726e-01 
       3.263032530092e-01       1.372503314107e-01 
       3.374091587054e-01       1.283023079405e-01 
       3.489509817175e-01       1.191711256993e-01 
       3.609605657343e-01       1.108072137347e-01 
       3.734747921333e-01       1.036450767930e-01 
       3.865366902904e-01       9.714154071083e-02 
       4.001968667448e-01       9.061549748309e-02 
       4.145153713076e-01       8.403696644965e-02 
       4.295641718077e-01       7.789128431525e-02 
       4.454304922144e-01       7.234161743377e-02 
       4.622214006969e-01       6.709363412065e-02 
       4.800702491654e-01       6.189174602824e-02 
       4.991459272112e-01       5.692637378337e-02 
       5.196665217302e-01       5.231602199923e-02 
       5.419201087032e-01       4.783251273686e-02 
       5.662975451962e-01       4.348684264783e-02 
       5.933463737275e-01       3.933089042960e-02 
       6.238638458458e-01       3.525333621462e-02 
       6.590669257916e-01       3.126282082477e-02 
       7.009246080454e-01       2.728722065277e-02 
       7.528593308799e-01       2.327834015898e-02 
       8.213469537518e-01       1.914822998771e-02 
       9.196980813302e-01       1.481696662418e-02 
       1.075112183810e+00       1.035091114196e-02 
       1.322697471132e+00       6.379389320603e-03 
       1.662328205042e+00       3.705615477009e-03 
       2.092692408506e+00       2.124473436895e-03 
       2.634543445090e+00       1.207904164591e-03 
       3.316693691389e+00       6.816497817283e-04 
       4.175469971226e+00       3.820631243772e-04 
       5.256605252960e+00       2.128177854938e-04 
       6.617673932723e+00       1.178668944757e-04 
       8.331157880872e+00       6.493335475901e-05 
       1.048830636590e+01       3.559379385078e-05 
       1.320399541071e+01       1.941663684708e-05 
       1.662284535976e+01       1.053996457186e-05 
       2.092692243973e+01       5.690774058644e-06 
       2.634543445002e+01       3.052340610333e-06 
       3.316693691389e+01       1.621871550808e-06 
       4.175469971226e+01       8.487071681940e-07 
       5.256605252960e+01       4.319272107851e-07 
       6.617673932723e+01       2.082197829956e-07 
