# Matter power spectrum P(k) at redshift z=0
# for k=1.04775e-05 to 66.1767 h/Mpc,
# number of wavenumbers equal to 130
#    1:k (h/Mpc)              2:P (Mpc/h)^3        
       1.047750691046e-05       5.020964811307e+01 
       1.319039970183e-05       6.270562594771e+01 
       1.660572937635e-05       7.831147247912e+01 
       2.090537469327e-05       9.780108069295e+01 
       2.631830744443e-05       1.221408203809e+02 
       3.313278603720e-05       1.525374501932e+02 
       4.171170630578e-05       1.904975994010e+02 
       5.251192703764e-05       2.379022224249e+02 
       6.610859936996e-05       2.970989227882e+02 
       8.322579568497e-05       3.710167318946e+02 
       1.047750691046e-04       4.633080766742e+02 
       1.319039970183e-04       5.785234129339e+02 
       1.660572937635e-04       7.223242666092e+02 
       2.090537469327e-04       9.017396271824e+02 
       2.631830744443e-04       1.125468123750e+03 
       3.313278603720e-04       1.404223053681e+03 
       4.171170630578e-04       1.751108028790e+03 
       5.251192703764e-04       2.181998448133e+03 
       6.610859936996e-04       2.715889983592e+03 
       8.322579568497e-04       3.375152337134e+03 
       1.047750691046e-03       4.185552174305e+03 
       1.319039970183e-03       5.175742738677e+03 
       1.660572937635e-03       6.376123051776e+03 
       2.090537469327e-03       7.815671906396e+03 
       2.631830744443e-03       9.517783069113e+03 
       3.313278603720e-03       1.149357460346e+04 
       4.171170630578e-03       1.373266010943e+04 
       5.251192703764e-03       1.619063614560e+04 
       6.610859936996e-03       1.877460423943e+04 
       8.322579568497e-03       2.132606950059e+04 
       1.047750691046e-02       2.360548619267e+04 
       1.319039970183e-02       2.528218643566e+04 
       1.660572937633e-02       2.595028235019e+04 
       2.090537453514e-02       2.520937064420e+04 
       2.631818545635e-02       2.287035055559e+04 
       3.311571692125e-02       1.928621574866e+04 
       4.113809243311e-02       1.568424474201e+04 
       4.792590854610e-02       1.361063348010e+04 
       5.284436902701e-02       1.259129675687e+04 
       5.689644391095e-02       1.195556644587e+04 
       6.051252627066e-02       1.147544707834e+04 
       6.388413457411e-02       1.105590075547e+04 
       6.711249296401e-02       1.064897321205e+04 
       7.025823437965e-02       1.022928535795e+04 
       7.336115587705e-02       9.784559833032e+03 
       7.644928796912e-02       9.311659065223e+03 
       7.954353299775e-02       8.814529881903e+03 
       8.266024078725e-02       8.302103960988e+03 
       8.581273398637e-02       7.786952302002e+03 
       8.901225918437e-02       7.283163328890e+03 
       9.226860540985e-02       6.805166929925e+03 
       9.559052048996e-02       6.365635985901e+03 
       9.898599946599e-02       5.974410027439e+03 
       1.024624891378e-01       5.637313952766e+03 
       1.060270359164e-01       5.355777792818e+03 
       1.096863943056e-01       5.126264667323e+03 
       1.134471073830e-01       4.940482223972e+03 
       1.173155669539e-01       4.786162143852e+03 
       1.212980586983e-01       4.647926864304e+03 
       1.254007961065e-01       4.509158266409e+03 
       1.296299459934e-01       4.354550744238e+03 
       1.339916477160e-01       4.173206682884e+03 
       1.384920277736e-01       3.961166200584e+03 
       1.431372111762e-01       3.722683935276e+03 
       1.479333307714e-01       3.469550531366e+03 
       1.528865355934e-01       3.218335564376e+03 
       1.580029992204e-01       2.986297670284e+03 
       1.632889290723e-01       2.786960633113e+03 
       1.687505775527e-01       2.626825168856e+03 
       1.743942559171e-01       2.503756747771e+03 
       1.802263517371e-01       2.407341566686e+03 
       1.862533508214e-01       2.322251169600e+03 
       1.924818644494e-01       2.231551591533e+03 
       1.989186627765e-01       2.122190447943e+03 
       2.055707152847e-01       1.992023865830e+03 
       2.124452391818e-01       1.850328068491e+03 
       2.195497567139e-01       1.712185585652e+03 
       2.268921624510e-01       1.590989566386e+03 
       2.344808017550e-01       1.493666902540e+03 
       2.423245618548e-01       1.418312364216e+03 
       2.504329772620e-01       1.354467437153e+03 
       2.588163516754e-01       1.288934508514e+03 
       2.674858990930e-01       1.213937757473e+03 
       2.764539076010e-01       1.130692190893e+03 
       2.857339303080e-01       1.048101835705e+03 
       2.953410092148e-01       9.761818030843e+02 
       3.052919395542e-01       9.178109888790e+02 
       3.156055844677e-01       8.678995725085e+02 
       3.263032530092e-01       8.185249198620e+02 
       3.374091587054e-01       7.651467164063e+02 
       3.489509817175e-01       7.106695200438e+02 
       3.609605657343e-01       6.607859521455e+02 
       3.734747921333e-01       6.180866765401e+02 
       3.865366902904e-01       5.793103637343e+02 
       4.001968667448e-01       5.403919433536e+02 
       4.145153713076e-01       5.011513758564e+02 
       4.295641718077e-01       4.645006477074e+02 
       4.454304922144e-01       4.314082072060e+02 
       4.622214006969e-01       4.001123038304e+02 
       4.800702491654e-01       3.690899320213e+02 
       4.991459272112e-01       3.394759775458e+02 
       5.196665217302e-01       3.119856882216e+02 
       5.419201087032e-01       2.852469052402e+02 
       5.662975451962e-01       2.593307498778e+02 
       5.933463737275e-01       2.345479694100e+02 
       6.238638458458e-01       2.102310100313e+02 
       6.590669257916e-01       1.864339599602e+02 
       7.009246080454e-01       1.627251315901e+02 
       7.528593308799e-01       1.388184734469e+02 
       8.213469537518e-01       1.141881525840e+02 
       9.196980813302e-01       8.835945336025e+01 
       1.075112183810e+00       6.172613276697e+01 
       1.322697471132e+00       3.804274927382e+01 
       1.662328205042e+00       2.209795073052e+01 
       2.092692408506e+00       1.266920839346e+01 
       2.634543445090e+00       7.203355122679e+00 
       3.316693691389e+00       4.065145112934e+00 
       4.175469971226e+00       2.278608966435e+00 
       5.256605252960e+00       1.269349521866e+00 
       6.617673932723e+00       7.031378562961e-01 
       8.331157880872e+00       3.874776940400e-01 
       1.048830636590e+01       2.125092436586e-01 
       1.320399541071e+01       1.160365847516e-01 
       1.662284535976e+01       6.309885493647e-02 
       2.092692243973e+01       3.417962358813e-02 
       2.634543445002e+01       1.844618771067e-02 
       3.316693691389e+01       9.919063509357e-03 
       4.175469971226e+01       5.314607667509e-03 
       5.256605252960e+01       2.836679952945e-03 
       6.617673932723e+01       1.507670492223e-03 
