# Matter power spectrum P(k) at redshift z=0
# for k=1.04775e-05 to 66.1767 h/Mpc,
# number of wavenumbers equal to 130
#    1:k (h/Mpc)              2:P (Mpc/h)^3        
       1.047750691046e-05       5.020964811507e+01 
       1.319039970183e-05       6.270561467983e+01 
       1.660572937635e-05       7.831148881464e+01 
       2.090537469327e-05       9.780108070826e+01 
       2.631830744443e-05       1.221408204407e+02 
       3.313278603720e-05       1.525374501931e+02 
       4.171170630578e-05       1.904975993460e+02 
       5.251192703764e-05       2.379022224162e+02 
       6.610859936996e-05       2.970989228340e+02 
       8.322579568497e-05       3.710167318946e+02 
       1.047750691046e-04       4.633080766621e+02 
       1.319039970183e-04       5.785234162229e+02 
       1.660572937635e-04       7.223242666077e+02 
       2.090537469327e-04       9.017396271830e+02 
       2.631830744443e-04       1.125468123777e+03 
       3.313278603720e-04       1.404223053678e+03 
       4.171170630578e-04       1.751108028783e+03 
       5.251192703764e-04       2.181998448090e+03 
       6.610859936996e-04       2.715889983535e+03 
       8.322579568497e-04       3.375152336902e+03 
       1.047750691046e-03       4.185552173641e+03 
       1.319039970183e-03       5.175742740608e+03 
       1.660572937635e-03       6.376123040592e+03 
       2.090537469327e-03       7.815671841880e+03 
       2.631830744443e-03       9.517782918102e+03 
       3.313278603720e-03       1.149357401899e+04 
       4.171170630578e-03       1.373265820659e+04 
       5.251192703764e-03       1.619062835832e+04 
       6.610859936996e-03       1.877457580741e+04 
       8.322579568497e-03       2.132598936898e+04 
       1.047750691046e-02       2.360525561738e+04 
       1.319039970183e-02       2.528158783824e+04 
       1.660572937633e-02       2.594880521394e+04 
       2.090537453514e-02       2.520598302440e+04 
       2.631818545635e-02       2.286300903822e+04 
       3.311571692125e-02       1.927170713213e+04 
       4.113809243311e-02       1.565844839959e+04 
       4.792590854610e-02       1.357347482844e+04 
       5.284436902701e-02       1.254481656561e+04 
       5.689644391095e-02       1.190064828184e+04 
       6.051252627066e-02       1.141246448075e+04 
       6.388413457411e-02       1.098486672637e+04 
       6.711249296401e-02       1.056987289382e+04 
       7.025823437965e-02       1.014191518609e+04 
       7.336115587705e-02       9.688786591745e+03 
       7.644928796912e-02       9.207331277401e+03 
       7.954353299775e-02       8.701578800494e+03 
       8.266024078725e-02       8.180329398708e+03 
       8.581273398637e-02       7.656236566070e+03 
       8.901225918437e-02       7.143455653573e+03 
       9.226860540985e-02       6.656260307787e+03 
       9.559052048996e-02       6.207296198774e+03 
       9.898599946599e-02       5.806312971505e+03 
       1.024624891378e-01       5.459092177866e+03 
       1.060270359164e-01       5.166735545867e+03 
       1.096863943056e-01       4.925727733187e+03 
       1.134471073830e-01       4.727698583220e+03 
       1.173155669539e-01       4.560383295907e+03 
       1.212980586983e-01       4.408568702811e+03 
       1.254007961065e-01       4.255807472042e+03 
       1.296299459934e-01       4.087191712538e+03 
       1.339916477160e-01       3.892030562944e+03 
       1.384920277736e-01       3.666653655507e+03 
       1.431372111762e-01       3.415441327398e+03 
       1.479333307714e-01       3.150134887482e+03 
       1.528865355934e-01       2.887026344552e+03 
       1.580029992204e-01       2.642829098086e+03 
       1.632889290723e-01       2.430445363843e+03 
       1.687505775527e-01       2.255842944362e+03 
       1.743942559171e-01       2.116642201309e+03 
       1.802263517371e-01       2.002696414555e+03 
       1.862533508214e-01       1.899743959717e+03 
       1.924818644494e-01       1.792017452095e+03 
       1.989186627765e-01       1.667799546032e+03 
       2.055707152847e-01       1.525552766920e+03 
       2.124452391818e-01       1.374107824499e+03 
       2.195497567139e-01       1.227271819250e+03 
       2.268921624510e-01       1.096853538716e+03 
       2.344808017550e-01       9.885510234461e+02 
       2.423245618548e-01       9.003337849061e+02 
       2.504329772620e-01       8.232959767259e+02 
       2.588163516754e-01       7.467484101800e+02 
       2.674858990930e-01       6.648251844136e+02 
       2.764539076010e-01       5.789739037143e+02 
       2.857339303080e-01       4.962988537623e+02 
       2.953410092148e-01       4.241249256286e+02 
       3.052919395542e-01       3.641383068815e+02 
       3.156055844677e-01       3.126330750633e+02 
       3.263032530092e-01       2.644839035048e+02 
       3.374091587054e-01       2.171984223436e+02 
       3.489509817175e-01       1.727879629060e+02 
       3.609605657343e-01       1.343721927754e+02 
       3.734747921333e-01       1.029665084477e+02 
       3.865366902904e-01       7.680899269519e+01 
       4.001968667448e-01       5.418990146660e+01 
       4.145153713076e-01       3.516089472546e+01 
       4.295641718077e-01       2.056954987954e+01 
       4.454304922144e-01       1.034277632496e+01 
       4.622214006969e-01       3.780892475876e+00 
       4.800702491654e-01       4.733613104261e-01 
       4.991459272112e-01       2.690126313302e-01 
       5.196665217302e-01       2.684883263927e+00 
       5.419201087032e-01       7.240150978160e+00 
       5.662975451962e-01       1.337275940898e+01 
       5.933463737275e-01       2.023633919008e+01 
       6.238638458458e-01       2.702202163011e+01 
       6.590669257916e-01       3.250147774758e+01 
       7.009246080454e-01       3.525275457763e+01 
       7.528593308799e-01       3.344685704182e+01 
       8.213469537518e-01       2.533700075641e+01 
       9.196980813302e-01       1.132118213547e+01 
       1.075112183810e+00       3.862174843936e-01 
       1.322697471132e+00       2.414030232402e+00 
       1.662328205042e+00       4.680135409158e-01 
       2.092692408506e+00       2.302035215181e-01 
       2.634543445090e+00       2.124545680684e-03 
       3.316693691389e+00       6.155741124556e-04 
       4.175469971226e+00       4.803495362698e-05 
       5.256605252960e+00       8.530416688695e-06 
       6.617673932723e+00       1.315680699614e-06 
       8.331157880872e+00       3.217301537367e-09 
       1.048830636590e+01       4.719357673041e-10 
       1.320399541071e+01       3.206139860276e-10 
       1.662284535976e+01       3.593926248312e-11 
       2.092692243973e+01       2.626446334012e-10 
       2.634543445002e+01       1.138473822120e-11 
       3.316693691389e+01       9.686385007155e-12 
       4.175469971226e+01       4.510508267105e-12 
       5.256605252960e+01       7.893778039434e-12 
       6.617673932723e+01       5.950343420834e-12 
