# Matter power spectrum P(k) at redshift z=0
# for k=1.04775e-05 to 66.1767 h/Mpc,
# number of wavenumbers equal to 130
#    1:k (h/Mpc)              2:P (Mpc/h)^3        
       1.047750691046e-05       5.020964811307e+01 
       1.319039970183e-05       6.270562594769e+01 
       1.660572937635e-05       7.831147247912e+01 
       2.090537469327e-05       9.780108069296e+01 
       2.631830744443e-05       1.221408203809e+02 
       3.313278603720e-05       1.525374501932e+02 
       4.171170630578e-05       1.904975994012e+02 
       5.251192703764e-05       2.379022224243e+02 
       6.610859936996e-05       2.970989227882e+02 
       8.322579568497e-05       3.710167318942e+02 
       1.047750691046e-04       4.633080766734e+02 
       1.319039970183e-04       5.785234129322e+02 
       1.660572937635e-04       7.223242666060e+02 
       2.090537469327e-04       9.017396271759e+02 
       2.631830744443e-04       1.125468123737e+03 
       3.313278603720e-04       1.404223053656e+03 
       4.171170630578e-04       1.751108028740e+03 
       5.251192703764e-04       2.181998448033e+03 
       6.610859936996e-04       2.715889983395e+03 
       8.322579568497e-04       3.375152336741e+03 
       1.047750691046e-03       4.185552173522e+03 
       1.319039970183e-03       5.175742742538e+03 
       1.660572937635e-03       6.376123048550e+03 
       2.090537469327e-03       7.815671857057e+03 
       2.631830744443e-03       9.517783054710e+03 
       3.313278603720e-03       1.149357457416e+04 
       4.171170630578e-03       1.373265985175e+04 
       5.251192703764e-03       1.619061728097e+04 
       6.610859936996e-03       1.877461286107e+04 
       8.322579568497e-03       2.132611063542e+04 
       1.047750691046e-02       2.360555382557e+04 
       1.319039970183e-02       2.528217665106e+04 
       1.660572937633e-02       2.595021154366e+04 
       2.090537453514e-02       2.520924562579e+04 
       2.631818545635e-02       2.287013043971e+04 
       3.311571692125e-02       1.928607231192e+04 
       4.113809243311e-02       1.568404118991e+04 
       4.792590854610e-02       1.361048813928e+04 
       5.284436902701e-02       1.259115161312e+04 
       5.689644391095e-02       1.195542454163e+04 
       6.051252627066e-02       1.147538250981e+04 
       6.388413457411e-02       1.105550051748e+04 
       6.711249296401e-02       1.064871457449e+04 
       7.025823437965e-02       1.022913720341e+04 
       7.336115587705e-02       9.784402568598e+03 
       7.644928796912e-02       9.311498942135e+03 
       7.954353299775e-02       8.814331302612e+03 
       8.266024078725e-02       8.301924121363e+03 
       8.581273398637e-02       7.786705896309e+03 
       8.901225918437e-02       7.282935132837e+03 
       9.226860540985e-02       6.804931757625e+03 
       9.559052048996e-02       6.365311690551e+03 
       9.898599946599e-02       5.974048643560e+03 
       1.024624891378e-01       5.636981139992e+03 
       1.060270359164e-01       5.355415170754e+03 
       1.096863943056e-01       5.125846730381e+03 
       1.134471073830e-01       4.940048785439e+03 
       1.173155669539e-01       4.785705703556e+03 
       1.212980586983e-01       4.647442744879e+03 
       1.254007961065e-01       4.508522749135e+03 
       1.296299459934e-01       4.353975158542e+03 
       1.339916477160e-01       4.172622546151e+03 
       1.384920277736e-01       3.960502346724e+03 
       1.431372111762e-01       3.721975264899e+03 
       1.479333307714e-01       3.468825593408e+03 
       1.528865355934e-01       3.217545430733e+03 
       1.580029992204e-01       2.985457575323e+03 
       1.632889290723e-01       2.786098562186e+03 
       1.687505775527e-01       2.625905819982e+03 
       1.743942559171e-01       2.502805837533e+03 
       1.802263517371e-01       2.406290587235e+03 
       1.862533508214e-01       2.321157110067e+03 
       1.924818644494e-01       2.230380460605e+03 
       1.989186627765e-01       2.120947906633e+03 
       2.055707152847e-01       1.990743297361e+03 
       2.124452391818e-01       1.848965432949e+03 
       2.195497567139e-01       1.710733749982e+03 
       2.268921624510e-01       1.589474922662e+03 
       2.344808017550e-01       1.492087310841e+03 
       2.423245618548e-01       1.416644824865e+03 
       2.504329772620e-01       1.352695363779e+03 
       2.588163516754e-01       1.287060843929e+03 
       2.674858990930e-01       1.211963593037e+03 
       2.764539076010e-01       1.128620893028e+03 
       2.857339303080e-01       1.045927002832e+03 
       2.953410092148e-01       9.739069752407e+02 
       3.052919395542e-01       9.154152750320e+02 
       3.156055844677e-01       8.653734289601e+02 
       3.263032530092e-01       8.158626134299e+02 
       3.374091587054e-01       7.623459703750e+02 
       3.489509817175e-01       7.077379464177e+02 
       3.609605657343e-01       6.577085669410e+02 
       3.734747921333e-01       6.148529161942e+02 
       3.865366902904e-01       5.759069989560e+02 
       4.001968667448e-01       5.368101704932e+02 
       4.145153713076e-01       4.973932943197e+02 
       4.295641718077e-01       4.605516580154e+02 
       4.454304922144e-01       4.272551246835e+02 
       4.622214006969e-01       3.957402715766e+02 
       4.800702491654e-01       3.644888653295e+02 
       4.991459272112e-01       3.346326982036e+02 
       5.196665217302e-01       3.068736391355e+02 
       5.419201087032e-01       2.798480730117e+02 
       5.662975451962e-01       2.536192309170e+02 
       5.933463737275e-01       2.284876087732e+02 
       6.238638458458e-01       2.037831217276e+02 
       6.590669257916e-01       1.795415843415e+02 
       7.009246080454e-01       1.553155837402e+02 
       7.528593308799e-01       1.307821975499e+02 
       8.213469537518e-01       1.053600831292e+02 
       9.196980813302e-01       7.847514120226e+01 
       1.075112183810e+00       5.041633867778e+01 
       1.322697471132e+00       2.520377041676e+01 
       1.662328205042e+00       8.808817972981e+00 
       2.092692408506e+00       1.251835112246e+00 
       2.634543445090e+00       1.614475450563e-01 
       3.316693691389e+00       1.674033775908e+00 
       4.175469971226e+00       1.484164101740e+00 
       5.256605252960e+00       8.472530327650e-02 
       6.617673932723e+00       2.413534064776e-01 
       8.331157880872e+00       4.268408916668e-02 
       1.048830636590e+01       4.289732981292e-02 
       1.320399541071e+01       3.883373918227e-03 
       1.662284535976e+01       3.513450568191e-04 
       2.092692243973e+01       1.263029544389e-04 
       2.634543445002e+01       5.879823288456e-06 
       3.316693691389e+01       1.475092186904e-07 
       4.175469971226e+01       1.995467467545e-10 
       5.256605252960e+01       5.388175138965e-12 
       6.617673932723e+01       2.598293207463e-13 
