# Matter power spectrum P(k) at redshift z=99
# for k=1.04775e-05 to 66.1767 h/Mpc,
# number of wavenumbers equal to 130
#    1:k (h/Mpc)              2:P (Mpc/h)^3        
       1.047750691046e-05       7.261927680861e-03 
       1.319039970183e-05       9.069258201848e-03 
       1.660572937635e-05       1.132639106725e-02 
       2.090537469327e-05       1.414527123399e-02 
       2.631830744443e-05       1.766569584058e-02 
       3.313278603720e-05       2.206225515942e-02 
       4.171170630578e-05       2.755297766277e-02 
       5.251192703764e-05       3.441013522947e-02 
       6.610859936996e-05       4.297372172777e-02 
       8.322579568497e-05       5.366826852944e-02 
       1.047750691046e-04       6.702379872774e-02 
       1.319039970183e-04       8.370193441286e-02 
       1.660572937635e-04       1.045283355384e-01 
       2.090537469327e-04       1.305329134104e-01 
       2.631830744443e-04       1.629994506605e-01 
       3.313278603720e-04       2.035264004601e-01 
       4.171170630578e-04       2.541004744243e-01 
       5.251192703764e-04       3.171839528557e-01 
       6.610859936996e-04       3.958147256513e-01 
       8.322579568497e-04       4.937136006270e-01 
       1.047750691046e-03       6.153841636042e-01 
       1.319039970183e-03       7.661720592741e-01 
       1.660572937635e-03       9.522588016468e-01 
       2.090537469327e-03       1.180312991699e+00 
       2.631830744443e-03       1.456802684686e+00 
       3.313278603720e-03       1.786503854046e+00 
       4.171170630578e-03       2.169896192613e+00 
       5.251192703764e-03       2.599430630723e+00 
       6.610859936996e-03       3.055668727368e+00 
       8.322579568497e-03       3.505725598698e+00 
       1.047750691046e-02       3.905491245496e+00 
       1.319039970183e-02       4.200915338073e+00 
       1.660572937633e-02       4.325062912581e+00 
       2.090537453514e-02       4.210203260995e+00 
       2.631818545635e-02       3.825152813250e+00 
       3.311571692125e-02       3.229064823965e+00 
       4.113809243311e-02       2.627724357770e+00 
       4.792590854610e-02       2.280796683571e+00 
       5.284436902701e-02       2.110088855432e+00 
       5.689644391095e-02       2.003537994389e+00 
       6.051252627066e-02       1.923056775780e+00 
       6.388413457411e-02       1.852734998981e+00 
       6.711249296401e-02       1.784563829831e+00 
       7.025823437965e-02       1.714278151524e+00 
       7.336115587705e-02       1.639814890819e+00 
       7.644928796912e-02       1.560663575630e+00 
       7.954353299775e-02       1.477457272024e+00 
       8.266024078725e-02       1.391699570034e+00 
       8.581273398637e-02       1.305459184980e+00 
       8.901225918437e-02       1.221127837168e+00 
       9.226860540985e-02       1.141079911968e+00 
       9.559052048996e-02       1.067452705216e+00 
       9.898599946599e-02       1.001890429889e+00 
       1.024624891378e-01       9.453825076487e-01 
       1.060270359164e-01       8.981500156416e-01 
       1.096863943056e-01       8.596131955082e-01 
       1.134471073830e-01       8.284066857311e-01 
       1.173155669539e-01       8.024676987724e-01 
       1.212980586983e-01       7.792297111145e-01 
       1.254007961065e-01       7.559174684365e-01 
       1.296299459934e-01       7.299828733658e-01 
       1.339916477160e-01       6.995924068073e-01 
       1.384920277736e-01       6.640779025142e-01 
       1.431372111762e-01       6.241468322904e-01 
       1.479333307714e-01       5.817636819806e-01 
       1.528865355934e-01       5.396927700102e-01 
       1.580029992204e-01       5.008150825820e-01 
       1.632889290723e-01       4.673994555359e-01 
       1.687505775527e-01       4.405341813130e-01 
       1.743942559171e-01       4.198660701421e-01 
       1.802263517371e-01       4.036612362410e-01 
       1.862533508214e-01       3.893594616907e-01 
       1.924818644494e-01       3.741346827748e-01 
       1.989186627765e-01       3.558021365810e-01 
       2.055707152847e-01       3.339989683848e-01 
       2.124452391818e-01       3.102648061407e-01 
       2.195497567139e-01       2.871236038022e-01 
       2.268921624510e-01       2.668089827326e-01 
       2.344808017550e-01       2.504837730088e-01 
       2.423245618548e-01       2.378340032550e-01 
       2.504329772620e-01       2.271122662126e-01 
       2.588163516754e-01       2.161172489614e-01 
       2.674858990930e-01       2.035450594156e-01 
       2.764539076010e-01       1.895979362912e-01 
       2.857339303080e-01       1.757576231034e-01 
       2.953410092148e-01       1.636995666191e-01 
       3.052919395542e-01       1.539063433175e-01 
       3.156055844677e-01       1.455312013766e-01 
       3.263032530092e-01       1.372501793487e-01 
       3.374091587054e-01       1.283017298164e-01 
       3.489509817175e-01       1.191716982313e-01 
       3.609605657343e-01       1.108073741886e-01 
       3.734747921333e-01       1.036454085784e-01 
       3.865366902904e-01       9.714150281588e-02 
       4.001968667448e-01       9.061566436171e-02 
       4.145153713076e-01       8.403715119719e-02 
       4.295641718077e-01       7.789141173678e-02 
       4.454304922144e-01       7.234176302954e-02 
       4.622214006969e-01       6.709383576691e-02 
       4.800702491654e-01       6.189196721359e-02 
       4.991459272112e-01       5.692654360950e-02 
       5.196665217302e-01       5.231618157990e-02 
       5.419201087032e-01       4.783278209881e-02 
       5.662975451962e-01       4.348694690320e-02 
       5.933463737275e-01       3.933117368964e-02 
       6.238638458458e-01       3.525346784091e-02 
       6.590669257916e-01       3.126289999645e-02 
       7.009246080454e-01       2.728742667046e-02 
       7.528593308799e-01       2.327849989177e-02 
       8.213469537518e-01       1.914824775564e-02 
       9.196980813302e-01       1.481704179030e-02 
       1.075112183810e+00       1.035095511221e-02 
       1.322697471132e+00       6.379483728255e-03 
       1.662328205042e+00       3.705671259541e-03 
       2.092692408506e+00       2.124539323969e-03 
       2.634543445090e+00       1.207967669958e-03 
       3.316693691389e+00       6.817128751938e-04 
       4.175469971226e+00       3.821217357402e-04 
       5.256605252960e+00       2.128764671928e-04 
       6.617673932723e+00       1.179237248120e-04 
       8.331157880872e+00       6.498846001582e-05 
       1.048830636590e+01       3.564590249599e-05 
       1.320399541071e+01       1.946658285149e-05 
       1.662284535976e+01       1.058806872622e-05 
       2.092692243973e+01       5.737503660610e-06 
       2.634543445002e+01       3.098239508523e-06 
       3.316693691389e+01       1.667604942843e-06 
       4.175469971226e+01       8.948036239277e-07 
       5.256605252960e+01       4.787233002821e-07 
       6.617673932723e+01       2.553729156321e-07 
