# Matter power spectrum P(k) at redshift z=99
# for k=1.04775e-05 to 66.1767 h/Mpc,
# number of wavenumbers equal to 130
#    1:k (h/Mpc)              2:P (Mpc/h)^3        
       1.047750691046e-05       7.261927680862e-03 
       1.319039970183e-05       9.069258201849e-03 
       1.660572937635e-05       1.132639106725e-02 
       2.090537469327e-05       1.414527123399e-02 
       2.631830744443e-05       1.766569584058e-02 
       3.313278603720e-05       2.206225515942e-02 
       4.171170630578e-05       2.755297766277e-02 
       5.251192703764e-05       3.441013522947e-02 
       6.610859936996e-05       4.297372172778e-02 
       8.322579568497e-05       5.366826852944e-02 
       1.047750691046e-04       6.702379872774e-02 
       1.319039970183e-04       8.370193441285e-02 
       1.660572937635e-04       1.045283355384e-01 
       2.090537469327e-04       1.305329134104e-01 
       2.631830744443e-04       1.629994506605e-01 
       3.313278603720e-04       2.035264004601e-01 
       4.171170630578e-04       2.541004744243e-01 
       5.251192703764e-04       3.171839528557e-01 
       6.610859936996e-04       3.958147256513e-01 
       8.322579568497e-04       4.937136006292e-01 
       1.047750691046e-03       6.153841636042e-01 
       1.319039970183e-03       7.661720592334e-01 
       1.660572937635e-03       9.522588016481e-01 
       2.090537469327e-03       1.180312991698e+00 
       2.631830744443e-03       1.456802684686e+00 
       3.313278603720e-03       1.786503854037e+00 
       4.171170630578e-03       2.169896193092e+00 
       5.251192703764e-03       2.599430630721e+00 
       6.610859936996e-03       3.055668696852e+00 
       8.322579568497e-03       3.505725598579e+00 
       1.047750691046e-02       3.905491776997e+00 
       1.319039970183e-02       4.200915349645e+00 
       1.660572937633e-02       4.325064234386e+00 
       2.090537453514e-02       4.210202279419e+00 
       2.631818545635e-02       3.825154740306e+00 
       3.311571692125e-02       3.229063169832e+00 
       4.113809243311e-02       2.627721621612e+00 
       4.792590854610e-02       2.280795556527e+00 
       5.284436902701e-02       2.110092467667e+00 
       5.689644391095e-02       2.003538359472e+00 
       6.051252627066e-02       1.923060556615e+00 
       6.388413457411e-02       1.852733818412e+00 
       6.711249296401e-02       1.784563750893e+00 
       7.025823437965e-02       1.714277824788e+00 
       7.336115587705e-02       1.639814219428e+00 
       7.644928796912e-02       1.560661584390e+00 
       7.954353299775e-02       1.477458407367e+00 
       8.266024078725e-02       1.391696816559e+00 
       8.581273398637e-02       1.305463249869e+00 
       8.901225918437e-02       1.221127321450e+00 
       9.226860540985e-02       1.141079167374e+00 
       9.559052048996e-02       1.067451221569e+00 
       9.898599946599e-02       1.001892402598e+00 
       1.024624891378e-01       9.453846274742e-01 
       1.060270359164e-01       8.981497107628e-01 
       1.096863943056e-01       8.596138544257e-01 
       1.134471073830e-01       8.284029670979e-01 
       1.173155669539e-01       8.024672258809e-01 
       1.212980586983e-01       7.792294482483e-01 
       1.254007961065e-01       7.559178409118e-01 
       1.296299459934e-01       7.299835026301e-01 
       1.339916477160e-01       6.995938164144e-01 
       1.384920277736e-01       6.640774950257e-01 
       1.431372111762e-01       6.241447098942e-01 
       1.479333307714e-01       5.817632291779e-01 
       1.528865355934e-01       5.396943344032e-01 
       1.580029992204e-01       5.008132805382e-01 
       1.632889290723e-01       4.673979808466e-01 
       1.687505775527e-01       4.405343963924e-01 
       1.743942559171e-01       4.198662406767e-01 
       1.802263517371e-01       4.036607528901e-01 
       1.862533508214e-01       3.893594437399e-01 
       1.924818644494e-01       3.741357568026e-01 
       1.989186627765e-01       3.558023122328e-01 
       2.055707152847e-01       3.339984849117e-01 
       2.124452391818e-01       3.102664896366e-01 
       2.195497567139e-01       2.871227189746e-01 
       2.268921624510e-01       2.668084890599e-01 
       2.344808017550e-01       2.504834823885e-01 
       2.423245618548e-01       2.378336769060e-01 
       2.504329772620e-01       2.271121963436e-01 
       2.588163516754e-01       2.161176935589e-01 
       2.674858990930e-01       2.035454512187e-01 
       2.764539076010e-01       1.895975564465e-01 
       2.857339303080e-01       1.757574843137e-01 
       2.953410092148e-01       1.637001461609e-01 
       3.052919395542e-01       1.539062602967e-01 
       3.156055844677e-01       1.455313074774e-01 
       3.263032530092e-01       1.372504992057e-01 
       3.374091587054e-01       1.283022518977e-01 
       3.489509817175e-01       1.191713043754e-01 
       3.609605657343e-01       1.108072343428e-01 
       3.734747921333e-01       1.036451831825e-01 
       3.865366902904e-01       9.714147178584e-02 
       4.001968667448e-01       9.061577893321e-02 
       4.145153713076e-01       8.403694139634e-02 
       4.295641718077e-01       7.789133305384e-02 
       4.454304922144e-01       7.234164413130e-02 
       4.622214006969e-01       6.709367254113e-02 
       4.800702491654e-01       6.189203115685e-02 
       4.991459272112e-01       5.692619911967e-02 
       5.196665217302e-01       5.231621607018e-02 
       5.419201087032e-01       4.783257924300e-02 
       5.662975451962e-01       4.348699709962e-02 
       5.933463737275e-01       3.933115101112e-02 
       6.238638458458e-01       3.525333618890e-02 
       6.590669257916e-01       3.126299404544e-02 
       7.009246080454e-01       2.728731776194e-02 
       7.528593308799e-01       2.327843543511e-02 
       8.213469537518e-01       1.914820903282e-02 
       9.196980813302e-01       1.481704345959e-02 
       1.075112183810e+00       1.035089232564e-02 
       1.322697471132e+00       6.379463488371e-03 
       1.662328205042e+00       3.705667052760e-03 
       2.092692408506e+00       2.124530661262e-03 
       2.634543445090e+00       1.207957783676e-03 
       3.316693691389e+00       6.816958320254e-04 
       4.175469971226e+00       3.820981506895e-04 
       5.256605252960e+00       2.128417316014e-04 
       6.617673932723e+00       1.178819045789e-04 
       8.331157880872e+00       6.493486102112e-05 
       1.048830636590e+01       3.557860539245e-05 
       1.320399541071e+01       1.938163422120e-05 
       1.662284535976e+01       1.048177363001e-05 
       2.092692243973e+01       5.606263037078e-06 
       2.634543445002e+01       2.939521937992e-06 
       3.316693691389e+01       1.481508725616e-06 
       4.175469971226e+01       6.872009137163e-07 
       5.256605252960e+01       2.652313089243e-07 
       6.617673932723e+01       6.413388153481e-08 
