# Matter power spectrum P(k) at redshift z=0
# for k=1.04775e-05 to 66.1767 h/Mpc,
# number of wavenumbers equal to 130
#    1:k (h/Mpc)              2:P (Mpc/h)^3        
       1.047750691046e-05       5.020964811308e+01 
       1.319039970183e-05       6.270562594777e+01 
       1.660572937635e-05       7.831147247912e+01 
       2.090537469327e-05       9.780108069295e+01 
       2.631830744443e-05       1.221408203809e+02 
       3.313278603720e-05       1.525374501932e+02 
       4.171170630578e-05       1.904975994010e+02 
       5.251192703764e-05       2.379022224248e+02 
       6.610859936996e-05       2.970989227883e+02 
       8.322579568497e-05       3.710167318945e+02 
       1.047750691046e-04       4.633080766740e+02 
       1.319039970183e-04       5.785234129336e+02 
       1.660572937635e-04       7.223242666085e+02 
       2.090537469327e-04       9.017396271809e+02 
       2.631830744443e-04       1.125468123747e+03 
       3.313278603720e-04       1.404223053675e+03 
       4.171170630578e-04       1.751108028779e+03 
       5.251192703764e-04       2.181998448110e+03 
       6.610859936996e-04       2.715889983546e+03 
       8.322579568497e-04       3.375152337045e+03 
       1.047750691046e-03       4.185552174136e+03 
       1.319039970183e-03       5.175742738379e+03 
       1.660572937635e-03       6.376123051043e+03 
       2.090537469327e-03       7.815671857611e+03 
       2.631830744443e-03       9.517783065772e+03 
       3.313278603720e-03       1.149357459661e+04 
       4.171170630578e-03       1.373266012737e+04 
       5.251192703764e-03       1.619063237381e+04 
       6.610859936996e-03       1.877460513137e+04 
       8.322579568497e-03       2.132609788433e+04 
       1.047750691046e-02       2.360546394744e+04 
       1.319039970183e-02       2.528228273141e+04 
       1.660572937633e-02       2.595015929747e+04 
       2.090537453514e-02       2.520927361873e+04 
       2.631818545635e-02       2.287015105616e+04 
       3.311571692125e-02       1.928608383448e+04 
       4.113809243311e-02       1.568411672312e+04 
       4.792590854610e-02       1.361054102513e+04 
       5.284436902701e-02       1.259121367425e+04 
       5.689644391095e-02       1.195550923003e+04 
       6.051252627066e-02       1.147547689533e+04 
       6.388413457411e-02       1.105561141602e+04 
       6.711249296401e-02       1.064883666261e+04 
       7.025823437965e-02       1.022928470602e+04 
       7.336115587705e-02       9.784536389013e+03 
       7.644928796912e-02       9.311658648534e+03 
       7.954353299775e-02       8.814468154538e+03 
       8.266024078725e-02       8.301906794216e+03 
       8.581273398637e-02       7.786927621939e+03 
       8.901225918437e-02       7.283211932104e+03 
       9.226860540985e-02       6.805163118071e+03 
       9.559052048996e-02       6.365633496303e+03 
       9.898599946599e-02       5.974374901038e+03 
       1.024624891378e-01       5.637332072644e+03 
       1.060270359164e-01       5.355781261034e+03 
       1.096863943056e-01       5.126224254040e+03 
       1.134471073830e-01       4.940464280346e+03 
       1.173155669539e-01       4.786139754486e+03 
       1.212980586983e-01       4.647918783973e+03 
       1.254007961065e-01       4.509022646965e+03 
       1.296299459934e-01       4.354533487909e+03 
       1.339916477160e-01       4.173121459969e+03 
       1.384920277736e-01       3.961151892910e+03 
       1.431372111762e-01       3.722562574436e+03 
       1.479333307714e-01       3.469523990565e+03 
       1.528865355934e-01       3.218290614252e+03 
       1.580029992204e-01       2.986226991839e+03 
       1.632889290723e-01       2.786926012964e+03 
       1.687505775527e-01       2.626784763791e+03 
       1.743942559171e-01       2.503728792670e+03 
       1.802263517371e-01       2.407278238449e+03 
       1.862533508214e-01       2.322230412645e+03 
       1.924818644494e-01       2.231537662916e+03 
       1.989186627765e-01       2.122180558686e+03 
       2.055707152847e-01       1.992011842631e+03 
       2.124452391818e-01       1.850270558706e+03 
       2.195497567139e-01       1.712129245685e+03 
       2.268921624510e-01       1.590939827392e+03 
       2.344808017550e-01       1.493626889652e+03 
       2.423245618548e-01       1.418270983900e+03 
       2.504329772620e-01       1.354407394373e+03 
       2.588163516754e-01       1.288894874342e+03 
       2.674858990930e-01       1.213866801649e+03 
       2.764539076010e-01       1.130643142891e+03 
       2.857339303080e-01       1.048047919468e+03 
       2.953410092148e-01       9.761366452307e+02 
       3.052919395542e-01       9.177606244589e+02 
       3.156055844677e-01       8.678484757598e+02 
       3.263032530092e-01       8.184811921205e+02 
       3.374091587054e-01       7.651045895314e+02 
       3.489509817175e-01       7.106134723922e+02 
       3.609605657343e-01       6.607317144255e+02 
       3.734747921333e-01       6.180320738373e+02 
       3.865366902904e-01       5.792518509050e+02 
       4.001968667448e-01       5.403324167869e+02 
       4.145153713076e-01       5.010898860900e+02 
       4.295641718077e-01       4.644415508774e+02 
       4.454304922144e-01       4.313459263013e+02 
       4.622214006969e-01       4.000508808587e+02 
       4.800702491654e-01       3.690238110864e+02 
       4.991459272112e-01       3.394103765912e+02 
       5.196665217302e-01       3.119178049210e+02 
       5.419201087032e-01       2.851766369432e+02 
       5.662975451962e-01       2.592592846805e+02 
       5.933463737275e-01       2.344738063447e+02 
       6.238638458458e-01       2.101558511412e+02 
       6.590669257916e-01       1.863558010049e+02 
       7.009246080454e-01       1.626442671312e+02 
       7.528593308799e-01       1.387332830106e+02 
       8.213469537518e-01       1.140976024041e+02 
       9.196980813302e-01       8.825930113839e+01 
       1.075112183810e+00       6.161291524141e+01 
       1.322697471132e+00       3.790837220458e+01 
       1.662328205042e+00       2.193412774258e+01 
       2.092692408506e+00       1.246880560853e+01 
       2.634543445090e+00       6.959270540501e+00 
       3.316693691389e+00       3.771767676447e+00 
       4.175469971226e+00       1.935486121047e+00 
       5.256605252960e+00       8.884198844586e-01 
       6.617673932723e+00       3.177251248404e-01 
       8.331157880872e+00       5.659082729184e-02 
       1.048830636590e+01       6.851821978709e-04 
       1.320399541071e+01       3.565362093700e-02 
       1.662284535976e+01       4.019523982690e-02 
       2.092692243973e+01       5.514183951217e-03 
       2.634543445002e+01       2.395071693191e-03 
       3.316693691389e+01       1.101961389429e-03 
       4.175469971226e+01       1.757383802425e-04 
       5.256605252960e+01       3.039166762638e-06 
       6.617673932723e+01       1.106201999685e-06 
