# Matter power spectrum P(k) at redshift z=0
# for k=1.04775e-05 to 66.1767 h/Mpc,
# number of wavenumbers equal to 130
#    1:k (h/Mpc)              2:P (Mpc/h)^3        
       1.047750691046e-05       5.020964811306e+01 
       1.319039970183e-05       6.270562594779e+01 
       1.660572937635e-05       7.831147247912e+01 
       2.090537469327e-05       9.780108069294e+01 
       2.631830744443e-05       1.221408203809e+02 
       3.313278603720e-05       1.525374501932e+02 
       4.171170630578e-05       1.904975994010e+02 
       5.251192703764e-05       2.379022224249e+02 
       6.610859936996e-05       2.970989227881e+02 
       8.322579568497e-05       3.710167318946e+02 
       1.047750691046e-04       4.633080766742e+02 
       1.319039970183e-04       5.785234129334e+02 
       1.660572937635e-04       7.223242666092e+02 
       2.090537469327e-04       9.017396271824e+02 
       2.631830744443e-04       1.125468123750e+03 
       3.313278603720e-04       1.404223053681e+03 
       4.171170630578e-04       1.751108028790e+03 
       5.251192703764e-04       2.181998448133e+03 
       6.610859936996e-04       2.715889983592e+03 
       8.322579568497e-04       3.375152337134e+03 
       1.047750691046e-03       4.185552174309e+03 
       1.319039970183e-03       5.175742743743e+03 
       1.660572937635e-03       6.376123051777e+03 
       2.090537469327e-03       7.815671868273e+03 
       2.631830744443e-03       9.517783069112e+03 
       3.313278603720e-03       1.149357460342e+04 
       4.171170630578e-03       1.373266009625e+04 
       5.251192703764e-03       1.619063614557e+04 
       6.610859936996e-03       1.877460418251e+04 
       8.322579568497e-03       2.132607231848e+04 
       1.047750691046e-02       2.360548899508e+04 
       1.319039970183e-02       2.528218645360e+04 
       1.660572937633e-02       2.595027849418e+04 
       2.090537453514e-02       2.520936890437e+04 
       2.631818545635e-02       2.287033840997e+04 
       3.311571692125e-02       1.928628780694e+04 
       4.113809243311e-02       1.568428055680e+04 
       4.792590854610e-02       1.361062792207e+04 
       5.284436902701e-02       1.259131447330e+04 
       5.689644391095e-02       1.195555073967e+04 
       6.051252627066e-02       1.147548890576e+04 
       6.388413457411e-02       1.105591078141e+04 
       6.711249296401e-02       1.064902627680e+04 
       7.025823437965e-02       1.022929184587e+04 
       7.336115587705e-02       9.784515851696e+03 
       7.644928796912e-02       9.311669006683e+03 
       7.954353299775e-02       8.814530545846e+03 
       8.266024078725e-02       8.302108657905e+03 
       8.581273398637e-02       7.786953691232e+03 
       8.901225918437e-02       7.283198843013e+03 
       9.226860540985e-02       6.805166380619e+03 
       9.559052048996e-02       6.365633566215e+03 
       9.898599946599e-02       5.974406611830e+03 
       1.024624891378e-01       5.637311230807e+03 
       1.060270359164e-01       5.355770805990e+03 
       1.096863943056e-01       5.126238890807e+03 
       1.134471073830e-01       4.940473784335e+03 
       1.173155669539e-01       4.786160758663e+03 
       1.212980586983e-01       4.647932481885e+03 
       1.254007961065e-01       4.509152748192e+03 
       1.296299459934e-01       4.354538464738e+03 
       1.339916477160e-01       4.173203857816e+03 
       1.384920277736e-01       3.961159541315e+03 
       1.431372111762e-01       3.722689032861e+03 
       1.479333307714e-01       3.469524309879e+03 
       1.528865355934e-01       3.218342785717e+03 
       1.580029992204e-01       2.986292616007e+03 
       1.632889290723e-01       2.786969547620e+03 
       1.687505775527e-01       2.626829226765e+03 
       1.743942559171e-01       2.503751297620e+03 
       1.802263517371e-01       2.407342855374e+03 
       1.862533508214e-01       2.322257057123e+03 
       1.924818644494e-01       2.231548515096e+03 
       1.989186627765e-01       2.122192823446e+03 
       2.055707152847e-01       1.992022211107e+03 
       2.124452391818e-01       1.850320493997e+03 
       2.195497567139e-01       1.712185394521e+03 
       2.268921624510e-01       1.590986404355e+03 
       2.344808017550e-01       1.493669581460e+03 
       2.423245618548e-01       1.418309678797e+03 
       2.504329772620e-01       1.354466282462e+03 
       2.588163516754e-01       1.288934420550e+03 
       2.674858990930e-01       1.213932707322e+03 
       2.764539076010e-01       1.130691641878e+03 
       2.857339303080e-01       1.048099528499e+03 
       2.953410092148e-01       9.761830350631e+02 
       3.052919395542e-01       9.178085938534e+02 
       3.156055844677e-01       8.678975446747e+02 
       3.263032530092e-01       8.185270818806e+02 
       3.374091587054e-01       7.651471382150e+02 
       3.489509817175e-01       7.106695241167e+02 
       3.609605657343e-01       6.607854009058e+02 
       3.734747921333e-01       6.180829140371e+02 
       3.865366902904e-01       5.793101583593e+02 
       4.001968667448e-01       5.403893847453e+02 
       4.145153713076e-01       5.011524612886e+02 
       4.295641718077e-01       4.644987841932e+02 
       4.454304922144e-01       4.314076026038e+02 
       4.622214006969e-01       4.001125742711e+02 
       4.800702491654e-01       3.690896717388e+02 
       4.991459272112e-01       3.394766705260e+02 
       5.196665217302e-01       3.119851861919e+02 
       5.419201087032e-01       2.852459413896e+02 
       5.662975451962e-01       2.593308732470e+02 
       5.933463737275e-01       2.345475019676e+02 
       6.238638458458e-01       2.102308180329e+02 
       6.590669257916e-01       1.864335615028e+02 
       7.009246080454e-01       1.627250602956e+02 
       7.528593308799e-01       1.388188283098e+02 
       8.213469537518e-01       1.141884720630e+02 
       9.196980813302e-01       8.835935404816e+01 
       1.075112183810e+00       6.172593908304e+01 
       1.322697471132e+00       3.804273041858e+01 
       1.662328205042e+00       2.209785179785e+01 
       2.092692408506e+00       1.266916008118e+01 
       2.634543445090e+00       7.203308502925e+00 
       3.316693691389e+00       4.065131450089e+00 
       4.175469971226e+00       2.278599136026e+00 
       5.256605252960e+00       1.269350614401e+00 
       6.617673932723e+00       7.031357158075e-01 
       8.331157880872e+00       3.874750546351e-01 
       1.048830636590e+01       2.125090121531e-01 
       1.320399541071e+01       1.160355425723e-01 
       1.662284535976e+01       6.309856538583e-02 
       2.092692243973e+01       3.417945606072e-02 
       2.634543445002e+01       1.844596531116e-02 
       3.316693691389e+01       9.918976699010e-03 
       4.175469971226e+01       5.314478313527e-03 
       5.256605252960e+01       2.836552085824e-03 
       6.617673932723e+01       1.507555660279e-03 
