# Matter power spectrum P(k) at redshift z=99
# for k=1.04775e-05 to 66.1767 h/Mpc,
# number of wavenumbers equal to 130
#    1:k (h/Mpc)              2:P (Mpc/h)^3        
       1.047750691046e-05       7.261927686807e-03 
       1.319039970183e-05       9.069258209274e-03 
       1.660572937635e-05       1.132639107653e-02 
       2.090537469327e-05       1.414527124557e-02 
       2.631830744443e-05       1.766569585504e-02 
       3.313278603720e-05       2.206225517748e-02 
       4.171170630578e-05       2.755297768531e-02 
       5.251192703764e-05       3.441013525763e-02 
       6.610859936996e-05       4.297372176290e-02 
       8.322579568497e-05       5.366826857323e-02 
       1.047750691046e-04       6.702379878237e-02 
       1.319039970183e-04       8.370193448089e-02 
       1.660572937635e-04       1.045283356230e-01 
       2.090537469327e-04       1.305329135153e-01 
       2.631830744443e-04       1.629994507902e-01 
       3.313278603720e-04       2.035264006191e-01 
       4.171170630578e-04       2.541004746171e-01 
       5.251192703764e-04       3.171839530851e-01 
       6.610859936996e-04       3.958147259160e-01 
       8.322579568497e-04       4.937136009144e-01 
       1.047750691046e-03       6.153841638753e-01 
       1.319039970183e-03       7.661720593936e-01 
       1.660572937635e-03       9.522588014329e-01 
       2.090537469327e-03       1.180312990551e+00 
       2.631830744443e-03       1.456802681455e+00 
       3.313278603720e-03       1.786503846402e+00 
       4.171170630578e-03       2.169896181077e+00 
       5.251192703764e-03       2.599430595754e+00 
       6.610859936996e-03       3.055668627750e+00 
       8.322579568497e-03       3.505725171205e+00 
       1.047750691046e-02       3.905491246637e+00 
       1.319039970183e-02       4.200916345611e+00 
       1.660572937633e-02       4.325058861652e+00 
       2.090537453514e-02       4.210194866697e+00 
       2.631818545635e-02       3.825131142188e+00 
       3.311571692125e-02       3.229011917148e+00 
       4.113809243311e-02       2.627641308390e+00 
       4.792590854610e-02       2.280670816870e+00 
       5.284436902701e-02       2.109931848761e+00 
       5.689644391095e-02       2.003354074788e+00 
       6.051252627066e-02       1.922842342836e+00 
       6.388413457411e-02       1.852487428248e+00 
       6.711249296401e-02       1.784285233186e+00 
       7.025823437965e-02       1.713960607253e+00 
       7.336115587705e-02       1.639461187475e+00 
       7.644928796912e-02       1.560275107215e+00 
       7.954353299775e-02       1.477030863655e+00 
       8.266024078725e-02       1.391233889065e+00 
       8.581273398637e-02       1.304961071165e+00 
       8.901225918437e-02       1.220585332292e+00 
       9.226860540985e-02       1.140498573316e+00 
       9.559052048996e-02       1.066831477114e+00 
       9.898599946599e-02       1.001225515538e+00 
       1.024624891378e-01       9.446748822357e-01 
       1.060270359164e-01       8.973931717700e-01 
       1.096863943056e-01       8.588072184646e-01 
       1.134471073830e-01       8.275419742514e-01 
       1.173155669539e-01       8.015398384008e-01 
       1.212980586983e-01       7.782344659949e-01 
       1.254007961065e-01       7.548483346981e-01 
       1.296299459934e-01       7.288356606472e-01 
       1.339916477160e-01       6.983633542098e-01 
       1.384920277736e-01       6.627673258475e-01 
       1.431372111762e-01       6.227519205570e-01 
       1.479333307714e-01       5.802866156284e-01 
       1.528865355934e-01       5.381365467795e-01 
       1.580029992204e-01       4.991724126279e-01 
       1.632889290723e-01       4.656687543345e-01 
       1.687505775527e-01       4.387067059819e-01 
       1.743942559171e-01       4.179273627946e-01 
       1.802263517371e-01       4.015984879288e-01 
       1.862533508214e-01       3.871624428233e-01 
       1.924818644494e-01       3.717939277079e-01 
       1.989186627765e-01       3.533192861708e-01 
       2.055707152847e-01       3.313780214608e-01 
       2.124452391818e-01       3.075121940858e-01 
       2.195497567139e-01       2.842354339046e-01 
       2.268921624510e-01       2.637797808914e-01 
       2.344808017550e-01       2.472979471955e-01 
       2.423245618548e-01       2.344693381961e-01 
       2.504329772620e-01       2.235514338220e-01 
       2.588163516754e-01       2.123542035506e-01 
       2.674858990930e-01       1.995844962376e-01 
       2.764539076010e-01       1.854476813463e-01 
       2.857339303080e-01       1.714204781233e-01 
       2.953410092148e-01       1.591628047705e-01 
       3.052919395542e-01       1.491443248405e-01 
       3.156055844677e-01       1.405224657415e-01 
       3.263032530092e-01       1.319883864935e-01 
       3.374091587054e-01       1.227960496560e-01 
       3.489509817175e-01       1.134269935145e-01 
       3.609605657343e-01       1.048135216443e-01 
       3.734747921333e-01       9.737628314359e-02 
       3.865366902904e-01       9.058069934240e-02 
       4.001968667448e-01       8.376323436180e-02 
       4.145153713076e-01       7.689859038442e-02 
       4.295641718077e-01       7.045599138973e-02 
       4.454304922144e-01       6.458857816015e-02 
       4.622214006969e-01       5.901235293372e-02 
       4.800702491654e-01       5.348451092465e-02 
       4.991459272112e-01       4.818614908180e-02 
       5.196665217302e-01       4.322548470715e-02 
       5.419201087032e-01       3.838968390487e-02 
       5.662975451962e-01       3.368903648878e-02 
       5.933463737275e-01       2.917103722973e-02 
       6.238638458458e-01       2.473711874926e-02 
       6.590669257916e-01       2.039971096883e-02 
       7.009246080454e-01       1.610932463266e-02 
       7.528593308799e-01       1.185541506277e-02 
       8.213469537518e-01       7.649239673229e-03 
       9.196980813302e-01       3.670559264637e-03 
       1.075112183810e+00       6.659575216840e-04 
       1.322697471132e+00       1.729629863250e-04 
       1.662328205042e+00       1.455420029959e-03 
       2.092692408506e+00       1.183345060921e-03 
       2.634543445090e+00       3.800580443372e-05 
       3.316693691389e+00       2.353073296220e-04 
       4.175469971226e+00       2.069984888783e-05 
       5.256605252960e+00       4.070172844746e-05 
       6.617673932723e+00       6.610619443030e-06 
       8.331157880872e+00       1.036127451724e-06 
       1.048830636590e+01       2.893221727149e-07 
       1.320399541071e+01       6.864805992937e-09 
       1.662284535976e+01       1.250874414093e-09 
       2.092692243973e+01       1.549111176195e-11 
       2.634543445002e+01       7.058371298012e-14 
       3.316693691389e+01       3.934188575248e-16 
       4.175469971226e+01       9.591450872630e-19 
       5.256605252960e+01       2.244657269904e-18 
       6.617673932723e+01       8.808426385117e-21 
