# Matter power spectrum P(k) at redshift z=0
# for k=1.04775e-05 to 66.1767 h/Mpc,
# number of wavenumbers equal to 130
#    1:k (h/Mpc)              2:P (Mpc/h)^3        
       1.047750691046e-05       5.020964811308e+01 
       1.319039970183e-05       6.270562594780e+01 
       1.660572937635e-05       7.831147247912e+01 
       2.090537469327e-05       9.780108069296e+01 
       2.631830744443e-05       1.221408203809e+02 
       3.313278603720e-05       1.525374501932e+02 
       4.171170630578e-05       1.904975994010e+02 
       5.251192703764e-05       2.379022224247e+02 
       6.610859936996e-05       2.970989227882e+02 
       8.322579568497e-05       3.710167318945e+02 
       1.047750691046e-04       4.633080766740e+02 
       1.319039970183e-04       5.785234129327e+02 
       1.660572937635e-04       7.223242666083e+02 
       2.090537469327e-04       9.017396271807e+02 
       2.631830744443e-04       1.125468123747e+03 
       3.313278603720e-04       1.404223053674e+03 
       4.171170630578e-04       1.751108028777e+03 
       5.251192703764e-04       2.181998448106e+03 
       6.610859936996e-04       2.715889983540e+03 
       8.322579568497e-04       3.375152337031e+03 
       1.047750691046e-03       4.185552174073e+03 
       1.319039970183e-03       5.175742738457e+03 
       1.660572937635e-03       6.376123050934e+03 
       2.090537469327e-03       7.815671864068e+03 
       2.631830744443e-03       9.517783065298e+03 
       3.313278603720e-03       1.149357459571e+04 
       4.171170630578e-03       1.373266012865e+04 
       5.251192703764e-03       1.619063181033e+04 
       6.610859936996e-03       1.877460518444e+04 
       8.322579568497e-03       2.132610064038e+04 
       1.047750691046e-02       2.360544911692e+04 
       1.319039970183e-02       2.528228690644e+04 
       1.660572937633e-02       2.595023160040e+04 
       2.090537453514e-02       2.520932961096e+04 
       2.631818545635e-02       2.287015683595e+04 
       3.311571692125e-02       1.928611177614e+04 
       4.113809243311e-02       1.568416351470e+04 
       4.792590854610e-02       1.361056746465e+04 
       5.284436902701e-02       1.259123575075e+04 
       5.689644391095e-02       1.195548522169e+04 
       6.051252627066e-02       1.147546729630e+04 
       6.388413457411e-02       1.105560185540e+04 
       6.711249296401e-02       1.064882800832e+04 
       7.025823437965e-02       1.022927719294e+04 
       7.336115587705e-02       9.784558575902e+03 
       7.644928796912e-02       9.311693266816e+03 
       7.954353299775e-02       8.814489932495e+03 
       8.266024078725e-02       8.301901515167e+03 
       8.581273398637e-02       7.786947040144e+03 
       8.901225918437e-02       7.283195978277e+03 
       9.226860540985e-02       6.805157803912e+03 
       9.559052048996e-02       6.365621218071e+03 
       9.898599946599e-02       5.974379498192e+03 
       1.024624891378e-01       5.637326393741e+03 
       1.060270359164e-01       5.355771891010e+03 
       1.096863943056e-01       5.126215025848e+03 
       1.134471073830e-01       4.940458830050e+03 
       1.173155669539e-01       4.786134974562e+03 
       1.212980586983e-01       4.647910625841e+03 
       1.254007961065e-01       4.509023104411e+03 
       1.296299459934e-01       4.354525462334e+03 
       1.339916477160e-01       4.173112291596e+03 
       1.384920277736e-01       3.961153837722e+03 
       1.431372111762e-01       3.722565461447e+03 
       1.479333307714e-01       3.469521564991e+03 
       1.528865355934e-01       3.218299192699e+03 
       1.580029992204e-01       2.986219829769e+03 
       1.632889290723e-01       2.786921083362e+03 
       1.687505775527e-01       2.626784741564e+03 
       1.743942559171e-01       2.503726419786e+03 
       1.802263517371e-01       2.407272738224e+03 
       1.862533508214e-01       2.322226058458e+03 
       1.924818644494e-01       2.231536463271e+03 
       1.989186627765e-01       2.122175067036e+03 
       2.055707152847e-01       1.992009673913e+03 
       2.124452391818e-01       1.850265610170e+03 
       2.195497567139e-01       1.712120067090e+03 
       2.268921624510e-01       1.590932545732e+03 
       2.344808017550e-01       1.493617392287e+03 
       2.423245618548e-01       1.418259387721e+03 
       2.504329772620e-01       1.354400099874e+03 
       2.588163516754e-01       1.288888708374e+03 
       2.674858990930e-01       1.213860102484e+03 
       2.764539076010e-01       1.130629932255e+03 
       2.857339303080e-01       1.048036850074e+03 
       2.953410092148e-01       9.761234943079e+02 
       3.052919395542e-01       9.177507960767e+02 
       3.156055844677e-01       8.678346111195e+02 
       3.263032530092e-01       8.184647010347e+02 
       3.374091587054e-01       7.650899165710e+02 
       3.489509817175e-01       7.106000765015e+02 
       3.609605657343e-01       6.607151683919e+02 
       3.734747921333e-01       6.180180273231e+02 
       3.865366902904e-01       5.792356868565e+02 
       4.001968667448e-01       5.403145184208e+02 
       4.145153713076e-01       5.010737875445e+02 
       4.295641718077e-01       4.644251291777e+02 
       4.454304922144e-01       4.313271044541e+02 
       4.622214006969e-01       4.000335313877e+02 
       4.800702491654e-01       3.690051924592e+02 
       4.991459272112e-01       3.393900447130e+02 
       5.196665217302e-01       3.118962427309e+02 
       5.419201087032e-01       2.851548340672e+02 
       5.662975451962e-01       2.592359447547e+02 
       5.933463737275e-01       2.344497020278e+02 
       6.238638458458e-01       2.101295170419e+02 
       6.590669257916e-01       1.863279873183e+02 
       7.009246080454e-01       1.626140190352e+02 
       7.528593308799e-01       1.387004098189e+02 
       8.213469537518e-01       1.140613021826e+02 
       9.196980813302e-01       8.821850248894e+01 
       1.075112183810e+00       6.156368208120e+01 
       1.322697471132e+00       3.784604228006e+01 
       1.662328205042e+00       2.185430737177e+01 
       2.092692408506e+00       1.236794349550e+01 
       2.634543445090e+00       6.834708035618e+00 
       3.316693691389e+00       3.623985941318e+00 
       4.175469971226e+00       1.772063741662e+00 
       5.256605252960e+00       7.288290458653e-01 
       6.617673932723e+00       1.960960756140e-01 
       8.331157880872e+00       8.898910813255e-03 
       1.048830636590e+01       2.570592337038e-02 
       1.320399541071e+01       6.749733495843e-02 
       1.662284535976e+01       2.904823324376e-02 
       2.092692243973e+01       1.027616031649e-04 
       2.634543445002e+01       5.253351698637e-03 
       3.316693691389e+01       6.666895986265e-06 
       4.175469971226e+01       8.123118812340e-05 
       5.256605252960e+01       2.756153273553e-06 
       6.617673932723e+01       5.311587658282e-07 
