# Matter power spectrum P(k) at redshift z=99
# for k=1.04775e-05 to 66.1767 h/Mpc,
# number of wavenumbers equal to 130
#    1:k (h/Mpc)              2:P (Mpc/h)^3        
       1.047750691046e-05       7.261927680900e-03 
       1.319039970183e-05       9.069258201896e-03 
       1.660572937635e-05       1.132639106731e-02 
       2.090537469327e-05       1.414527123407e-02 
       2.631830744443e-05       1.766569584067e-02 
       3.313278603720e-05       2.206225515954e-02 
       4.171170630578e-05       2.755297766291e-02 
       5.251192703764e-05       3.441013522965e-02 
       6.610859936996e-05       4.297372172800e-02 
       8.322579568497e-05       5.366826852972e-02 
       1.047750691046e-04       6.702379872809e-02 
       1.319039970183e-04       8.370193441329e-02 
       1.660572937635e-04       1.045283355389e-01 
       2.090537469327e-04       1.305329134111e-01 
       2.631830744443e-04       1.629994506614e-01 
       3.313278603720e-04       2.035264004611e-01 
       4.171170630578e-04       2.541004744255e-01 
       5.251192703764e-04       3.171839528572e-01 
       6.610859936996e-04       3.958147256530e-01 
       8.322579568497e-04       4.937136006288e-01 
       1.047750691046e-03       6.153841636058e-01 
       1.319039970183e-03       7.661720592761e-01 
       1.660572937635e-03       9.522588016439e-01 
       2.090537469327e-03       1.180312991692e+00 
       2.631830744443e-03       1.456802684665e+00 
       3.313278603720e-03       1.786503853996e+00 
       4.171170630578e-03       2.169896193739e+00 
       5.251192703764e-03       2.599430630503e+00 
       6.610859936996e-03       3.055668695011e+00 
       8.322579568497e-03       3.505725597761e+00 
       1.047750691046e-02       3.905491457193e+00 
       1.319039970183e-02       4.200915316859e+00 
       1.660572937633e-02       4.325061784037e+00 
       2.090537453514e-02       4.210202283011e+00 
       2.631818545635e-02       3.825154882545e+00 
       3.311571692125e-02       3.229059077987e+00 
       4.113809243311e-02       2.627724797875e+00 
       4.792590854610e-02       2.280795615980e+00 
       5.284436902701e-02       2.110090992472e+00 
       5.689644391095e-02       2.003539767691e+00 
       6.051252627066e-02       1.923056450509e+00 
       6.388413457411e-02       1.852739044486e+00 
       6.711249296401e-02       1.784563420544e+00 
       7.025823437965e-02       1.714270274087e+00 
       7.336115587705e-02       1.639812280487e+00 
       7.644928796912e-02       1.560662106537e+00 
       7.954353299775e-02       1.477457361249e+00 
       8.266024078725e-02       1.391699569803e+00 
       8.581273398637e-02       1.305459166718e+00 
       8.901225918437e-02       1.221125463282e+00 
       9.226860540985e-02       1.141080840916e+00 
       9.559052048996e-02       1.067453931762e+00 
       9.898599946599e-02       1.001889863437e+00 
       1.024624891378e-01       9.453821050644e-01 
       1.060270359164e-01       8.981497730897e-01 
       1.096863943056e-01       8.596125039439e-01 
       1.134471073830e-01       8.284060793267e-01 
       1.173155669539e-01       8.024660000767e-01 
       1.212980586983e-01       7.792293488599e-01 
       1.254007961065e-01       7.559188725402e-01 
       1.296299459934e-01       7.299830365323e-01 
       1.339916477160e-01       6.995941415234e-01 
       1.384920277736e-01       6.640797874618e-01 
       1.431372111762e-01       6.241490514353e-01 
       1.479333307714e-01       5.817653080933e-01 
       1.528865355934e-01       5.396894517612e-01 
       1.580029992204e-01       5.008139455866e-01 
       1.632889290723e-01       4.673981205030e-01 
       1.687505775527e-01       4.405343197517e-01 
       1.743942559171e-01       4.198656379743e-01 
       1.802263517371e-01       4.036596997820e-01 
       1.862533508214e-01       3.893623421369e-01 
       1.924818644494e-01       3.741397850224e-01 
       1.989186627765e-01       3.558066071944e-01 
       2.055707152847e-01       3.340026677311e-01 
       2.124452391818e-01       3.102654456180e-01 
       2.195497567139e-01       2.871224337019e-01 
       2.268921624510e-01       2.668077552759e-01 
       2.344808017550e-01       2.504831800854e-01 
       2.423245618548e-01       2.378330426649e-01 
       2.504329772620e-01       2.271110922483e-01 
       2.588163516754e-01       2.161195252607e-01 
       2.674858990930e-01       2.035472618058e-01 
       2.764539076010e-01       1.895973275384e-01 
       2.857339303080e-01       1.757568090404e-01 
       2.953410092148e-01       1.636989661754e-01 
       3.052919395542e-01       1.539062948614e-01 
       3.156055844677e-01       1.455307193514e-01 
       3.263032530092e-01       1.372503603984e-01 
       3.374091587054e-01       1.283014053698e-01 
       3.489509817175e-01       1.191708405159e-01 
       3.609605657343e-01       1.108070366497e-01 
       3.734747921333e-01       1.036447006904e-01 
       3.865366902904e-01       9.714076685119e-02 
       4.001968667448e-01       9.061509519438e-02 
       4.145153713076e-01       8.403683790659e-02 
       4.295641718077e-01       7.789090171119e-02 
       4.454304922144e-01       7.234145783141e-02 
       4.622214006969e-01       6.709345018597e-02 
       4.800702491654e-01       6.189141434795e-02 
       4.991459272112e-01       5.692589950788e-02 
       5.196665217302e-01       5.231584884255e-02 
       5.419201087032e-01       4.783222760522e-02 
       5.662975451962e-01       4.348650453949e-02 
       5.933463737275e-01       3.933078395542e-02 
       6.238638458458e-01       3.525302468388e-02 
       6.590669257916e-01       3.126240716911e-02 
       7.009246080454e-01       2.728691652584e-02 
       7.528593308799e-01       2.327805177358e-02 
       8.213469537518e-01       1.914785633762e-02 
       9.196980813302e-01       1.481659559584e-02 
       1.075112183810e+00       1.035047520060e-02 
       1.322697471132e+00       6.379029205751e-03 
       1.662328205042e+00       3.705235114121e-03 
       2.092692408506e+00       2.124100678974e-03 
       2.634543445090e+00       1.207540136999e-03 
       3.316693691389e+00       6.812994679482e-04 
       4.175469971226e+00       3.817227179432e-04 
       5.256605252960e+00       2.124917458633e-04 
       6.617673932723e+00       1.175591904491e-04 
       8.331157880872e+00       6.464506692185e-05 
       1.048830636590e+01       3.532495229716e-05 
       1.320399541071e+01       1.916830382973e-05 
       1.662284535976e+01       1.031258081704e-05 
       2.092692243973e+01       5.484524521669e-06 
       2.634543445002e+01       2.867697905135e-06 
       3.316693691389e+01       1.459602517223e-06 
       4.175469971226e+01       7.101881640830e-07 
       5.256605252960e+01       3.192878032351e-07 
       6.617673932723e+01       1.241501757419e-07 
