# Matter power spectrum P(k) at redshift z=0
# for k=1.04775e-05 to 66.1767 h/Mpc,
# number of wavenumbers equal to 130
#    1:k (h/Mpc)              2:P (Mpc/h)^3        
       1.047750691046e-05       5.020964811310e+01 
       1.319039970183e-05       6.270562594777e+01 
       1.660572937635e-05       7.831147247911e+01 
       2.090537469327e-05       9.780108069296e+01 
       2.631830744443e-05       1.221408203809e+02 
       3.313278603720e-05       1.525374501932e+02 
       4.171170630578e-05       1.904975994010e+02 
       5.251192703764e-05       2.379022224249e+02 
       6.610859936996e-05       2.970989227882e+02 
       8.322579568497e-05       3.710167318946e+02 
       1.047750691046e-04       4.633080766742e+02 
       1.319039970183e-04       5.785234129340e+02 
       1.660572937635e-04       7.223242666092e+02 
       2.090537469327e-04       9.017396271824e+02 
       2.631830744443e-04       1.125468123750e+03 
       3.313278603720e-04       1.404223053681e+03 
       4.171170630578e-04       1.751108028789e+03 
       5.251192703764e-04       2.181998448133e+03 
       6.610859936996e-04       2.715889983592e+03 
       8.322579568497e-04       3.375152337134e+03 
       1.047750691046e-03       4.185552174309e+03 
       1.319039970183e-03       5.175742740999e+03 
       1.660572937635e-03       6.376123051789e+03 
       2.090537469327e-03       7.815671903967e+03 
       2.631830744443e-03       9.517783069111e+03 
       3.313278603720e-03       1.149357460344e+04 
       4.171170630578e-03       1.373266008921e+04 
       5.251192703764e-03       1.619063614443e+04 
       6.610859936996e-03       1.877460494971e+04 
       8.322579568497e-03       2.132607232600e+04 
       1.047750691046e-02       2.360548209545e+04 
       1.319039970183e-02       2.528218643349e+04 
       1.660572937633e-02       2.595026508782e+04 
       2.090537453514e-02       2.520938349752e+04 
       2.631818545635e-02       2.287038188075e+04 
       3.311571692125e-02       1.928624861556e+04 
       4.113809243311e-02       1.568424572152e+04 
       4.792590854610e-02       1.361065154995e+04 
       5.284436902701e-02       1.259129884129e+04 
       5.689644391095e-02       1.195557789359e+04 
       6.051252627066e-02       1.147547842412e+04 
       6.388413457411e-02       1.105587524678e+04 
       6.711249296401e-02       1.064897117814e+04 
       7.025823437965e-02       1.022930796449e+04 
       7.336115587705e-02       9.784501713620e+03 
       7.644928796912e-02       9.311654276489e+03 
       7.954353299775e-02       8.814483316734e+03 
       8.266024078725e-02       8.302147639845e+03 
       8.581273398637e-02       7.786953549630e+03 
       8.901225918437e-02       7.283168121854e+03 
       9.226860540985e-02       6.805131679253e+03 
       9.559052048996e-02       6.365611940115e+03 
       9.898599946599e-02       5.974405142529e+03 
       1.024624891378e-01       5.637353198629e+03 
       1.060270359164e-01       5.355802852953e+03 
       1.096863943056e-01       5.126244490402e+03 
       1.134471073830e-01       4.940514552143e+03 
       1.173155669539e-01       4.786183626830e+03 
       1.212980586983e-01       4.647936684156e+03 
       1.254007961065e-01       4.509153088819e+03 
       1.296299459934e-01       4.354551650445e+03 
       1.339916477160e-01       4.173228128020e+03 
       1.384920277736e-01       3.961161832401e+03 
       1.431372111762e-01       3.722678244959e+03 
       1.479333307714e-01       3.469545968600e+03 
       1.528865355934e-01       3.218358824391e+03 
       1.580029992204e-01       2.986271835635e+03 
       1.632889290723e-01       2.786966367074e+03 
       1.687505775527e-01       2.626821210128e+03 
       1.743942559171e-01       2.503765835643e+03 
       1.802263517371e-01       2.407318883639e+03 
       1.862533508214e-01       2.322224443156e+03 
       1.924818644494e-01       2.231541209984e+03 
       1.989186627765e-01       2.122190760136e+03 
       2.055707152847e-01       1.992018088372e+03 
       2.124452391818e-01       1.850320709799e+03 
       2.195497567139e-01       1.712168103995e+03 
       2.268921624510e-01       1.590979285159e+03 
       2.344808017550e-01       1.493666055285e+03 
       2.423245618548e-01       1.418314279237e+03 
       2.504329772620e-01       1.354458510547e+03 
       2.588163516754e-01       1.288927715680e+03 
       2.674858990930e-01       1.213930947451e+03 
       2.764539076010e-01       1.130693092053e+03 
       2.857339303080e-01       1.048094193392e+03 
       2.953410092148e-01       9.761775263761e+02 
       3.052919395542e-01       9.178047973430e+02 
       3.156055844677e-01       8.678953955079e+02 
       3.263032530092e-01       8.185231534511e+02 
       3.374091587054e-01       7.651401288563e+02 
       3.489509817175e-01       7.106684428841e+02 
       3.609605657343e-01       6.607850186960e+02 
       3.734747921333e-01       6.180816832914e+02 
       3.865366902904e-01       5.793108618822e+02 
       4.001968667448e-01       5.403896613080e+02 
       4.145153713076e-01       5.011484391893e+02 
       4.295641718077e-01       4.644960229407e+02 
       4.454304922144e-01       4.314043286242e+02 
       4.622214006969e-01       4.001121564803e+02 
       4.800702491654e-01       3.690871516847e+02 
       4.991459272112e-01       3.394738555633e+02 
       5.196665217302e-01       3.119812070427e+02 
       5.419201087032e-01       2.852431068737e+02 
       5.662975451962e-01       2.593273369241e+02 
       5.933463737275e-01       2.345460898056e+02 
       6.238638458458e-01       2.102294599310e+02 
       6.590669257916e-01       1.864322231375e+02 
       7.009246080454e-01       1.627240101627e+02 
       7.528593308799e-01       1.388174919745e+02 
       8.213469537518e-01       1.141870509357e+02 
       9.196980813302e-01       8.835861023416e+01 
       1.075112183810e+00       6.172580880421e+01 
       1.322697471132e+00       3.804287484391e+01 
       1.662328205042e+00       2.209783559917e+01 
       2.092692408506e+00       1.266906520020e+01 
       2.634543445090e+00       7.203292410390e+00 
       3.316693691389e+00       4.065055732425e+00 
       4.175469971226e+00       2.278507555956e+00 
       5.256605252960e+00       1.269210479865e+00 
       6.617673932723e+00       7.029668022965e-01 
       8.331157880872e+00       3.872652285579e-01 
       1.048830636590e+01       2.122365982863e-01 
       1.320399541071e+01       1.156933498695e-01 
       1.662284535976e+01       6.266663969635e-02 
       2.092692243973e+01       3.364359937222e-02 
       2.634543445002e+01       1.779266781201e-02 
       3.316693691389e+01       9.142344774009e-03 
       4.175469971226e+01       4.427522242297e-03 
       5.256605252960e+01       1.887986888158e-03 
       6.617673932723e+01       5.981019166689e-04 
