# Matter power spectrum P(k) at redshift z=0
# for k=1.04775e-05 to 66.1767 h/Mpc,
# number of wavenumbers equal to 130
#    1:k (h/Mpc)              2:P (Mpc/h)^3        
       1.047750691046e-05       5.020964811307e+01 
       1.319039970183e-05       6.270562594773e+01 
       1.660572937635e-05       7.831147247911e+01 
       2.090537469327e-05       9.780108069296e+01 
       2.631830744443e-05       1.221408203809e+02 
       3.313278603720e-05       1.525374501932e+02 
       4.171170630578e-05       1.904975994010e+02 
       5.251192703764e-05       2.379022224249e+02 
       6.610859936996e-05       2.970989227881e+02 
       8.322579568497e-05       3.710167318946e+02 
       1.047750691046e-04       4.633080766742e+02 
       1.319039970183e-04       5.785234129337e+02 
       1.660572937635e-04       7.223242666091e+02 
       2.090537469327e-04       9.017396271824e+02 
       2.631830744443e-04       1.125468123750e+03 
       3.313278603720e-04       1.404223053681e+03 
       4.171170630578e-04       1.751108028790e+03 
       5.251192703764e-04       2.181998448133e+03 
       6.610859936996e-04       2.715889983592e+03 
       8.322579568497e-04       3.375152337134e+03 
       1.047750691046e-03       4.185552174306e+03 
       1.319039970183e-03       5.175742743256e+03 
       1.660572937635e-03       6.376123051781e+03 
       2.090537469327e-03       7.815671865824e+03 
       2.631830744443e-03       9.517783069113e+03 
       3.313278603720e-03       1.149357460382e+04 
       4.171170630578e-03       1.373266010080e+04 
       5.251192703764e-03       1.619063614559e+04 
       6.610859936996e-03       1.877460410828e+04 
       8.322579568497e-03       2.132607231821e+04 
       1.047750691046e-02       2.360547994399e+04 
       1.319039970183e-02       2.528218658898e+04 
       1.660572937633e-02       2.595027246356e+04 
       2.090537453514e-02       2.520936163911e+04 
       2.631818545635e-02       2.287034309736e+04 
       3.311571692125e-02       1.928621913871e+04 
       4.113809243311e-02       1.568431632629e+04 
       4.792590854610e-02       1.361060557504e+04 
       5.284436902701e-02       1.259130685342e+04 
       5.689644391095e-02       1.195555539596e+04 
       6.051252627066e-02       1.147547794416e+04 
       6.388413457411e-02       1.105590170187e+04 
       6.711249296401e-02       1.064899993728e+04 
       7.025823437965e-02       1.022930405357e+04 
       7.336115587705e-02       9.784505687422e+03 
       7.644928796912e-02       9.311664326364e+03 
       7.954353299775e-02       8.814530262040e+03 
       8.266024078725e-02       8.302108230197e+03 
       8.581273398637e-02       7.786957381479e+03 
       8.901225918437e-02       7.283172745024e+03 
       9.226860540985e-02       6.805154351767e+03 
       9.559052048996e-02       6.365641362161e+03 
       9.898599946599e-02       5.974396879991e+03 
       1.024624891378e-01       5.637317025895e+03 
       1.060270359164e-01       5.355772078618e+03 
       1.096863943056e-01       5.126248119622e+03 
       1.134471073830e-01       4.940475113279e+03 
       1.173155669539e-01       4.786162068058e+03 
       1.212980586983e-01       4.647938233397e+03 
       1.254007961065e-01       4.509158799914e+03 
       1.296299459934e-01       4.354552326671e+03 
       1.339916477160e-01       4.173215161998e+03 
       1.384920277736e-01       3.961161744795e+03 
       1.431372111762e-01       3.722691395387e+03 
       1.479333307714e-01       3.469546365707e+03 
       1.528865355934e-01       3.218339867254e+03 
       1.580029992204e-01       2.986299047139e+03 
       1.632889290723e-01       2.786960957152e+03 
       1.687505775527e-01       2.626828087268e+03 
       1.743942559171e-01       2.503757332208e+03 
       1.802263517371e-01       2.407346809676e+03 
       1.862533508214e-01       2.322253781604e+03 
       1.924818644494e-01       2.231548390909e+03 
       1.989186627765e-01       2.122187769074e+03 
       2.055707152847e-01       1.992026516504e+03 
       2.124452391818e-01       1.850319150815e+03 
       2.195497567139e-01       1.712185894334e+03 
       2.268921624510e-01       1.590985657793e+03 
       2.344808017550e-01       1.493669685145e+03 
       2.423245618548e-01       1.418310336918e+03 
       2.504329772620e-01       1.354464878907e+03 
       2.588163516754e-01       1.288937121428e+03 
       2.674858990930e-01       1.213937512068e+03 
       2.764539076010e-01       1.130692607529e+03 
       2.857339303080e-01       1.048103973703e+03 
       2.953410092148e-01       9.761800559524e+02 
       3.052919395542e-01       9.178113532415e+02 
       3.156055844677e-01       8.678966695377e+02 
       3.263032530092e-01       8.185265084886e+02 
       3.374091587054e-01       7.651458489727e+02 
       3.489509817175e-01       7.106712956898e+02 
       3.609605657343e-01       6.607871672861e+02 
       3.734747921333e-01       6.180862251261e+02 
       3.865366902904e-01       5.793128719031e+02 
       4.001968667448e-01       5.403902699867e+02 
       4.145153713076e-01       5.011504012320e+02 
       4.295641718077e-01       4.644982929208e+02 
       4.454304922144e-01       4.314084725453e+02 
       4.622214006969e-01       4.001119329920e+02 
       4.800702491654e-01       3.690893953478e+02 
       4.991459272112e-01       3.394761730010e+02 
       5.196665217302e-01       3.119856485359e+02 
       5.419201087032e-01       2.852475281878e+02 
       5.662975451962e-01       2.593307394042e+02 
       5.933463737275e-01       2.345477935756e+02 
       6.238638458458e-01       2.102304983270e+02 
       6.590669257916e-01       1.864330427164e+02 
       7.009246080454e-01       1.627261027760e+02 
       7.528593308799e-01       1.388189410903e+02 
       8.213469537518e-01       1.141884702582e+02 
       9.196980813302e-01       8.835949167675e+01 
       1.075112183810e+00       6.172645486979e+01 
       1.322697471132e+00       3.804280656931e+01 
       1.662328205042e+00       2.209803381846e+01 
       2.092692408506e+00       1.266923951253e+01 
       2.634543445090e+00       7.203346007214e+00 
       3.316693691389e+00       4.065126222180e+00 
       4.175469971226e+00       2.278610447866e+00 
       5.256605252960e+00       1.269341870613e+00 
       6.617673932723e+00       7.031362173970e-01 
       8.331157880872e+00       3.874779659463e-01 
       1.048830636590e+01       2.125102882486e-01 
       1.320399541071e+01       1.160361927630e-01 
       1.662284535976e+01       6.309918612257e-02 
       2.092692243973e+01       3.417962518677e-02 
       2.634543445002e+01       1.844604097591e-02 
       3.316693691389e+01       9.919160676897e-03 
       4.175469971226e+01       5.314565650017e-03 
       5.256605252960e+01       2.836700822131e-03 
       6.617673932723e+01       1.507671425207e-03 
