# Matter power spectrum P(k) at redshift z=0
# for k=1.04775e-05 to 66.1767 h/Mpc,
# number of wavenumbers equal to 130
#    1:k (h/Mpc)              2:P (Mpc/h)^3        
       1.047750691046e-05       5.020964811311e+01 
       1.319039970183e-05       6.270562594786e+01 
       1.660572937635e-05       7.831147247912e+01 
       2.090537469327e-05       9.780108069296e+01 
       2.631830744443e-05       1.221408203809e+02 
       3.313278603720e-05       1.525374501932e+02 
       4.171170630578e-05       1.904975994009e+02 
       5.251192703764e-05       2.379022224249e+02 
       6.610859936996e-05       2.970989227881e+02 
       8.322579568497e-05       3.710167318946e+02 
       1.047750691046e-04       4.633080766742e+02 
       1.319039970183e-04       5.785234129339e+02 
       1.660572937635e-04       7.223242666092e+02 
       2.090537469327e-04       9.017396271824e+02 
       2.631830744443e-04       1.125468123750e+03 
       3.313278603720e-04       1.404223053681e+03 
       4.171170630578e-04       1.751108028789e+03 
       5.251192703764e-04       2.181998448133e+03 
       6.610859936996e-04       2.715889983593e+03 
       8.322579568497e-04       3.375152337134e+03 
       1.047750691046e-03       4.185552174307e+03 
       1.319039970183e-03       5.175742740898e+03 
       1.660572937635e-03       6.376123051775e+03 
       2.090537469327e-03       7.815671913626e+03 
       2.631830744443e-03       9.517783069112e+03 
       3.313278603720e-03       1.149357460342e+04 
       4.171170630578e-03       1.373266013749e+04 
       5.251192703764e-03       1.619063614560e+04 
       6.610859936996e-03       1.877460424505e+04 
       8.322579568497e-03       2.132607231778e+04 
       1.047750691046e-02       2.360548732766e+04 
       1.319039970183e-02       2.528218649063e+04 
       1.660572937633e-02       2.595027935191e+04 
       2.090537453514e-02       2.520935931626e+04 
       2.631818545635e-02       2.287033899925e+04 
       3.311571692125e-02       1.928624302547e+04 
       4.113809243311e-02       1.568423959041e+04 
       4.792590854610e-02       1.361065086901e+04 
       5.284436902701e-02       1.259129545213e+04 
       5.689644391095e-02       1.195555540300e+04 
       6.051252627066e-02       1.147548329843e+04 
       6.388413457411e-02       1.105590430786e+04 
       6.711249296401e-02       1.064901265268e+04 
       7.025823437965e-02       1.022928078957e+04 
       7.336115587705e-02       9.784531503718e+03 
       7.644928796912e-02       9.311673811028e+03 
       7.954353299775e-02       8.814531235820e+03 
       8.266024078725e-02       8.302137661426e+03 
       8.581273398637e-02       7.786964127853e+03 
       8.901225918437e-02       7.283177114370e+03 
       9.226860540985e-02       6.805160432310e+03 
       9.559052048996e-02       6.365641655195e+03 
       9.898599946599e-02       5.974411834079e+03 
       1.024624891378e-01       5.637324874098e+03 
       1.060270359164e-01       5.355764589319e+03 
       1.096863943056e-01       5.126237470749e+03 
       1.134471073830e-01       4.940483623370e+03 
       1.173155669539e-01       4.786175389413e+03 
       1.212980586983e-01       4.647942525019e+03 
       1.254007961065e-01       4.509153453898e+03 
       1.296299459934e-01       4.354554593457e+03 
       1.339916477160e-01       4.173206764471e+03 
       1.384920277736e-01       3.961170261009e+03 
       1.431372111762e-01       3.722685389048e+03 
       1.479333307714e-01       3.469547979110e+03 
       1.528865355934e-01       3.218333559124e+03 
       1.580029992204e-01       2.986300342295e+03 
       1.632889290723e-01       2.786966298688e+03 
       1.687505775527e-01       2.626824320506e+03 
       1.743942559171e-01       2.503763350790e+03 
       1.802263517371e-01       2.407339290666e+03 
       1.862533508214e-01       2.322252821355e+03 
       1.924818644494e-01       2.231551048593e+03 
       1.989186627765e-01       2.122193408468e+03 
       2.055707152847e-01       1.992026682172e+03 
       2.124452391818e-01       1.850321972891e+03 
       2.195497567139e-01       1.712181171730e+03 
       2.268921624510e-01       1.590986562329e+03 
       2.344808017550e-01       1.493671568510e+03 
       2.423245618548e-01       1.418310505928e+03 
       2.504329772620e-01       1.354467812650e+03 
       2.588163516754e-01       1.288934214417e+03 
       2.674858990930e-01       1.213939688965e+03 
       2.764539076010e-01       1.130692685994e+03 
       2.857339303080e-01       1.048101490127e+03 
       2.953410092148e-01       9.761827530271e+02 
       3.052919395542e-01       9.178085923125e+02 
       3.156055844677e-01       8.678977948602e+02 
       3.263032530092e-01       8.185257980938e+02 
       3.374091587054e-01       7.651502372756e+02 
       3.489509817175e-01       7.106707175924e+02 
       3.609605657343e-01       6.607865651154e+02 
       3.734747921333e-01       6.180869375515e+02 
       3.865366902904e-01       5.793102151991e+02 
       4.001968667448e-01       5.403923652053e+02 
       4.145153713076e-01       5.011516047777e+02 
       4.295641718077e-01       4.644990234877e+02 
       4.454304922144e-01       4.314089622711e+02 
       4.622214006969e-01       4.001145520466e+02 
       4.800702491654e-01       3.690896167302e+02 
       4.991459272112e-01       3.394763472052e+02 
       5.196665217302e-01       3.119859510791e+02 
       5.419201087032e-01       2.852472345182e+02 
       5.662975451962e-01       2.593310196157e+02 
       5.933463737275e-01       2.345496779958e+02 
       6.238638458458e-01       2.102305594586e+02 
       6.590669257916e-01       1.864340062133e+02 
       7.009246080454e-01       1.627251132814e+02 
       7.528593308799e-01       1.388185196977e+02 
       8.213469537518e-01       1.141877953071e+02 
       9.196980813302e-01       8.835895751403e+01 
       1.075112183810e+00       6.172627953709e+01 
       1.322697471132e+00       3.804288406686e+01 
       1.662328205042e+00       2.209796718064e+01 
       2.092692408506e+00       1.266920728860e+01 
       2.634543445090e+00       7.203344609843e+00 
       3.316693691389e+00       4.065157650448e+00 
       4.175469971226e+00       2.278618058973e+00 
       5.256605252960e+00       1.269355202406e+00 
       6.617673932723e+00       7.031393853235e-01 
       8.331157880872e+00       3.874783551836e-01 
       1.048830636590e+01       2.125121043224e-01 
       1.320399541071e+01       1.160373204466e-01 
       1.662284535976e+01       6.309926720379e-02 
       2.092692243973e+01       3.417960698161e-02 
       2.634543445002e+01       1.844609227657e-02 
       3.316693691389e+01       9.919186290121e-03 
       4.175469971226e+01       5.314650176029e-03 
       5.256605252960e+01       2.836729618385e-03 
       6.617673932723e+01       1.507697813482e-03 
