# Matter power spectrum P(k) at redshift z=0
# for k=1.04775e-05 to 66.1767 h/Mpc,
# number of wavenumbers equal to 130
#    1:k (h/Mpc)              2:P (Mpc/h)^3        
       1.047750691046e-05       5.020964811308e+01 
       1.319039970183e-05       6.270562594777e+01 
       1.660572937635e-05       7.831147247912e+01 
       2.090537469327e-05       9.780108069295e+01 
       2.631830744443e-05       1.221408203809e+02 
       3.313278603720e-05       1.525374501932e+02 
       4.171170630578e-05       1.904975994010e+02 
       5.251192703764e-05       2.379022224249e+02 
       6.610859936996e-05       2.970989227881e+02 
       8.322579568497e-05       3.710167318946e+02 
       1.047750691046e-04       4.633080766742e+02 
       1.319039970183e-04       5.785234129340e+02 
       1.660572937635e-04       7.223242666092e+02 
       2.090537469327e-04       9.017396271824e+02 
       2.631830744443e-04       1.125468123750e+03 
       3.313278603720e-04       1.404223053681e+03 
       4.171170630578e-04       1.751108028790e+03 
       5.251192703764e-04       2.181998448133e+03 
       6.610859936996e-04       2.715889983592e+03 
       8.322579568497e-04       3.375152337134e+03 
       1.047750691046e-03       4.185552174308e+03 
       1.319039970183e-03       5.175742740933e+03 
       1.660572937635e-03       6.376123051778e+03 
       2.090537469327e-03       7.815671865904e+03 
       2.631830744443e-03       9.517783069112e+03 
       3.313278603720e-03       1.149357460341e+04 
       4.171170630578e-03       1.373266012191e+04 
       5.251192703764e-03       1.619063614482e+04 
       6.610859936996e-03       1.877460426126e+04 
       8.322579568497e-03       2.132606507304e+04 
       1.047750691046e-02       2.360548764114e+04 
       1.319039970183e-02       2.528218852642e+04 
       1.660572937633e-02       2.595027091242e+04 
       2.090537453514e-02       2.520934781689e+04 
       2.631818545635e-02       2.287035072849e+04 
       3.311571692125e-02       1.928623488325e+04 
       4.113809243311e-02       1.568428484146e+04 
       4.792590854610e-02       1.361061927991e+04 
       5.284436902701e-02       1.259130382282e+04 
       5.689644391095e-02       1.195554966703e+04 
       6.051252627066e-02       1.147547115849e+04 
       6.388413457411e-02       1.105588969829e+04 
       6.711249296401e-02       1.064899601359e+04 
       7.025823437965e-02       1.022925862829e+04 
       7.336115587705e-02       9.784531776256e+03 
       7.644928796912e-02       9.311628229113e+03 
       7.954353299775e-02       8.814529996486e+03 
       8.266024078725e-02       8.302125241331e+03 
       8.581273398637e-02       7.786982782777e+03 
       8.901225918437e-02       7.283152805368e+03 
       9.226860540985e-02       6.805127026184e+03 
       9.559052048996e-02       6.365630765450e+03 
       9.898599946599e-02       5.974402534871e+03 
       1.024624891378e-01       5.637294028320e+03 
       1.060270359164e-01       5.355745795968e+03 
       1.096863943056e-01       5.126255748196e+03 
       1.134471073830e-01       4.940486011992e+03 
       1.173155669539e-01       4.786155146004e+03 
       1.212980586983e-01       4.647914876731e+03 
       1.254007961065e-01       4.509134974501e+03 
       1.296299459934e-01       4.354555273383e+03 
       1.339916477160e-01       4.173216088691e+03 
       1.384920277736e-01       3.961176142245e+03 
       1.431372111762e-01       3.722673950511e+03 
       1.479333307714e-01       3.469551789541e+03 
       1.528865355934e-01       3.218344105225e+03 
       1.580029992204e-01       2.986275264500e+03 
       1.632889290723e-01       2.786964826073e+03 
       1.687505775527e-01       2.626826341430e+03 
       1.743942559171e-01       2.503769507101e+03 
       1.802263517371e-01       2.407330125052e+03 
       1.862533508214e-01       2.322240627345e+03 
       1.924818644494e-01       2.231552568175e+03 
       1.989186627765e-01       2.122190308795e+03 
       2.055707152847e-01       1.992024275256e+03 
       2.124452391818e-01       1.850318701232e+03 
       2.195497567139e-01       1.712170587104e+03 
       2.268921624510e-01       1.590985713544e+03 
       2.344808017550e-01       1.493663296095e+03 
       2.423245618548e-01       1.418320529048e+03 
       2.504329772620e-01       1.354461274090e+03 
       2.588163516754e-01       1.288930108361e+03 
       2.674858990930e-01       1.213931183620e+03 
       2.764539076010e-01       1.130690399000e+03 
       2.857339303080e-01       1.048095109629e+03 
       2.953410092148e-01       9.761793115630e+02 
       3.052919395542e-01       9.178091334429e+02 
       3.156055844677e-01       8.678982518127e+02 
       3.263032530092e-01       8.185233240041e+02 
       3.374091587054e-01       7.651425337869e+02 
       3.489509817175e-01       7.106688572947e+02 
       3.609605657343e-01       6.607830280811e+02 
       3.734747921333e-01       6.180827742091e+02 
       3.865366902904e-01       5.793092121123e+02 
       4.001968667448e-01       5.403908241872e+02 
       4.145153713076e-01       5.011486727936e+02 
       4.295641718077e-01       4.644967959163e+02 
       4.454304922144e-01       4.314067205626e+02 
       4.622214006969e-01       4.001111681343e+02 
       4.800702491654e-01       3.690887842834e+02 
       4.991459272112e-01       3.394746135020e+02 
       5.196665217302e-01       3.119831815351e+02 
       5.419201087032e-01       2.852455702434e+02 
       5.662975451962e-01       2.593293294550e+02 
       5.933463737275e-01       2.345466050985e+02 
       6.238638458458e-01       2.102295375186e+02 
       6.590669257916e-01       1.864325114797e+02 
       7.009246080454e-01       1.627242854602e+02 
       7.528593308799e-01       1.388182132505e+02 
       8.213469537518e-01       1.141872017559e+02 
       9.196980813302e-01       8.835875458231e+01 
       1.075112183810e+00       6.172584434763e+01 
       1.322697471132e+00       3.804303283134e+01 
       1.662328205042e+00       2.209781390390e+01 
       2.092692408506e+00       1.266909157642e+01 
       2.634543445090e+00       7.203252731606e+00 
       3.316693691389e+00       4.065127036802e+00 
       4.175469971226e+00       2.278593701997e+00 
       5.256605252960e+00       1.269332569635e+00 
       6.617673932723e+00       7.031236389112e-01 
       8.331157880872e+00       3.874690910674e-01 
       1.048830636590e+01       2.125027087368e-01 
       1.320399541071e+01       1.160295313836e-01 
       1.662284535976e+01       6.309236692994e-02 
       2.092692243973e+01       3.417412367928e-02 
       2.634543445002e+01       1.844079762385e-02 
       3.316693691389e+01       9.914402594127e-03 
       4.175469971226e+01       5.310283762737e-03 
       5.256605252960e+01       2.832746152624e-03 
       6.617673932723e+01       1.504112449801e-03 
