# Matter power spectrum P(k) at redshift z=0
# for k=1.04775e-05 to 67.6233 h/Mpc,
# number of wavenumbers equal to 246
#    1:k (h/Mpc)              2:P (Mpc/h)^3        
       1.047750691046e-05       5.020964811313e+01 
       1.131335172503e-05       5.407050701925e+01 
       1.221587619537e-05       5.822819068581e+01 
       1.319039970183e-05       6.270562594783e+01 
       1.424266597921e-05       6.752732240880e+01 
       1.537887696968e-05       7.271977206173e+01 
       1.660572937635e-05       7.831147247912e+01 
       1.793045413292e-05       8.433311821988e+01 
       1.936085902198e-05       9.081778249833e+01 
       2.090537469327e-05       9.780108069295e+01 
       2.257310435294e-05       1.053213197893e+02 
       2.437387741694e-05       1.134197377890e+02 
       2.631830744443e-05       1.221408203809e+02 
       2.841785469300e-05       1.315324642457e+02 
       3.068489366414e-05       1.416462094881e+02 
       3.313278603720e-05       1.525374501932e+02 
       3.577595942169e-05       1.642660688414e+02 
       3.862999239199e-05       1.768963506307e+02 
       4.171170630578e-05       1.904975994010e+02 
       4.503926444729e-05       2.051444491974e+02 
       4.863227907969e-05       2.209171465549e+02 
       5.251192703764e-05       2.379022224249e+02 
       5.670107454120e-05       2.561927927910e+02 
       6.122441196689e-05       2.758890444040e+02 
       6.610859936996e-05       2.970989227883e+02 
       7.138242361596e-05       3.199385560802e+02 
       7.707696804727e-05       3.445329783680e+02 
       8.322579568497e-05       3.710167318946e+02 
       8.986514704559e-05       3.995346444203e+02 
       9.703415373875e-05       4.302425407383e+02 
       1.047750691046e-04       4.633080766742e+02 
       1.131335172503e-04       4.989116271565e+02 
       1.221587619537e-04       5.372471950930e+02 
       1.319039970183e-04       5.785234129335e+02 
       1.424266597921e-04       6.229645936045e+02 
       1.537887696968e-04       6.708118490405e+02 
       1.660572937635e-04       7.223242666092e+02 
       1.793045413292e-04       7.777801560650e+02 
       1.936085902198e-04       8.374783614141e+02 
       2.090537469327e-04       9.017396271824e+02 
       2.257310435294e-04       9.709080268041e+02 
       2.437387741694e-04       1.045352449493e+03 
       2.631830744443e-04       1.125468123750e+03 
       2.841785469300e-04       1.211678180495e+03 
       3.068489366414e-04       1.304435250150e+03 
       3.313278603720e-04       1.404223053681e+03 
       3.577595942169e-04       1.511558014616e+03 
       3.862999239199e-04       1.626990837812e+03 
       4.171170630578e-04       1.751108028790e+03 
       4.503926444729e-04       1.884533382872e+03 
       4.863227907969e-04       2.027929378111e+03 
       5.251192703764e-04       2.181998448133e+03 
       5.670107454121e-04       2.347484102755e+03 
       6.122441196689e-04       2.525171871365e+03 
       6.610859936996e-04       2.715889983593e+03 
       7.138242361596e-04       2.920509688382e+03 
       7.707696804727e-04       3.139945100279e+03 
       8.322579568497e-04       3.375152337580e+03 
       8.986514704559e-04       3.627127831141e+03 
       9.703415373875e-04       3.896905453136e+03 
       1.047750691046e-03       4.185552174299e+03 
       1.131335172503e-03       4.494162430373e+03 
       1.221587619537e-03       4.823850706491e+03 
       1.319039970183e-03       5.175742737890e+03 
       1.424266597921e-03       5.551019596904e+03 
       1.537887696968e-03       5.950788340550e+03 
       1.660572937635e-03       6.376123051789e+03 
       1.793045413292e-03       6.828073901457e+03 
       1.936085902198e-03       7.307625381067e+03 
       2.090537469327e-03       7.815671904753e+03 
       2.257310435294e-03       8.352990375817e+03 
       2.437387741694e-03       8.920211064347e+03 
       2.631830744443e-03       9.517783069113e+03 
       2.841785469300e-03       1.014593704435e+04 
       3.068489366414e-03       1.080464502796e+04 
       3.313278603720e-03       1.149357460346e+04 
       3.577595942169e-03       1.221203621722e+04 
       3.862999239199e-03       1.295892539446e+04 
       4.171170630578e-03       1.373266012881e+04 
       4.503926444729e-03       1.453111835625e+04 
       4.863227907969e-03       1.535154985300e+04 
       5.251192703764e-03       1.619063614559e+04 
       5.670107454120e-03       1.704431257736e+04 
       6.122441196689e-03       1.790755939653e+04 
       6.610859936996e-03       1.877460421642e+04 
       7.138242361596e-03       1.963872430356e+04 
       7.707696804727e-03       2.049215714367e+04 
       8.322579568496e-03       2.132607231867e+04 
       8.986514704559e-03       2.213055101847e+04 
       9.703415373875e-03       2.289445472109e+04 
       1.047750691046e-02       2.360547856070e+04 
       1.131335172503e-02       2.425023102470e+04 
       1.221587619537e-02       2.481423999154e+04 
       1.319039970183e-02       2.528218714718e+04 
       1.424266597920e-02       2.563814418106e+04 
       1.537887696964e-02       2.586605885796e+04 
       1.660572937560e-02       2.595028411227e+04 
       1.793045412207e-02       2.587634711099e+04 
       1.936085889642e-02       2.563219584979e+04 
       2.090537351881e-02       2.520936016087e+04 
       2.257309534705e-02       2.460445218746e+04 
       2.437382002240e-02       2.382092688404e+04 
       2.631799943729e-02       2.287044653699e+04 
       2.841644544598e-02       2.177452080928e+04 
       3.067933354524e-02       2.056551140403e+04 
       3.311368469821e-02       1.928728082192e+04 
       3.571840442514e-02       1.799399468332e+04 
       3.847720347390e-02       1.674690974169e+04 
       4.135335537314e-02       1.560453327721e+04 
       4.429361666563e-02       1.461037932322e+04 
       4.724366437916e-02       1.378054437077e+04 
       5.016480834039e-02       1.310506001164e+04 
       5.303989618930e-02       1.255716611917e+04 
       5.586870668205e-02       1.210427111557e+04 
       5.866042679206e-02       1.171464541591e+04 
       6.142798931504e-02       1.136044894473e+04 
       6.418496438662e-02       1.101857547689e+04 
       6.694418832236e-02       1.067068407089e+04 
       6.971731104453e-02       1.030359441704e+04 
       7.251476154108e-02       9.909000211226e+03 
       7.534587669814e-02       9.483771664047e+03 
       7.821907664495e-02       9.029501259298e+03 
       8.114203771084e-02       8.552329495108e+03 
       8.412184533139e-02       8.061970513482e+03 
       8.716512277352e-02       7.570776555717e+03 
       9.027813693913e-02       7.092512794021e+03 
       9.346688429613e-02       6.640520783128e+03 
       9.673716026122e-02       6.226704318170e+03 
       1.000946150608e-01       5.859929922597e+03 
       1.035447986307e-01       5.545229293816e+03 
       1.070931966524e-01       5.283125265382e+03 
       1.107452594180e-01       5.069424472872e+03 
       1.145064248899e-01       4.895243461625e+03 
       1.183821370656e-01       4.747840803232e+03 
       1.223778605591e-01       4.611734149835e+03 
       1.264990921707e-01       4.470631426360e+03 
       1.307513701078e-01       4.310272416622e+03 
       1.351402814485e-01       4.121386641542e+03 
       1.396714683894e-01       3.902068885184e+03 
       1.443506337875e-01       3.658639420085e+03 
       1.491835464900e-01       3.404484544161e+03 
       1.541760469368e-01       3.156677129270e+03 
       1.593340535209e-01       2.931977344951e+03 
       1.646635701934e-01       2.742369982690e+03 
       1.701706958081e-01       2.592262621928e+03 
       1.758616357070e-01       2.477234525599e+03 
       1.817427160581e-01       2.385177447165e+03 
       1.878204014651e-01       2.300358391316e+03 
       1.941013163855e-01       2.205756988996e+03 
       2.005922709060e-01       2.090808742327e+03 
       2.073002914514e-01       1.956465061704e+03 
       2.142326570343e-01       1.814194385893e+03 
       2.213969417044e-01       1.679292217748e+03 
       2.288010639201e-01       1.563846059695e+03 
       2.364533436625e-01       1.472689937179e+03 
       2.443625682390e-01       1.401514954631e+03 
       2.525380678946e-01       1.338412734975e+03 
       2.609898025770e-01       1.270898712753e+03 
       2.697284614969e-01       1.193380658331e+03 
       2.787655775073e-01       1.109338481709e+03 
       2.881136588192e-01       1.028774271837e+03 
       2.977863412019e-01       9.604813193078e+02 
       3.077985646248e-01       9.050221258692e+02 
       3.181667793367e-01       8.561468679741e+02 
       3.289091877084e-01       8.061895058867e+02 
       3.400460298905e-01       7.523904638569e+02 
       3.515999235695e-01       6.989238126054e+02 
       3.635962710278e-01       6.510645763164e+02 
       3.760637505499e-01       6.101265277922e+02 
       3.890349143014e-01       5.721333756931e+02 
       4.025469215929e-01       5.337836527686e+02 
       4.166424455447e-01       4.956332671843e+02 
       4.313708034899e-01       4.604675925726e+02 
       4.467893781976e-01       4.287776137180e+02 
       4.629654198623e-01       3.987738365990e+02 
       4.799783500912e-01       3.692432168163e+02 
       4.979227318246e-01       3.412394890094e+02 
       5.169121269689e-01       3.154836243508e+02 
       5.370841403262e-01       2.908357357591e+02 
       5.586070463286e-01       2.671068369646e+02 
       5.816885093582e-01       2.448093965765e+02 
       6.065870143577e-01       2.235676587571e+02 
       6.336266466978e-01       2.032113961330e+02 
       6.632156057925e-01       1.838796480752e+02 
       6.958678637575e-01       1.653544954915e+02 
       7.322247983784e-01       1.476957816317e+02 
       7.730680193171e-01       1.308345619221e+02 
       8.193049551574e-01       1.148313174750e+02 
       8.718988013754e-01       9.976279516901e+01 
       9.317218028590e-01       8.577823697945e+01 
       9.993660906273e-01       7.305506913493e+01 
       1.075037109879e+00       6.173613203625e+01 
       1.158653485387e+00       5.187932476159e+01 
       1.250099156961e+00       4.344029630847e+01 
       1.349432400897e+00       3.628954096052e+01 
       1.456947456991e+00       3.026816925183e+01 
       1.573135110893e+00       2.521469748679e+01 
       1.698621895119e+00       2.098214614948e+01 
       1.834127512423e+00       1.744244288900e+01 
       1.980444933977e+00       1.448570516004e+01 
       2.138435191130e+00       1.201895935295e+01 
       2.309029198543e+00       9.963187632806e+00 
       2.493232376993e+00       8.251886875085e+00 
       2.692130394536e+00       6.828652202139e+00 
       2.906895533764e+00       5.646280952884e+00 
       3.138793596840e+00       4.664915994564e+00 
       3.389191365541e+00       3.851133433759e+00 
       3.659564656886e+00       3.176967737677e+00 
       3.951507021438e+00       2.618884084629e+00 
       4.266739135513e+00       2.157353234262e+00 
       4.607118942658e+00       1.775939023966e+00 
       4.974652604172e+00       1.460996830472e+00 
       5.371506323193e+00       1.201127146629e+00 
       5.800019112071e+00       9.868832136988e-01 
       6.262716578240e+00       8.103502714910e-01 
       6.762325809881e+00       6.650120041948e-01 
       7.301791449077e+00       5.454272953477e-01 
       7.884293047211e+00       4.470977136619e-01 
       8.513263804891e+00       3.662988249751e-01 
       9.192410806865e+00       2.999407713112e-01 
       9.925736871166e+00       2.454829537644e-01 
       1.071756414128e+01       2.008072723471e-01 
       1.157255956041e+01       1.641850047061e-01 
       1.249576237789e+01       1.341771417999e-01 
       1.349261385000e+01       1.096030157279e-01 
       1.456898931011e+01       8.948834146724e-02 
       1.573123279727e+01       7.303367334486e-02 
       1.698619444729e+01       5.957825521306e-02 
       1.834127086665e+01       4.858101855910e-02 
       1.980444872733e+01       3.959716113289e-02 
       2.138435183937e+01       3.226105328169e-02 
       2.309029197863e+01       2.627335010522e-02 
       2.493232376942e+01       2.138838692768e-02 
       2.692130394533e+01       1.740474220874e-02 
       2.906895533764e+01       1.415737379939e-02 
       3.138793596840e+01       1.151135392911e-02 
       3.389191365541e+01       9.356039043637e-03 
       3.659564656886e+01       7.601175139122e-03 
       3.951507021438e+01       6.173110834126e-03 
       4.266739135513e+01       5.011161257024e-03 
       4.607118942658e+01       4.066138520574e-03 
       4.974652604172e+01       3.297984029379e-03 
       5.371506323193e+01       2.673728451822e-03 
       5.800019112071e+01       2.166554851953e-03 
       6.262716578240e+01       1.754749115143e-03 
       6.762325809881e+01       1.420455013093e-03 
