# Matter power spectrum P(k) at redshift z=99
# for k=1.04775e-05 to 66.1767 h/Mpc,
# number of wavenumbers equal to 130
#    1:k (h/Mpc)              2:P (Mpc/h)^3        
       1.047750691046e-05       7.261927680911e-03 
       1.319039970183e-05       9.069258201910e-03 
       1.660572937635e-05       1.132639106733e-02 
       2.090537469327e-05       1.414527123409e-02 
       2.631830744443e-05       1.766569584070e-02 
       3.313278603720e-05       2.206225515957e-02 
       4.171170630578e-05       2.755297766296e-02 
       5.251192703764e-05       3.441013522971e-02 
       6.610859936996e-05       4.297372172807e-02 
       8.322579568497e-05       5.366826852981e-02 
       1.047750691046e-04       6.702379872820e-02 
       1.319039970183e-04       8.370193441343e-02 
       1.660572937635e-04       1.045283355391e-01 
       2.090537469327e-04       1.305329134113e-01 
       2.631830744443e-04       1.629994506616e-01 
       3.313278603720e-04       2.035264004615e-01 
       4.171170630578e-04       2.541004744259e-01 
       5.251192703764e-04       3.171839528576e-01 
       6.610859936996e-04       3.958147256535e-01 
       8.322579568497e-04       4.937136006308e-01 
       1.047750691046e-03       6.153841636065e-01 
       1.319039970183e-03       7.661720592565e-01 
       1.660572937635e-03       9.522588016423e-01 
       2.090537469327e-03       1.180312991690e+00 
       2.631830744443e-03       1.456802684659e+00 
       3.313278603720e-03       1.786503853974e+00 
       4.171170630578e-03       2.169896195470e+00 
       5.251192703764e-03       2.599430630436e+00 
       6.610859936996e-03       3.055668691130e+00 
       8.322579568497e-03       3.505725597427e+00 
       1.047750691046e-02       3.905491865797e+00 
       1.319039970183e-02       4.200915241280e+00 
       1.660572937633e-02       4.325059943950e+00 
       2.090537453514e-02       4.210206054145e+00 
       2.631818545635e-02       3.825155579705e+00 
       3.311571692125e-02       3.229063567706e+00 
       4.113809243311e-02       2.627724972484e+00 
       4.792590854610e-02       2.280794893993e+00 
       5.284436902701e-02       2.110089583990e+00 
       5.689644391095e-02       2.003534781873e+00 
       6.051252627066e-02       1.923056772907e+00 
       6.388413457411e-02       1.852731594065e+00 
       6.711249296401e-02       1.784564705540e+00 
       7.025823437965e-02       1.714280215978e+00 
       7.336115587705e-02       1.639812065499e+00 
       7.644928796912e-02       1.560661026282e+00 
       7.954353299775e-02       1.477456226208e+00 
       8.266024078725e-02       1.391693727868e+00 
       8.581273398637e-02       1.305459505058e+00 
       8.901225918437e-02       1.221122968932e+00 
       9.226860540985e-02       1.141078483977e+00 
       9.559052048996e-02       1.067449529656e+00 
       9.898599946599e-02       1.001886775870e+00 
       1.024624891378e-01       9.453828289933e-01 
       1.060270359164e-01       8.981497371196e-01 
       1.096863943056e-01       8.596115059962e-01 
       1.134471073830e-01       8.284078728060e-01 
       1.173155669539e-01       8.024684968628e-01 
       1.212980586983e-01       7.792281393065e-01 
       1.254007961065e-01       7.559164902053e-01 
       1.296299459934e-01       7.299824507287e-01 
       1.339916477160e-01       6.995933803095e-01 
       1.384920277736e-01       6.640807873838e-01 
       1.431372111762e-01       6.241469299621e-01 
       1.479333307714e-01       5.817658377095e-01 
       1.528865355934e-01       5.396903077181e-01 
       1.580029992204e-01       5.008132612458e-01 
       1.632889290723e-01       4.673988705314e-01 
       1.687505775527e-01       4.405339774978e-01 
       1.743942559171e-01       4.198648413678e-01 
       1.802263517371e-01       4.036591805136e-01 
       1.862533508214e-01       3.893632028901e-01 
       1.924818644494e-01       3.741396731658e-01 
       1.989186627765e-01       3.558062482083e-01 
       2.055707152847e-01       3.340031814518e-01 
       2.124452391818e-01       3.102649988302e-01 
       2.195497567139e-01       2.871223541635e-01 
       2.268921624510e-01       2.668079780280e-01 
       2.344808017550e-01       2.504827222362e-01 
       2.423245618548e-01       2.378334501568e-01 
       2.504329772620e-01       2.271115760718e-01 
       2.588163516754e-01       2.161194652070e-01 
       2.674858990930e-01       2.035470091051e-01 
       2.764539076010e-01       1.895970809949e-01 
       2.857339303080e-01       1.757571078765e-01 
       2.953410092148e-01       1.636993227654e-01 
       3.052919395542e-01       1.539061266188e-01 
       3.156055844677e-01       1.455302990884e-01 
       3.263032530092e-01       1.372499938785e-01 
       3.374091587054e-01       1.283015873877e-01 
       3.489509817175e-01       1.191708162650e-01 
       3.609605657343e-01       1.108065343662e-01 
       3.734747921333e-01       1.036441841638e-01 
       3.865366902904e-01       9.714067788330e-02 
       4.001968667448e-01       9.061490925376e-02 
       4.145153713076e-01       8.403675280732e-02 
       4.295641718077e-01       7.789073908788e-02 
       4.454304922144e-01       7.234113510094e-02 
       4.622214006969e-01       6.709332746536e-02 
       4.800702491654e-01       6.189135804876e-02 
       4.991459272112e-01       5.692585008871e-02 
       5.196665217302e-01       5.231572600387e-02 
       5.419201087032e-01       4.783201908663e-02 
       5.662975451962e-01       4.348632234174e-02 
       5.933463737275e-01       3.933055064190e-02 
       6.238638458458e-01       3.525296647121e-02 
       6.590669257916e-01       3.126236983819e-02 
       7.009246080454e-01       2.728680100830e-02 
       7.528593308799e-01       2.327786723180e-02 
       8.213469537518e-01       1.914769990597e-02 
       9.196980813302e-01       1.481652645532e-02 
       1.075112183810e+00       1.035034093633e-02 
       1.322697471132e+00       6.378897078796e-03 
       1.662328205042e+00       3.705102241634e-03 
       2.092692408506e+00       2.123973902811e-03 
       2.634543445090e+00       1.207401672908e-03 
       3.316693691389e+00       6.811692208570e-04 
       4.175469971226e+00       3.816000784207e-04 
       5.256605252960e+00       2.123719989714e-04 
       6.617673932723e+00       1.174452676416e-04 
       8.331157880872e+00       6.453721541533e-05 
       1.048830636590e+01       3.522235843955e-05 
       1.320399541071e+01       1.907139520133e-05 
       1.662284535976e+01       1.022102015540e-05 
       2.092692243973e+01       5.398329079825e-06 
       2.634543445002e+01       2.787103951230e-06 
       3.316693691389e+01       1.385386450281e-06 
       4.175469971226e+01       6.442118068416e-07 
       5.256605252960e+01       2.649109030030e-07 
       6.617673932723e+01       8.569842472210e-08 
