# Matter power spectrum P(k) at redshift z=99
# for k=1.04775e-05 to 66.1767 h/Mpc,
# number of wavenumbers equal to 130
#    1:k (h/Mpc)              2:P (Mpc/h)^3        
       1.047750691046e-05       7.261927682917e-03 
       1.319039970183e-05       9.069258204415e-03 
       1.660572937635e-05       1.132639107046e-02 
       2.090537469327e-05       1.414527123799e-02 
       2.631830744443e-05       1.766569584558e-02 
       3.313278603720e-05       2.206225516566e-02 
       4.171170630578e-05       2.755297767056e-02 
       5.251192703764e-05       3.441013523921e-02 
       6.610859936996e-05       4.297372173992e-02 
       8.322579568497e-05       5.366826854458e-02 
       1.047750691046e-04       6.702379874662e-02 
       1.319039970183e-04       8.370193443637e-02 
       1.660572937635e-04       1.045283355677e-01 
       2.090537469327e-04       1.305329134467e-01 
       2.631830744443e-04       1.629994507053e-01 
       3.313278603720e-04       2.035264005151e-01 
       4.171170630578e-04       2.541004744909e-01 
       5.251192703764e-04       3.171839529350e-01 
       6.610859936996e-04       3.958147257428e-01 
       8.322579568497e-04       4.937136007262e-01 
       1.047750691046e-03       6.153841636982e-01 
       1.319039970183e-03       7.661720593276e-01 
       1.660572937635e-03       9.522588015669e-01 
       2.090537469327e-03       1.180312991302e+00 
       2.631830744443e-03       1.456802683570e+00 
       3.313278603720e-03       1.786503851413e+00 
       4.171170630578e-03       2.169896189628e+00 
       5.251192703764e-03       2.599430618876e+00 
       6.610859936996e-03       3.055668583339e+00 
       8.322579568497e-03       3.505725552508e+00 
       1.047750691046e-02       3.905489691441e+00 
       1.319039970183e-02       4.200915113375e+00 
       1.660572937633e-02       4.325059588902e+00 
       2.090537453514e-02       4.210202481485e+00 
       2.631818545635e-02       3.825149284906e+00 
       3.311571692125e-02       3.229065096463e+00 
       4.113809243311e-02       2.627723973581e+00 
       4.792590854610e-02       2.280788218920e+00 
       5.284436902701e-02       2.110083928077e+00 
       5.689644391095e-02       2.003534437501e+00 
       6.051252627066e-02       1.923049060328e+00 
       6.388413457411e-02       1.852725245475e+00 
       6.711249296401e-02       1.784557291390e+00 
       7.025823437965e-02       1.714267625890e+00 
       7.336115587705e-02       1.639805442476e+00 
       7.644928796912e-02       1.560648853802e+00 
       7.954353299775e-02       1.477449278837e+00 
       8.266024078725e-02       1.391682831346e+00 
       8.581273398637e-02       1.305446376763e+00 
       8.901225918437e-02       1.221109648961e+00 
       9.226860540985e-02       1.141062373189e+00 
       9.559052048996e-02       1.067434420069e+00 
       9.898599946599e-02       1.001871603185e+00 
       1.024624891378e-01       9.453613760348e-01 
       1.060270359164e-01       8.981275588422e-01 
       1.096863943056e-01       8.595899063233e-01 
       1.134471073830e-01       8.283807223861e-01 
       1.173155669539e-01       8.024413675487e-01 
       1.212980586983e-01       7.791993768699e-01 
       1.254007961065e-01       7.558875763089e-01 
       1.296299459934e-01       7.299495193456e-01 
       1.339916477160e-01       6.995579657348e-01 
       1.384920277736e-01       6.640433276280e-01 
       1.431372111762e-01       6.241095988402e-01 
       1.479333307714e-01       5.817241631062e-01 
       1.528865355934e-01       5.396474186372e-01 
       1.580029992204e-01       5.007672619876e-01 
       1.632889290723e-01       4.673498047357e-01 
       1.687505775527e-01       4.404832403475e-01 
       1.743942559171e-01       4.198125970287e-01 
       1.802263517371e-01       4.036022637731e-01 
       1.862533508214e-01       3.893010563079e-01 
       1.924818644494e-01       3.740736543340e-01 
       1.989186627765e-01       3.557365432429e-01 
       2.055707152847e-01       3.339295424850e-01 
       2.124452391818e-01       3.101905884864e-01 
       2.195497567139e-01       2.870431355653e-01 
       2.268921624510e-01       2.667252260203e-01 
       2.344808017550e-01       2.503961121687e-01 
       2.423245618548e-01       2.377415555438e-01 
       2.504329772620e-01       2.270149511600e-01 
       2.588163516754e-01       2.160173877003e-01 
       2.674858990930e-01       2.034393967306e-01 
       2.764539076010e-01       1.894845500195e-01 
       2.857339303080e-01       1.756384297447e-01 
       2.953410092148e-01       1.635749467346e-01 
       3.052919395542e-01       1.537757610720e-01 
       3.156055844677e-01       1.453934410289e-01 
       3.263032530092e-01       1.371055692128e-01 
       3.374091587054e-01       1.281497708480e-01 
       3.489509817175e-01       1.190117493772e-01 
       3.609605657343e-01       1.106403630908e-01 
       3.734747921333e-01       1.034696869135e-01 
       3.865366902904e-01       9.695692525864e-02 
       4.001968667448e-01       9.042159565956e-02 
       4.145153713076e-01       8.383355801439e-02 
       4.295641718077e-01       7.767747958841e-02 
       4.454304922144e-01       7.211707450740e-02 
       4.622214006969e-01       6.685718431222e-02 
       4.800702491654e-01       6.164298701912e-02 
       4.991459272112e-01       5.666387453304e-02 
       5.196665217302e-01       5.203906032035e-02 
       5.419201087032e-01       4.753966875831e-02 
       5.662975451962e-01       4.317663932358e-02 
       5.933463737275e-01       3.900104126975e-02 
       6.238638458458e-01       3.490165908753e-02 
       6.590669257916e-01       3.088564050807e-02 
       7.009246080454e-01       2.687994318218e-02 
       7.528593308799e-01       2.283380171330e-02 
       8.213469537518e-01       1.865495136617e-02 
       9.196980813302e-01       1.425550486205e-02 
       1.075112183810e+00       9.686893784850e-03 
       1.322697471132e+00       5.572109664626e-03 
       1.662328205042e+00       2.755129822378e-03 
       2.092692408506e+00       1.099031268085e-03 
       2.634543445090e+00       2.555128550946e-04 
       3.316693691389e+00       1.599861457962e-06 
       4.175469971226e+00       8.277696933399e-05 
       5.256605252960e+00       1.443469136643e-04 
       6.617673932723e+00       3.986916758292e-05 
       8.331157880872e+00       5.493853367422e-06 
       1.048830636590e+01       1.379329434189e-05 
       1.320399541071e+01       1.203147996554e-06 
       1.662284535976e+01       2.007404340344e-07 
       2.092692243973e+01       1.181421258968e-07 
       2.634543445002e+01       7.099012370751e-09 
       3.316693691389e+01       1.767344712598e-10 
       4.175469971226e+01       2.837822151491e-13 
       5.256605252960e+01       8.915913429927e-13 
       6.617673932723e+01       2.703087081426e-16 
