# Matter power spectrum P(k) at redshift z=0
# for k=1.04775e-05 to 66.1767 h/Mpc,
# number of wavenumbers equal to 130
#    1:k (h/Mpc)              2:P (Mpc/h)^3        
       1.047750691046e-05       5.020964811312e+01 
       1.319039970183e-05       6.270562594773e+01 
       1.660572937635e-05       7.831147247912e+01 
       2.090537469327e-05       9.780108069295e+01 
       2.631830744443e-05       1.221408203809e+02 
       3.313278603720e-05       1.525374501932e+02 
       4.171170630578e-05       1.904975994010e+02 
       5.251192703764e-05       2.379022224249e+02 
       6.610859936996e-05       2.970989227881e+02 
       8.322579568497e-05       3.710167318946e+02 
       1.047750691046e-04       4.633080766742e+02 
       1.319039970183e-04       5.785234129335e+02 
       1.660572937635e-04       7.223242666092e+02 
       2.090537469327e-04       9.017396271824e+02 
       2.631830744443e-04       1.125468123750e+03 
       3.313278603720e-04       1.404223053681e+03 
       4.171170630578e-04       1.751108028790e+03 
       5.251192703764e-04       2.181998448133e+03 
       6.610859936996e-04       2.715889983592e+03 
       8.322579568497e-04       3.375152337134e+03 
       1.047750691046e-03       4.185552174305e+03 
       1.319039970183e-03       5.175742739282e+03 
       1.660572937635e-03       6.376123051776e+03 
       2.090537469327e-03       7.815671866009e+03 
       2.631830744443e-03       9.517783069112e+03 
       3.313278603720e-03       1.149357460345e+04 
       4.171170630578e-03       1.373266010477e+04 
       5.251192703764e-03       1.619063614559e+04 
       6.610859936996e-03       1.877460446729e+04 
       8.322579568497e-03       2.132606801613e+04 
       1.047750691046e-02       2.360547612297e+04 
       1.319039970183e-02       2.528218652230e+04 
       1.660572937633e-02       2.595026703793e+04 
       2.090537453514e-02       2.520938807363e+04 
       2.631818545635e-02       2.287038295200e+04 
       3.311571692125e-02       1.928626273713e+04 
       4.113809243311e-02       1.568425181095e+04 
       4.792590854610e-02       1.361063288859e+04 
       5.284436902701e-02       1.259130470449e+04 
       5.689644391095e-02       1.195556417288e+04 
       6.051252627066e-02       1.147549350570e+04 
       6.388413457411e-02       1.105590279647e+04 
       6.711249296401e-02       1.064900186729e+04 
       7.025823437965e-02       1.022929524020e+04 
       7.336115587705e-02       9.784521461446e+03 
       7.644928796912e-02       9.311665319111e+03 
       7.954353299775e-02       8.814524680718e+03 
       8.266024078725e-02       8.302111966294e+03 
       8.581273398637e-02       7.786950960160e+03 
       8.901225918437e-02       7.283178102817e+03 
       9.226860540985e-02       6.805157287577e+03 
       9.559052048996e-02       6.365636410506e+03 
       9.898599946599e-02       5.974394141436e+03 
       1.024624891378e-01       5.637317778741e+03 
       1.060270359164e-01       5.355761722952e+03 
       1.096863943056e-01       5.126247382623e+03 
       1.134471073830e-01       4.940479761892e+03 
       1.173155669539e-01       4.786161148666e+03 
       1.212980586983e-01       4.647934481595e+03 
       1.254007961065e-01       4.509154772174e+03 
       1.296299459934e-01       4.354541722501e+03 
       1.339916477160e-01       4.173213204459e+03 
       1.384920277736e-01       3.961166273289e+03 
       1.431372111762e-01       3.722689904500e+03 
       1.479333307714e-01       3.469558034229e+03 
       1.528865355934e-01       3.218343845930e+03 
       1.580029992204e-01       2.986295190645e+03 
       1.632889290723e-01       2.786967651717e+03 
       1.687505775527e-01       2.626825820588e+03 
       1.743942559171e-01       2.503761496808e+03 
       1.802263517371e-01       2.407344865354e+03 
       1.862533508214e-01       2.322257708976e+03 
       1.924818644494e-01       2.231554235861e+03 
       1.989186627765e-01       2.122189642418e+03 
       2.055707152847e-01       1.992033699838e+03 
       2.124452391818e-01       1.850322820177e+03 
       2.195497567139e-01       1.712182563283e+03 
       2.268921624510e-01       1.590989444310e+03 
       2.344808017550e-01       1.493668523604e+03 
       2.423245618548e-01       1.418310313687e+03 
       2.504329772620e-01       1.354464474638e+03 
       2.588163516754e-01       1.288938153657e+03 
       2.674858990930e-01       1.213933562288e+03 
       2.764539076010e-01       1.130689999333e+03 
       2.857339303080e-01       1.048098703304e+03 
       2.953410092148e-01       9.761841519310e+02 
       3.052919395542e-01       9.178096929632e+02 
       3.156055844677e-01       8.679007155052e+02 
       3.263032530092e-01       8.185280197262e+02 
       3.374091587054e-01       7.651478712862e+02 
       3.489509817175e-01       7.106690206122e+02 
       3.609605657343e-01       6.607843724629e+02 
       3.734747921333e-01       6.180865520465e+02 
       3.865366902904e-01       5.793104455014e+02 
       4.001968667448e-01       5.403898463833e+02 
       4.145153713076e-01       5.011515343023e+02 
       4.295641718077e-01       4.644993196025e+02 
       4.454304922144e-01       4.314079045352e+02 
       4.622214006969e-01       4.001124447538e+02 
       4.800702491654e-01       3.690881596353e+02 
       4.991459272112e-01       3.394760635042e+02 
       5.196665217302e-01       3.119845471988e+02 
       5.419201087032e-01       2.852466690530e+02 
       5.662975451962e-01       2.593307579279e+02 
       5.933463737275e-01       2.345484737665e+02 
       6.238638458458e-01       2.102309909548e+02 
       6.590669257916e-01       1.864334165650e+02 
       7.009246080454e-01       1.627257353916e+02 
       7.528593308799e-01       1.388185965119e+02 
       8.213469537518e-01       1.141881760245e+02 
       9.196980813302e-01       8.835948703900e+01 
       1.075112183810e+00       6.172621707210e+01 
       1.322697471132e+00       3.804279819984e+01 
       1.662328205042e+00       2.209808459062e+01 
       2.092692408506e+00       1.266915830347e+01 
       2.634543445090e+00       7.203303470836e+00 
       3.316693691389e+00       4.065138698682e+00 
       4.175469971226e+00       2.278612028425e+00 
       5.256605252960e+00       1.269345455349e+00 
       6.617673932723e+00       7.031339386270e-01 
       8.331157880872e+00       3.874771445030e-01 
       1.048830636590e+01       2.125094650954e-01 
       1.320399541071e+01       1.160364460638e-01 
       1.662284535976e+01       6.309856803546e-02 
       2.092692243973e+01       3.417973411274e-02 
       2.634543445002e+01       1.844604929871e-02 
       3.316693691389e+01       9.919094255530e-03 
       4.175469971226e+01       5.314546912014e-03 
       5.256605252960e+01       2.836637554659e-03 
       6.617673932723e+01       1.507642383422e-03 
