# Matter power spectrum P(k) at redshift z=99
# for k=1.04775e-05 to 66.1767 h/Mpc,
# number of wavenumbers equal to 130
#    1:k (h/Mpc)              2:P (Mpc/h)^3        
       1.047750691046e-05       7.261927680862e-03 
       1.319039970183e-05       9.069258201849e-03 
       1.660572937635e-05       1.132639106725e-02 
       2.090537469327e-05       1.414527123399e-02 
       2.631830744443e-05       1.766569584058e-02 
       3.313278603720e-05       2.206225515942e-02 
       4.171170630578e-05       2.755297766277e-02 
       5.251192703764e-05       3.441013522947e-02 
       6.610859936996e-05       4.297372172778e-02 
       8.322579568497e-05       5.366826852944e-02 
       1.047750691046e-04       6.702379872774e-02 
       1.319039970183e-04       8.370193441286e-02 
       1.660572937635e-04       1.045283355384e-01 
       2.090537469327e-04       1.305329134104e-01 
       2.631830744443e-04       1.629994506605e-01 
       3.313278603720e-04       2.035264004601e-01 
       4.171170630578e-04       2.541004744243e-01 
       5.251192703764e-04       3.171839528557e-01 
       6.610859936996e-04       3.958147256513e-01 
       8.322579568497e-04       4.937136006277e-01 
       1.047750691046e-03       6.153841636041e-01 
       1.319039970183e-03       7.661720592728e-01 
       1.660572937635e-03       9.522588016480e-01 
       2.090537469327e-03       1.180312991698e+00 
       2.631830744443e-03       1.456802684686e+00 
       3.313278603720e-03       1.786503854041e+00 
       4.171170630578e-03       2.169896196907e+00 
       5.251192703764e-03       2.599430630721e+00 
       6.610859936996e-03       3.055668715054e+00 
       8.322579568497e-03       3.505725598513e+00 
       1.047750691046e-02       3.905490996809e+00 
       1.319039970183e-02       4.200915412147e+00 
       1.660572937633e-02       4.325061038787e+00 
       2.090537453514e-02       4.210204227208e+00 
       2.631818545635e-02       3.825157297802e+00 
       3.311571692125e-02       3.229060696635e+00 
       4.113809243311e-02       2.627730428292e+00 
       4.792590854610e-02       2.280789661435e+00 
       5.284436902701e-02       2.110085134449e+00 
       5.689644391095e-02       2.003540289043e+00 
       6.051252627066e-02       1.923056185608e+00 
       6.388413457411e-02       1.852729966204e+00 
       6.711249296401e-02       1.784564794986e+00 
       7.025823437965e-02       1.714277756311e+00 
       7.336115587705e-02       1.639815112023e+00 
       7.644928796912e-02       1.560662932310e+00 
       7.954353299775e-02       1.477460460225e+00 
       8.266024078725e-02       1.391698456858e+00 
       8.581273398637e-02       1.305461075880e+00 
       8.901225918437e-02       1.221129952142e+00 
       9.226860540985e-02       1.141080550924e+00 
       9.559052048996e-02       1.067449052797e+00 
       9.898599946599e-02       1.001891009773e+00 
       1.024624891378e-01       9.453818360035e-01 
       1.060270359164e-01       8.981497208805e-01 
       1.096863943056e-01       8.596147721299e-01 
       1.134471073830e-01       8.284071305944e-01 
       1.173155669539e-01       8.024658630333e-01 
       1.212980586983e-01       7.792301892701e-01 
       1.254007961065e-01       7.559185779477e-01 
       1.296299459934e-01       7.299837883856e-01 
       1.339916477160e-01       6.995920004209e-01 
       1.384920277736e-01       6.640766787234e-01 
       1.431372111762e-01       6.241458477713e-01 
       1.479333307714e-01       5.817639321080e-01 
       1.528865355934e-01       5.396936781052e-01 
       1.580029992204e-01       5.008145694363e-01 
       1.632889290723e-01       4.673994218523e-01 
       1.687505775527e-01       4.405346770087e-01 
       1.743942559171e-01       4.198653808637e-01 
       1.802263517371e-01       4.036596557825e-01 
       1.862533508214e-01       3.893599738898e-01 
       1.924818644494e-01       3.741342777205e-01 
       1.989186627765e-01       3.558009197834e-01 
       2.055707152847e-01       3.339998894879e-01 
       2.124452391818e-01       3.102663036193e-01 
       2.195497567139e-01       2.871221747208e-01 
       2.268921624510e-01       2.668079687227e-01 
       2.344808017550e-01       2.504829110970e-01 
       2.423245618548e-01       2.378332605850e-01 
       2.504329772620e-01       2.271118944912e-01 
       2.588163516754e-01       2.161170405308e-01 
       2.674858990930e-01       2.035452448936e-01 
       2.764539076010e-01       1.895974446576e-01 
       2.857339303080e-01       1.757574800903e-01 
       2.953410092148e-01       1.636992598273e-01 
       3.052919395542e-01       1.539062207136e-01 
       3.156055844677e-01       1.455315885551e-01 
       3.263032530092e-01       1.372504802120e-01 
       3.374091587054e-01       1.283021529187e-01 
       3.489509817175e-01       1.191712203658e-01 
       3.609605657343e-01       1.108071645926e-01 
       3.734747921333e-01       1.036453332166e-01 
       3.865366902904e-01       9.714128537787e-02 
       4.001968667448e-01       9.061560102446e-02 
       4.145153713076e-01       8.403704652644e-02 
       4.295641718077e-01       7.789114825471e-02 
       4.454304922144e-01       7.234184749557e-02 
       4.622214006969e-01       6.709375477284e-02 
       4.800702491654e-01       6.189186660259e-02 
       4.991459272112e-01       5.692620756542e-02 
       5.196665217302e-01       5.231613715129e-02 
       5.419201087032e-01       4.783262751248e-02 
       5.662975451962e-01       4.348684810254e-02 
       5.933463737275e-01       3.933111868261e-02 
       6.238638458458e-01       3.525345887290e-02 
       6.590669257916e-01       3.126282022158e-02 
       7.009246080454e-01       2.728736452383e-02 
       7.528593308799e-01       2.327837985772e-02 
       8.213469537518e-01       1.914831055347e-02 
       9.196980813302e-01       1.481700845042e-02 
       1.075112183810e+00       1.035091604576e-02 
       1.322697471132e+00       6.379476099334e-03 
       1.662328205042e+00       3.705653308110e-03 
       2.092692408506e+00       2.124531966180e-03 
       2.634543445090e+00       1.207958900427e-03 
       3.316693691389e+00       6.817110855924e-04 
       4.175469971226e+00       3.821200100734e-04 
       5.256605252960e+00       2.128738432651e-04 
       6.617673932723e+00       1.179201861364e-04 
       8.331157880872e+00       6.498529151844e-05 
       1.048830636590e+01       3.564314490901e-05 
       1.320399541071e+01       1.946395837440e-05 
       1.662284535976e+01       1.058564260942e-05 
       2.092692243973e+01       5.735241007590e-06 
       2.634543445002e+01       3.096117593865e-06 
       3.316693691389e+01       1.665562460572e-06 
       4.175469971226e+01       8.928136811082e-07 
       5.256605252960e+01       4.767532052281e-07 
       6.617673932723e+01       2.533920779673e-07 
