# Matter power spectrum P(k) at redshift z=99
# for k=1.04775e-05 to 67.6233 h/Mpc,
# number of wavenumbers equal to 246
#    1:k (h/Mpc)              2:P (Mpc/h)^3        
       1.047750691046e-05       7.261927680870e-03 
       1.131335172503e-05       7.820331652441e-03 
       1.221587619537e-05       8.421675995464e-03 
       1.319039970183e-05       9.069258201860e-03 
       1.424266597921e-05       9.766638412145e-03 
       1.537887696968e-05       1.051764070802e-02 
       1.660572937635e-05       1.132639106727e-02 
       1.793045413292e-05       1.219733232716e-02 
       1.936085902198e-05       1.313524225780e-02 
       2.090537469327e-05       1.414527123401e-02 
       2.257310435294e-05       1.523296273825e-02 
       2.437387741694e-05       1.640429446290e-02 
       2.631830744443e-05       1.766569584060e-02 
       2.841785469300e-05       1.902408737007e-02 
       3.068489366414e-05       2.048692972775e-02 
       3.313278603720e-05       2.206225515945e-02 
       3.577595942169e-05       2.375870707441e-02 
       3.862999239199e-05       2.558560730205e-02 
       4.171170630578e-05       2.755297766280e-02 
       4.503926444729e-05       2.967161930480e-02 
       4.863227907969e-05       3.195316454237e-02 
       5.251192703764e-05       3.441013522951e-02 
       5.670107454120e-05       3.705601726474e-02 
       6.122441196689e-05       3.990533417802e-02 
       6.610859936996e-05       4.297372172783e-02 
       7.138242361596e-05       4.627802146620e-02 
       7.707696804727e-05       4.983636199470e-02 
       8.322579568497e-05       5.366826852951e-02 
       8.986514704559e-05       5.779476400728e-02 
       9.703415373875e-05       6.223848250517e-02 
       1.047750691046e-04       6.702379872782e-02 
       1.131335172503e-04       7.217695161072e-02 
       1.221587619537e-04       7.772619081855e-02 
       1.319039970183e-04       8.370193441296e-02 
       1.424266597921e-04       9.013692517153e-02 
       1.537887696968e-04       9.706641252914e-02 
       1.660572937635e-04       1.045283355385e-01 
       1.793045413292e-04       1.125635350268e-01 
       1.936085902198e-04       1.212159616260e-01 
       2.090537469327e-04       1.305329134105e-01 
       2.257310435294e-04       1.405652847713e-01 
       2.437387741694e-04       1.513678304153e-01 
       2.631830744443e-04       1.629994506607e-01 
       2.841785469300e-04       1.755234923095e-01 
       3.068489366414e-04       1.890080672427e-01 
       3.313278603720e-04       2.035264004604e-01 
       3.577595942169e-04       2.191571806016e-01 
       3.862999239199e-04       2.359849440107e-01 
       4.171170630578e-04       2.541004744246e-01 
       4.503926444729e-04       2.736012083192e-01 
       4.863227907969e-04       2.945916794103e-01 
       5.251192703764e-04       3.171839528561e-01 
       5.670107454121e-04       3.414980767638e-01 
       6.122441196689e-04       3.676625417015e-01 
       6.610859936996e-04       3.958147256517e-01 
       7.138242361596e-04       4.261013289364e-01 
       7.707696804727e-04       4.586787797354e-01 
       8.322579568497e-04       4.937136006285e-01 
       8.986514704559e-04       5.313826807053e-01 
       9.703415373875e-04       5.718734978238e-01 
       1.047750691046e-03       6.153841636050e-01 
       1.131335172503e-03       6.621233246499e-01 
       1.221587619537e-03       7.123098227996e-01 
       1.319039970183e-03       7.661720592546e-01 
       1.424266597921e-03       8.239546306464e-01 
       1.537887696968e-03       8.859011182850e-01 
       1.660572937635e-03       9.522588016490e-01 
       1.793045413292e-03       1.023280100901e+00 
       1.936085902198e-03       1.099216305739e+00 
       2.090537469327e-03       1.180312991696e+00 
       2.257310435294e-03       1.266804117185e+00 
       2.437387741694e-03       1.358904854833e+00 
       2.631830744443e-03       1.456802684681e+00 
       2.841785469300e-03       1.560646892150e+00 
       3.068489366414e-03       1.670536064236e+00 
       3.313278603720e-03       1.786503854031e+00 
       3.577595942169e-03       1.908502932756e+00 
       3.862999239199e-03       2.036387732796e+00 
       4.171170630578e-03       2.169896192687e+00 
       4.503926444729e-03       2.308631881327e+00 
       4.863227907969e-03       2.452047293419e+00 
       5.251192703764e-03       2.599430630670e+00 
       5.670107454120e-03       2.749896934529e+00 
       6.122441196689e-03       2.902386516192e+00 
       6.610859936996e-03       3.055668715643e+00 
       7.138242361596e-03       3.208356464530e+00 
       7.707696804727e-03       3.358923895731e+00 
       8.322579568496e-03       3.505725598541e+00 
       8.986514704559e-03       3.647008941677e+00 
       9.703415373875e-03       3.780923307447e+00 
       1.047750691046e-02       3.905492553933e+00 
       1.131335172503e-02       4.018587644119e+00 
       1.221587619537e-02       4.117901587908e+00 
       1.319039970183e-02       4.200915362087e+00 
       1.424266597920e-02       4.264942517174e+00 
       1.537887696964e-02       4.307219490874e+00 
       1.660572937560e-02       4.325062531814e+00 
       1.793045412207e-02       4.316058350698e+00 
       1.936085889642e-02       4.278226741641e+00 
       2.090537351881e-02       4.210203508409e+00 
       2.257309534705e-02       4.111416773930e+00 
       2.437382002240e-02       3.982421056258e+00 
       2.631799943729e-02       3.825158867902e+00 
       2.841644544598e-02       3.643285772067e+00 
       3.067933354524e-02       3.442191167976e+00 
       3.311368469821e-02       3.229234554011e+00 
       3.571840442514e-02       3.013512458658e+00 
       3.847720347390e-02       2.805278829501e+00 
       4.135335537314e-02       2.614410388456e+00 
       4.429361666563e-02       2.448136492718e+00 
       4.724366437916e-02       2.309239902458e+00 
       5.016480834039e-02       2.196113056602e+00 
       5.303989618930e-02       2.104365788485e+00 
       5.586870668205e-02       2.028466871919e+00 
       5.866042679206e-02       1.963152308922e+00 
       6.142798931504e-02       1.903777263811e+00 
       6.418496438662e-02       1.846477074511e+00 
       6.694418832236e-02       1.788196718506e+00 
       6.971731104453e-02       1.726712342497e+00 
       7.251476154108e-02       1.660650868852e+00 
       7.534587669814e-02       1.589466621402e+00 
       7.821907664495e-02       1.513440451964e+00 
       8.114203771084e-02       1.433565722516e+00 
       8.412184533139e-02       1.351491798786e+00 
       8.716512277352e-02       1.269272935554e+00 
       9.027813693913e-02       1.189195701721e+00 
       9.346688429613e-02       1.113501996346e+00 
       9.673716026122e-02       1.044175344266e+00 
       1.000946150608e-01       9.827067437650e-01 
       1.035447986307e-01       9.299374071371e-01 
       1.070931966524e-01       8.859597388275e-01 
       1.107452594180e-01       8.500713322312e-01 
       1.145064248899e-01       8.208015509912e-01 
       1.183821370656e-01       7.960270491343e-01 
       1.223778605591e-01       7.731450882919e-01 
       1.264990921707e-01       7.494526085359e-01 
       1.307513701078e-01       7.225571252932e-01 
       1.351402814485e-01       6.909099279909e-01 
       1.396714683894e-01       6.541817715347e-01 
       1.443506337875e-01       6.134283783459e-01 
       1.491835464900e-01       5.708706176222e-01 
       1.541760469368e-01       5.293641042383e-01 
       1.593340535209e-01       4.917104227606e-01 
       1.646635701934e-01       4.599197511626e-01 
       1.701706958081e-01       4.347282820167e-01 
       1.758616357070e-01       4.154082386506e-01 
       1.817427160581e-01       3.999355964477e-01 
       1.878204014651e-01       3.856861516073e-01 
       1.941013163855e-01       3.698128764753e-01 
       2.005922709060e-01       3.505502817566e-01 
       2.073002914514e-01       3.280468675651e-01 
       2.142326570343e-01       3.042144321137e-01 
       2.213969417044e-01       2.816113579723e-01 
       2.288010639201e-01       2.622560407743e-01 
       2.364533436625e-01       2.469614646834e-01 
       2.443625682390e-01       2.350126389731e-01 
       2.525380678946e-01       2.244205856081e-01 
       2.609898025770e-01       2.130964127950e-01 
       2.697284614969e-01       2.001025001277e-01 
       2.787655775073e-01       1.860191934145e-01 
       2.881136588192e-01       1.725164399793e-01 
       2.977863412019e-01       1.610658118133e-01 
       3.077985646248e-01       1.517600911156e-01 
       3.181667793367e-01       1.435592161516e-01 
       3.289091877084e-01       1.351814840891e-01 
       3.400460298905e-01       1.261639344314e-01 
       3.515999235695e-01       1.172012292605e-01 
       3.635962710278e-01       1.091764824260e-01 
       3.760637505499e-01       1.023087190393e-01 
       3.890349143014e-01       9.593706111660e-02 
       4.025469215929e-01       8.950694855886e-02 
       4.166424455447e-01       8.311123219592e-02 
       4.313708034899e-01       7.721479874379e-02 
       4.467893781976e-01       7.189999396987e-02 
       4.629654198623e-01       6.686839449991e-02 
       4.799783500912e-01       6.191680464954e-02 
       4.979227318246e-01       5.722136066441e-02 
       5.169121269689e-01       5.290208839242e-02 
       5.370841403262e-01       4.876893981781e-02 
       5.586070463286e-01       4.478981707851e-02 
       5.816885093582e-01       4.105087746160e-02 
       6.065870143577e-01       3.748883008558e-02 
       6.336266466978e-01       3.407513457974e-02 
       6.632156057925e-01       3.083340891819e-02 
       6.958678637575e-01       2.772710564246e-02 
       7.322247983784e-01       2.476573564345e-02 
       7.730680193171e-01       2.193817475186e-02 
       8.193049551574e-01       1.925455007268e-02 
       8.718988013754e-01       1.672754758131e-02 
       9.317218028590e-01       1.438236010080e-02 
       9.993660906273e-01       1.224862180458e-02 
       1.075037109879e+00       1.035038840330e-02 
       1.158653485387e+00       8.697263321475e-03 
       1.250099156961e+00       7.281861390011e-03 
       1.349432400897e+00       6.082439258978e-03 
       1.456947456991e+00       5.072432108801e-03 
       1.573135110893e+00       4.224657200104e-03 
       1.698621895119e+00       3.514554234431e-03 
       1.834127512423e+00       2.920582933975e-03 
       1.980444933977e+00       2.424342814720e-03 
       2.138435191130e+00       2.010224801321e-03 
       2.309029198543e+00       1.664985165498e-03 
       2.493232376993e+00       1.377466380803e-03 
       2.692130394536e+00       1.138219854201e-03 
       2.906895533764e+00       9.393065180450e-04 
       3.138793596840e+00       7.740684407845e-04 
       3.389191365541e+00       6.368845241026e-04 
       3.659564656886e+00       5.230637375660e-04 
       3.951507021438e+00       4.286751695558e-04 
       4.266739135513e+00       3.504301327813e-04 
       4.607118942658e+00       2.855864573693e-04 
       4.974652604172e+00       2.318627693496e-04 
       5.371506323193e+00       1.873584063000e-04 
       5.800019112071e+00       1.504988503941e-04 
       6.262716578240e+00       1.199824234451e-04 
       6.762325809881e+00       9.473469611273e-05 
       7.301791449077e+00       7.387753187483e-05 
       7.884293047211e+00       5.669054026683e-05 
       8.513263804891e+00       4.259262446617e-05 
       9.192410806865e+00       3.111550383130e-05 
       9.925736871166e+00       2.188613847036e-05 
       1.071756414128e+01       1.460485507956e-05 
       1.157255956041e+01       9.032310515013e-06 
       1.249576237789e+01       4.967820850872e-06 
       1.349261385000e+01       2.232322103715e-06 
       1.456898931011e+01       6.498151757050e-07 
       1.573123279727e+01       2.992446303344e-08 
       1.698619444729e+01       1.551640088016e-07 
       1.834127086665e+01       7.753077742297e-07 
       1.980444872733e+01       1.615090526408e-06 
       2.138435183937e+01       2.398117304557e-06 
       2.309029197863e+01       2.886672804531e-06 
       2.493232376942e+01       2.931836295384e-06 
       2.692130394533e+01       2.517195398331e-06 
       2.906895533764e+01       1.774002493824e-06 
       3.138793596840e+01       9.466490642552e-07 
       3.389191365541e+01       3.026577069545e-07 
       3.659564656886e+01       1.388762389843e-08 
       3.951507021438e+01       6.846225017347e-08 
       4.266739135513e+01       2.795733418217e-07 
       4.607118942658e+01       4.104129537425e-07 
       4.974652604172e+01       3.431250212695e-07 
       5.371506323193e+01       1.547896904774e-07 
       5.800019112071e+01       1.745158346596e-08 
       6.262716578240e+01       1.160372524883e-08 
       6.762325809881e+01       5.996575994787e-08 
