# Matter power spectrum P(k) at redshift z=0
# for k=1.04775e-05 to 66.1767 h/Mpc,
# number of wavenumbers equal to 130
#    1:k (h/Mpc)              2:P (Mpc/h)^3        
       1.047750691046e-05       5.020964811307e+01 
       1.319039970183e-05       6.270562594781e+01 
       1.660572937635e-05       7.831147247912e+01 
       2.090537469327e-05       9.780108069295e+01 
       2.631830744443e-05       1.221408203809e+02 
       3.313278603720e-05       1.525374501932e+02 
       4.171170630578e-05       1.904975994010e+02 
       5.251192703764e-05       2.379022224249e+02 
       6.610859936996e-05       2.970989227882e+02 
       8.322579568497e-05       3.710167318946e+02 
       1.047750691046e-04       4.633080766742e+02 
       1.319039970183e-04       5.785234129331e+02 
       1.660572937635e-04       7.223242666092e+02 
       2.090537469327e-04       9.017396271824e+02 
       2.631830744443e-04       1.125468123750e+03 
       3.313278603720e-04       1.404223053681e+03 
       4.171170630578e-04       1.751108028790e+03 
       5.251192703764e-04       2.181998448133e+03 
       6.610859936996e-04       2.715889983592e+03 
       8.322579568497e-04       3.375152337134e+03 
       1.047750691046e-03       4.185552174304e+03 
       1.319039970183e-03       5.175742742274e+03 
       1.660572937635e-03       6.376123051781e+03 
       2.090537469327e-03       7.815671867693e+03 
       2.631830744443e-03       9.517783069104e+03 
       3.313278603720e-03       1.149357460341e+04 
       4.171170630578e-03       1.373266009385e+04 
       5.251192703764e-03       1.619063613686e+04 
       6.610859936996e-03       1.877460424183e+04 
       8.322579568497e-03       2.132607238861e+04 
       1.047750691046e-02       2.360549387616e+04 
       1.319039970183e-02       2.528218676631e+04 
       1.660572937633e-02       2.595027214956e+04 
       2.090537453514e-02       2.520934205505e+04 
       2.631818545635e-02       2.287035675327e+04 
       3.311571692125e-02       1.928622295448e+04 
       4.113809243311e-02       1.568426691717e+04 
       4.792590854610e-02       1.361059011496e+04 
       5.284436902701e-02       1.259128763229e+04 
       5.689644391095e-02       1.195556846458e+04 
       6.051252627066e-02       1.147550736759e+04 
       6.388413457411e-02       1.105596044453e+04 
       6.711249296401e-02       1.064905890277e+04 
       7.025823437965e-02       1.022930587037e+04 
       7.336115587705e-02       9.784588210425e+03 
       7.644928796912e-02       9.311699420052e+03 
       7.954353299775e-02       8.814589991614e+03 
       8.266024078725e-02       8.302202734590e+03 
       8.581273398637e-02       7.786979394108e+03 
       8.901225918437e-02       7.283232285177e+03 
       9.226860540985e-02       6.805204403402e+03 
       9.559052048996e-02       6.365635353534e+03 
       9.898599946599e-02       5.974405195093e+03 
       1.024624891378e-01       5.637351227082e+03 
       1.060270359164e-01       5.355812675341e+03 
       1.096863943056e-01       5.126277257984e+03 
       1.134471073830e-01       4.940501831852e+03 
       1.173155669539e-01       4.786189213688e+03 
       1.212980586983e-01       4.647935488664e+03 
       1.254007961065e-01       4.509151167057e+03 
       1.296299459934e-01       4.354579516080e+03 
       1.339916477160e-01       4.173209690299e+03 
       1.384920277736e-01       3.961176028088e+03 
       1.431372111762e-01       3.722676317883e+03 
       1.479333307714e-01       3.469555797516e+03 
       1.528865355934e-01       3.218320738098e+03 
       1.580029992204e-01       2.986267564625e+03 
       1.632889290723e-01       2.786955430841e+03 
       1.687505775527e-01       2.626803926283e+03 
       1.743942559171e-01       2.503756874340e+03 
       1.802263517371e-01       2.407313097607e+03 
       1.862533508214e-01       2.322221989244e+03 
       1.924818644494e-01       2.231529023116e+03 
       1.989186627765e-01       2.122173792437e+03 
       2.055707152847e-01       1.992034462596e+03 
       2.124452391818e-01       1.850319273942e+03 
       2.195497567139e-01       1.712153651293e+03 
       2.268921624510e-01       1.590968811866e+03 
       2.344808017550e-01       1.493657193742e+03 
       2.423245618548e-01       1.418309560260e+03 
       2.504329772620e-01       1.354447584272e+03 
       2.588163516754e-01       1.288940886781e+03 
       2.674858990930e-01       1.213933973399e+03 
       2.764539076010e-01       1.130686653079e+03 
       2.857339303080e-01       1.048085493455e+03 
       2.953410092148e-01       9.761753429742e+02 
       3.052919395542e-01       9.178029234926e+02 
       3.156055844677e-01       8.678902986062e+02 
       3.263032530092e-01       8.185222637670e+02 
       3.374091587054e-01       7.651342328480e+02 
       3.489509817175e-01       7.106600205711e+02 
       3.609605657343e-01       6.607771744499e+02 
       3.734747921333e-01       6.180805240326e+02 
       3.865366902904e-01       5.793018005950e+02 
       4.001968667448e-01       5.403845262795e+02 
       4.145153713076e-01       5.011423790804e+02 
       4.295641718077e-01       4.644950052770e+02 
       4.454304922144e-01       4.313999449557e+02 
       4.622214006969e-01       4.001082915772e+02 
       4.800702491654e-01       3.690833340062e+02 
       4.991459272112e-01       3.394706428196e+02 
       5.196665217302e-01       3.119802421022e+02 
       5.419201087032e-01       2.852417374203e+02 
       5.662975451962e-01       2.593265258477e+02 
       5.933463737275e-01       2.345440845168e+02 
       6.238638458458e-01       2.102288155194e+02 
       6.590669257916e-01       1.864323167817e+02 
       7.009246080454e-01       1.627234943884e+02 
       7.528593308799e-01       1.388173506537e+02 
       8.213469537518e-01       1.141880677734e+02 
       9.196980813302e-01       8.835842082771e+01 
       1.075112183810e+00       6.172544062768e+01 
       1.322697471132e+00       3.804276593898e+01 
       1.662328205042e+00       2.209775661279e+01 
       2.092692408506e+00       1.266897051267e+01 
       2.634543445090e+00       7.203091131457e+00 
       3.316693691389e+00       4.064925576995e+00 
       4.175469971226e+00       2.278338604755e+00 
       5.256605252960e+00       1.269106714378e+00 
       6.617673932723e+00       7.028633183769e-01 
       8.331157880872e+00       3.871547187350e-01 
       1.048830636590e+01       2.121224903445e-01 
       1.320399541071e+01       1.155648861233e-01 
       1.662284535976e+01       6.252378067795e-02 
       2.092692243973e+01       3.347900715268e-02 
       2.634543445002e+01       1.760156892977e-02 
       3.316693691389e+01       8.924386872276e-03 
       4.175469971226e+01       4.191484260864e-03 
       5.256605252960e+01       1.660072919744e-03 
       6.617673932723e+01       4.273987631605e-04 
