# Matter power spectrum P(k) at redshift z=99
# for k=1.04775e-05 to 66.1767 h/Mpc,
# number of wavenumbers equal to 130
#    1:k (h/Mpc)              2:P (Mpc/h)^3        
       1.047750691046e-05       7.261927680862e-03 
       1.319039970183e-05       9.069258201849e-03 
       1.660572937635e-05       1.132639106725e-02 
       2.090537469327e-05       1.414527123399e-02 
       2.631830744443e-05       1.766569584058e-02 
       3.313278603720e-05       2.206225515943e-02 
       4.171170630578e-05       2.755297766277e-02 
       5.251192703764e-05       3.441013522947e-02 
       6.610859936996e-05       4.297372172778e-02 
       8.322579568497e-05       5.366826852945e-02 
       1.047750691046e-04       6.702379872775e-02 
       1.319039970183e-04       8.370193441286e-02 
       1.660572937635e-04       1.045283355384e-01 
       2.090537469327e-04       1.305329134104e-01 
       2.631830744443e-04       1.629994506606e-01 
       3.313278603720e-04       2.035264004601e-01 
       4.171170630578e-04       2.541004744243e-01 
       5.251192703764e-04       3.171839528557e-01 
       6.610859936996e-04       3.958147256514e-01 
       8.322579568497e-04       4.937136006257e-01 
       1.047750691046e-03       6.153841636041e-01 
       1.319039970183e-03       7.661720592536e-01 
       1.660572937635e-03       9.522588016470e-01 
       2.090537469327e-03       1.180312991699e+00 
       2.631830744443e-03       1.456802684685e+00 
       3.313278603720e-03       1.786503854044e+00 
       4.171170630578e-03       2.169896193683e+00 
       5.251192703764e-03       2.599430630718e+00 
       6.610859936996e-03       3.055668700005e+00 
       8.322579568497e-03       3.505724933550e+00 
       1.047750691046e-02       3.905491881389e+00 
       1.319039970183e-02       4.200915337931e+00 
       1.660572937633e-02       4.325062939010e+00 
       2.090537453514e-02       4.210201815822e+00 
       2.631818545635e-02       3.825150163884e+00 
       3.311571692125e-02       3.229059197271e+00 
       4.113809243311e-02       2.627723437861e+00 
       4.792590854610e-02       2.280798967010e+00 
       5.284436902701e-02       2.110086739484e+00 
       5.689644391095e-02       2.003547061524e+00 
       6.051252627066e-02       1.923058684218e+00 
       6.388413457411e-02       1.852733604547e+00 
       6.711249296401e-02       1.784562460381e+00 
       7.025823437965e-02       1.714279802621e+00 
       7.336115587705e-02       1.639812626930e+00 
       7.644928796912e-02       1.560664955968e+00 
       7.954353299775e-02       1.477455924303e+00 
       8.266024078725e-02       1.391697225486e+00 
       8.581273398637e-02       1.305462965995e+00 
       8.901225918437e-02       1.221126526619e+00 
       9.226860540985e-02       1.141078100463e+00 
       9.559052048996e-02       1.067452334165e+00 
       9.898599946599e-02       1.001889977531e+00 
       1.024624891378e-01       9.453800045388e-01 
       1.060270359164e-01       8.981493721254e-01 
       1.096863943056e-01       8.596136933622e-01 
       1.134471073830e-01       8.284056847350e-01 
       1.173155669539e-01       8.024666184863e-01 
       1.212980586983e-01       7.792298767726e-01 
       1.254007961065e-01       7.559171682849e-01 
       1.296299459934e-01       7.299810932866e-01 
       1.339916477160e-01       6.995919951785e-01 
       1.384920277736e-01       6.640780778774e-01 
       1.431372111762e-01       6.241464692557e-01 
       1.479333307714e-01       5.817637037320e-01 
       1.528865355934e-01       5.396936684847e-01 
       1.580029992204e-01       5.008139106320e-01 
       1.632889290723e-01       4.673991378855e-01 
       1.687505775527e-01       4.405348013420e-01 
       1.743942559171e-01       4.198654644834e-01 
       1.802263517371e-01       4.036598533025e-01 
       1.862533508214e-01       3.893596322037e-01 
       1.924818644494e-01       3.741347656350e-01 
       1.989186627765e-01       3.558009421354e-01 
       2.055707152847e-01       3.339989256923e-01 
       2.124452391818e-01       3.102659994155e-01 
       2.195497567139e-01       2.871226273557e-01 
       2.268921624510e-01       2.668077648573e-01 
       2.344808017550e-01       2.504829433464e-01 
       2.423245618548e-01       2.378332965791e-01 
       2.504329772620e-01       2.271122399255e-01 
       2.588163516754e-01       2.161186201217e-01 
       2.674858990930e-01       2.035454992677e-01 
       2.764539076010e-01       1.895981013907e-01 
       2.857339303080e-01       1.757567925411e-01 
       2.953410092148e-01       1.636989315318e-01 
       3.052919395542e-01       1.539064556703e-01 
       3.156055844677e-01       1.455310547978e-01 
       3.263032530092e-01       1.372504321651e-01 
       3.374091587054e-01       1.283022463072e-01 
       3.489509817175e-01       1.191712404601e-01 
       3.609605657343e-01       1.108072960577e-01 
       3.734747921333e-01       1.036451604822e-01 
       3.865366902904e-01       9.714116734432e-02 
       4.001968667448e-01       9.061525961263e-02 
       4.145153713076e-01       8.403697757540e-02 
       4.295641718077e-01       7.789117902349e-02 
       4.454304922144e-01       7.234159487008e-02 
       4.622214006969e-01       6.709371885723e-02 
       4.800702491654e-01       6.189174035126e-02 
       4.991459272112e-01       5.692635223130e-02 
       5.196665217302e-01       5.231609252716e-02 
       5.419201087032e-01       4.783251674889e-02 
       5.662975451962e-01       4.348687162759e-02 
       5.933463737275e-01       3.933098981211e-02 
       6.238638458458e-01       3.525329065013e-02 
       6.590669257916e-01       3.126281830691e-02 
       7.009246080454e-01       2.728721271473e-02 
       7.528593308799e-01       2.327835381488e-02 
       8.213469537518e-01       1.914803775314e-02 
       9.196980813302e-01       1.481676639384e-02 
       1.075112183810e+00       1.035058186522e-02 
       1.322697471132e+00       6.379052121014e-03 
       1.662328205042e+00       3.705081432362e-03 
       2.092692408506e+00       2.123776429476e-03 
       2.634543445090e+00       1.206954877725e-03 
       3.316693691389e+00       6.803893869588e-04 
       4.175469971226e+00       3.804123248170e-04 
       5.256605252960e+00       2.106904478409e-04 
       6.617673932723e+00       1.151815466204e-04 
       8.331157880872e+00       6.162090846966e-05 
       1.048830636590e+01       3.164464910854e-05 
       1.320399541071e+01       1.494566365148e-05 
       1.662284535976e+01       5.880938471147e-06 
       2.092692243973e+01       1.463625107003e-06 
       2.634543445002e+01       4.127055046917e-08 
       3.316693691389e+01       2.630936309616e-07 
       4.175469971226e+01       6.105664195497e-07 
       5.256605252960e+01       2.708967628367e-07 
       6.617673932723e+01       3.458411081247e-10 
