# Matter power spectrum P(k) at redshift z=99
# for k=1.04775e-05 to 67.6233 h/Mpc,
# number of wavenumbers equal to 246
#    1:k (h/Mpc)              2:P (Mpc/h)^3        
       1.047750691046e-05       7.261927680861e-03 
       1.131335172503e-05       7.820331652431e-03 
       1.221587619537e-05       8.421675995453e-03 
       1.319039970183e-05       9.069258201848e-03 
       1.424266597921e-05       9.766638412133e-03 
       1.537887696968e-05       1.051764070801e-02 
       1.660572937635e-05       1.132639106725e-02 
       1.793045413292e-05       1.219733232715e-02 
       1.936085902198e-05       1.313524225779e-02 
       2.090537469327e-05       1.414527123399e-02 
       2.257310435294e-05       1.523296273823e-02 
       2.437387741694e-05       1.640429446288e-02 
       2.631830744443e-05       1.766569584058e-02 
       2.841785469300e-05       1.902408737005e-02 
       3.068489366414e-05       2.048692972772e-02 
       3.313278603720e-05       2.206225515942e-02 
       3.577595942169e-05       2.375870707438e-02 
       3.862999239199e-05       2.558560730202e-02 
       4.171170630578e-05       2.755297766277e-02 
       4.503926444729e-05       2.967161930474e-02 
       4.863227907969e-05       3.195316454233e-02 
       5.251192703764e-05       3.441013522947e-02 
       5.670107454120e-05       3.705601726472e-02 
       6.122441196689e-05       3.990533417796e-02 
       6.610859936996e-05       4.297372172777e-02 
       7.138242361596e-05       4.627802146614e-02 
       7.707696804727e-05       4.983636199464e-02 
       8.322579568497e-05       5.366826852944e-02 
       8.986514704559e-05       5.779476400720e-02 
       9.703415373875e-05       6.223848250510e-02 
       1.047750691046e-04       6.702379872774e-02 
       1.131335172503e-04       7.217695161064e-02 
       1.221587619537e-04       7.772619081844e-02 
       1.319039970183e-04       8.370193441286e-02 
       1.424266597921e-04       9.013692517142e-02 
       1.537887696968e-04       9.706641252902e-02 
       1.660572937635e-04       1.045283355384e-01 
       1.793045413292e-04       1.125635350266e-01 
       1.936085902198e-04       1.212159616259e-01 
       2.090537469327e-04       1.305329134104e-01 
       2.257310435294e-04       1.405652847711e-01 
       2.437387741694e-04       1.513678304151e-01 
       2.631830744443e-04       1.629994506605e-01 
       2.841785469300e-04       1.755234923092e-01 
       3.068489366414e-04       1.890080672425e-01 
       3.313278603720e-04       2.035264004601e-01 
       3.577595942169e-04       2.191571806013e-01 
       3.862999239199e-04       2.359849440103e-01 
       4.171170630578e-04       2.541004744243e-01 
       4.503926444729e-04       2.736012083189e-01 
       4.863227907969e-04       2.945916794099e-01 
       5.251192703764e-04       3.171839528558e-01 
       5.670107454121e-04       3.414980767635e-01 
       6.122441196689e-04       3.676625417011e-01 
       6.610859936996e-04       3.958147256513e-01 
       7.138242361596e-04       4.261013289354e-01 
       7.707696804727e-04       4.586787797351e-01 
       8.322579568497e-04       4.937136006287e-01 
       8.986514704559e-04       5.313826807049e-01 
       9.703415373875e-04       5.718734978233e-01 
       1.047750691046e-03       6.153841636040e-01 
       1.131335172503e-03       6.621233246495e-01 
       1.221587619537e-03       7.123098227997e-01 
       1.319039970183e-03       7.661720592531e-01 
       1.424266597921e-03       8.239546306466e-01 
       1.537887696968e-03       8.859011182851e-01 
       1.660572937635e-03       9.522588016480e-01 
       1.793045413292e-03       1.023280100902e+00 
       1.936085902198e-03       1.099216305740e+00 
       2.090537469327e-03       1.180312991700e+00 
       2.257310435294e-03       1.266804117182e+00 
       2.437387741694e-03       1.358904854833e+00 
       2.631830744443e-03       1.456802684686e+00 
       2.841785469300e-03       1.560646892157e+00 
       3.068489366414e-03       1.670536064245e+00 
       3.313278603720e-03       1.786503854035e+00 
       3.577595942169e-03       1.908502932772e+00 
       3.862999239199e-03       2.036387732815e+00 
       4.171170630578e-03       2.169896195139e+00 
       4.503926444729e-03       2.308631881359e+00 
       4.863227907969e-03       2.452047293460e+00 
       5.251192703764e-03       2.599430630722e+00 
       5.670107454120e-03       2.749896934573e+00 
       6.122441196689e-03       2.902386516274e+00 
       6.610859936996e-03       3.055668702349e+00 
       7.138242361596e-03       3.208356464657e+00 
       7.707696804727e-03       3.358923895990e+00 
       8.322579568496e-03       3.505725598668e+00 
       8.986514704559e-03       3.647010084748e+00 
       9.703415373875e-03       3.780923307791e+00 
       1.047750691046e-02       3.905491623251e+00 
       1.131335172503e-02       4.018587815007e+00 
       1.221587619537e-02       4.117900844549e+00 
       1.319039970183e-02       4.200915319564e+00 
       1.424266597920e-02       4.264942354409e+00 
       1.537887696964e-02       4.307218789981e+00 
       1.660572937560e-02       4.325061480415e+00 
       1.793045412207e-02       4.316059278838e+00 
       1.936085889642e-02       4.278231087874e+00 
       2.090537351881e-02       4.210205152800e+00 
       2.257309534705e-02       4.111420083264e+00 
       2.437382002240e-02       3.982423116610e+00 
       2.631799943729e-02       3.825164921436e+00 
       2.841644544598e-02       3.643281334892e+00 
       3.067933354524e-02       3.442194965473e+00 
       3.311368469821e-02       3.229239136907e+00 
       3.571840442514e-02       3.013513019880e+00 
       3.847720347390e-02       2.805279684564e+00 
       4.135335537314e-02       2.614406723470e+00 
       4.429361666563e-02       2.448134630439e+00 
       4.724366437916e-02       2.309239151436e+00 
       5.016480834039e-02       2.196109121222e+00 
       5.303989618930e-02       2.104365116167e+00 
       5.586870668205e-02       2.028463078808e+00 
       5.866042679206e-02       1.963155864517e+00 
       6.142798931504e-02       1.903780221909e+00 
       6.418496438662e-02       1.846481068448e+00 
       6.694418832236e-02       1.788194694452e+00 
       6.971731104453e-02       1.726717777384e+00 
       7.251476154108e-02       1.660658196345e+00 
       7.534587669814e-02       1.589469368478e+00 
       7.821907664495e-02       1.513436918798e+00 
       8.114203771084e-02       1.433570857227e+00 
       8.412184533139e-02       1.351491840293e+00 
       8.716512277352e-02       1.269274019224e+00 
       9.027813693913e-02       1.189192016741e+00 
       9.346688429613e-02       1.113500747792e+00 
       9.673716026122e-02       1.044175475312e+00 
       1.000946150608e-01       9.827061897366e-01 
       1.035447986307e-01       9.299386791304e-01 
       1.070931966524e-01       8.859606346564e-01 
       1.107452594180e-01       8.500723456823e-01 
       1.145064248899e-01       8.208045760279e-01 
       1.183821370656e-01       7.960252083979e-01 
       1.223778605591e-01       7.731468705420e-01 
       1.264990921707e-01       7.494514524857e-01 
       1.307513701078e-01       7.225575945368e-01 
       1.351402814485e-01       6.909101788276e-01 
       1.396714683894e-01       6.541822420278e-01 
       1.443506337875e-01       6.134259426506e-01 
       1.491835464900e-01       5.708692186986e-01 
       1.541760469368e-01       5.293627025805e-01 
       1.593340535209e-01       4.917110175231e-01 
       1.646635701934e-01       4.599198696609e-01 
       1.701706958081e-01       4.347283118654e-01 
       1.758616357070e-01       4.154078723915e-01 
       1.817427160581e-01       3.999376836738e-01 
       1.878204014651e-01       3.856827039978e-01 
       1.941013163855e-01       3.698091051979e-01 
       2.005922709060e-01       3.505471916872e-01 
       2.073002914514e-01       3.280431812412e-01 
       2.142326570343e-01       3.042140000999e-01 
       2.213969417044e-01       2.816118343891e-01 
       2.288010639201e-01       2.622571575807e-01 
       2.364533436625e-01       2.469623060940e-01 
       2.443625682390e-01       2.350130056817e-01 
       2.525380678946e-01       2.244175333346e-01 
       2.609898025770e-01       2.130946442089e-01 
       2.697284614969e-01       2.001021074513e-01 
       2.787655775073e-01       1.860202049694e-01 
       2.881136588192e-01       1.725170389264e-01 
       2.977863412019e-01       1.610661854369e-01 
       3.077985646248e-01       1.517611857515e-01 
       3.181667793367e-01       1.435594557642e-01 
       3.289091877084e-01       1.351818051425e-01 
       3.400460298905e-01       1.261644290353e-01 
       3.515999235695e-01       1.172023028265e-01 
       3.635962710278e-01       1.091768799725e-01 
       3.760637505499e-01       1.023094341312e-01 
       3.890349143014e-01       9.593768906427e-02 
       4.025469215929e-01       8.950788517865e-02 
       4.166424455447e-01       8.311179915737e-02 
       4.313708034899e-01       7.721556247144e-02 
       4.467893781976e-01       7.190072285901e-02 
       4.629654198623e-01       6.686887788028e-02 
       4.799783500912e-01       6.191755626905e-02 
       4.979227318246e-01       5.722222447683e-02 
       5.169121269689e-01       5.290300935902e-02 
       5.370841403262e-01       4.876989804810e-02 
       5.586070463286e-01       4.479080916340e-02 
       5.816885093582e-01       4.105184945500e-02 
       6.065870143577e-01       3.748989573563e-02 
       6.336266466978e-01       3.407638332808e-02 
       6.632156057925e-01       3.083453339884e-02 
       6.958678637575e-01       2.772832986139e-02 
       7.322247983784e-01       2.476707059965e-02 
       7.730680193171e-01       2.193960168015e-02 
       8.193049551574e-01       1.925618383195e-02 
       8.718988013754e-01       1.672928568378e-02 
       9.317218028590e-01       1.438428891027e-02 
       9.993660906273e-01       1.225064585022e-02 
       1.075037109879e+00       1.035262200541e-02 
       1.158653485387e+00       8.699707229128e-03 
       1.250099156961e+00       7.284603873025e-03 
       1.349432400897e+00       6.085472075579e-03 
       1.456947456991e+00       5.075733941865e-03 
       1.573135110893e+00       4.228304587486e-03 
       1.698621895119e+00       3.518533772671e-03 
       1.834127512423e+00       2.924982433154e-03 
       1.980444933977e+00       2.429167670926e-03 
       2.138435191130e+00       2.015511518635e-03 
       2.309029198543e+00       1.670770750380e-03 
       2.493232376993e+00       1.383795432122e-03 
       2.692130394536e+00       1.145127659947e-03 
       2.906895533764e+00       9.468578945065e-04 
       3.138793596840e+00       7.822884946432e-04 
       3.389191365541e+00       6.458258490232e-04 
       3.659564656886e+00       5.327689906137e-04 
       3.951507021438e+00       4.391850792929e-04 
       4.266739135513e+00       3.617892279131e-04 
       4.607118942658e+00       2.978283958726e-04 
       4.974652604172e+00       2.450151238835e-04 
       5.371506323193e+00       2.014367263401e-04 
       5.800019112071e+00       1.655071767001e-04 
       6.262716578240e+00       1.359034806875e-04 
       6.762325809881e+00       1.115303019652e-04 
       7.301791449077e+00       9.147590641106e-05 
       7.884293047211e+00       7.498616259452e-05 
       8.513263804891e+00       6.143630007616e-05 
       9.192410806865e+00       5.030833596414e-05 
       9.925736871166e+00       4.117511861658e-05 
       1.071756414128e+01       3.368330968276e-05 
       1.157255956041e+01       2.754150524765e-05 
       1.249576237789e+01       2.250918771070e-05 
       1.349261385000e+01       1.838762073105e-05 
       1.456898931011e+01       1.501419085356e-05 
       1.573123279727e+01       1.225438191641e-05 
       1.698619444729e+01       9.997603356253e-06 
       1.834127086665e+01       8.153086907277e-06 
       1.980444872733e+01       6.646196821672e-06 
       2.138435183937e+01       5.415707039201e-06 
       2.309029197863e+01       4.411325338573e-06 
       2.493232376942e+01       3.591880127231e-06 
       2.692130394533e+01       2.923557456785e-06 
       2.906895533764e+01       2.378734036488e-06 
       3.138793596840e+01       1.934772345004e-06 
       3.389191365541e+01       1.573114401813e-06 
       3.659564656886e+01       1.278627839055e-06 
       3.951507021438e+01       1.038915862452e-06 
       4.266739135513e+01       8.438611353007e-07 
       4.607118942658e+01       6.852123321980e-07 
       4.974652604172e+01       5.562066892334e-07 
       5.371506323193e+01       4.513385385691e-07 
       5.800019112071e+01       3.661302513443e-07 
       6.262716578240e+01       2.969148314685e-07 
       6.762325809881e+01       2.407056226189e-07 
