# Matter power spectrum P(k) at redshift z=99
# for k=1.04775e-05 to 67.6233 h/Mpc,
# number of wavenumbers equal to 246
#    1:k (h/Mpc)              2:P (Mpc/h)^3        
       1.047750691046e-05       7.261927680862e-03 
       1.131335172503e-05       7.820331652432e-03 
       1.221587619537e-05       8.421675995454e-03 
       1.319039970183e-05       9.069258201849e-03 
       1.424266597921e-05       9.766638412133e-03 
       1.537887696968e-05       1.051764070801e-02 
       1.660572937635e-05       1.132639106725e-02 
       1.793045413292e-05       1.219733232715e-02 
       1.936085902198e-05       1.313524225779e-02 
       2.090537469327e-05       1.414527123399e-02 
       2.257310435294e-05       1.523296273823e-02 
       2.437387741694e-05       1.640429446288e-02 
       2.631830744443e-05       1.766569584058e-02 
       2.841785469300e-05       1.902408737005e-02 
       3.068489366414e-05       2.048692972772e-02 
       3.313278603720e-05       2.206225515942e-02 
       3.577595942169e-05       2.375870707438e-02 
       3.862999239199e-05       2.558560730202e-02 
       4.171170630578e-05       2.755297766277e-02 
       4.503926444729e-05       2.967161930475e-02 
       4.863227907969e-05       3.195316454233e-02 
       5.251192703764e-05       3.441013522947e-02 
       5.670107454120e-05       3.705601726471e-02 
       6.122441196689e-05       3.990533417795e-02 
       6.610859936996e-05       4.297372172778e-02 
       7.138242361596e-05       4.627802146614e-02 
       7.707696804727e-05       4.983636199464e-02 
       8.322579568497e-05       5.366826852944e-02 
       8.986514704559e-05       5.779476400720e-02 
       9.703415373875e-05       6.223848250510e-02 
       1.047750691046e-04       6.702379872774e-02 
       1.131335172503e-04       7.217695161064e-02 
       1.221587619537e-04       7.772619081843e-02 
       1.319039970183e-04       8.370193441286e-02 
       1.424266597921e-04       9.013692517143e-02 
       1.537887696968e-04       9.706641252903e-02 
       1.660572937635e-04       1.045283355384e-01 
       1.793045413292e-04       1.125635350266e-01 
       1.936085902198e-04       1.212159616259e-01 
       2.090537469327e-04       1.305329134104e-01 
       2.257310435294e-04       1.405652847711e-01 
       2.437387741694e-04       1.513678304151e-01 
       2.631830744443e-04       1.629994506606e-01 
       2.841785469300e-04       1.755234923093e-01 
       3.068489366414e-04       1.890080672425e-01 
       3.313278603720e-04       2.035264004601e-01 
       3.577595942169e-04       2.191571806013e-01 
       3.862999239199e-04       2.359849440104e-01 
       4.171170630578e-04       2.541004744243e-01 
       4.503926444729e-04       2.736012083189e-01 
       4.863227907969e-04       2.945916794100e-01 
       5.251192703764e-04       3.171839528558e-01 
       5.670107454121e-04       3.414980767635e-01 
       6.122441196689e-04       3.676625417012e-01 
       6.610859936996e-04       3.958147256513e-01 
       7.138242361596e-04       4.261013289361e-01 
       7.707696804727e-04       4.586787797353e-01 
       8.322579568497e-04       4.937136006300e-01 
       8.986514704559e-04       5.313826807049e-01 
       9.703415373875e-04       5.718734978233e-01 
       1.047750691046e-03       6.153841636041e-01 
       1.131335172503e-03       6.621233246495e-01 
       1.221587619537e-03       7.123098228004e-01 
       1.319039970183e-03       7.661720592512e-01 
       1.424266597921e-03       8.239546306465e-01 
       1.537887696968e-03       8.859011182851e-01 
       1.660572937635e-03       9.522588016480e-01 
       1.793045413292e-03       1.023280100902e+00 
       1.936085902198e-03       1.099216305740e+00 
       2.090537469327e-03       1.180312991699e+00 
       2.257310435294e-03       1.266804117185e+00 
       2.437387741694e-03       1.358904854835e+00 
       2.631830744443e-03       1.456802684686e+00 
       2.841785469300e-03       1.560646892157e+00 
       3.068489366414e-03       1.670536064244e+00 
       3.313278603720e-03       1.786503854042e+00 
       3.577595942169e-03       1.908502932767e+00 
       3.862999239199e-03       2.036387732815e+00 
       4.171170630578e-03       2.169896193355e+00 
       4.503926444729e-03       2.308631881358e+00 
       4.863227907969e-03       2.452047293459e+00 
       5.251192703764e-03       2.599430630720e+00 
       5.670107454120e-03       2.749896934572e+00 
       6.122441196689e-03       2.902386516272e+00 
       6.610859936996e-03       3.055668709889e+00 
       7.138242361596e-03       3.208356464658e+00 
       7.707696804727e-03       3.358923895976e+00 
       8.322579568496e-03       3.505725598300e+00 
       8.986514704559e-03       3.647009547095e+00 
       9.703415373875e-03       3.780923307752e+00 
       1.047750691046e-02       3.905491522839e+00 
       1.131335172503e-02       4.018587644702e+00 
       1.221587619537e-02       4.117901695852e+00 
       1.319039970183e-02       4.200915364287e+00 
       1.424266597920e-02       4.264943934694e+00 
       1.537887696964e-02       4.307217165496e+00 
       1.660572937560e-02       4.325061742049e+00 
       1.793045412207e-02       4.316058802706e+00 
       1.936085889642e-02       4.278228495499e+00 
       2.090537351881e-02       4.210201400903e+00 
       2.257309534705e-02       4.111421638916e+00 
       2.437382002240e-02       3.982419387886e+00 
       2.631799943729e-02       3.825165574511e+00 
       2.841644544598e-02       3.643285855707e+00 
       3.067933354524e-02       3.442207555532e+00 
       3.311368469821e-02       3.229244581688e+00 
       3.571840442514e-02       3.013515087887e+00 
       3.847720347390e-02       2.805282721109e+00 
       4.135335537314e-02       2.614396869668e+00 
       4.429361666563e-02       2.448127918120e+00 
       4.724366437916e-02       2.309240665035e+00 
       5.016480834039e-02       2.196114732652e+00 
       5.303989618930e-02       2.104362006573e+00 
       5.586870668205e-02       2.028465722630e+00 
       5.866042679206e-02       1.963155701289e+00 
       6.142798931504e-02       1.903782855938e+00 
       6.418496438662e-02       1.846479203327e+00 
       6.694418832236e-02       1.788196951308e+00 
       6.971731104453e-02       1.726716994022e+00 
       7.251476154108e-02       1.660652845485e+00 
       7.534587669814e-02       1.589468496955e+00 
       7.821907664495e-02       1.513436974609e+00 
       8.114203771084e-02       1.433570608730e+00 
       8.412184533139e-02       1.351490416293e+00 
       8.716512277352e-02       1.269274122717e+00 
       9.027813693913e-02       1.189192663606e+00 
       9.346688429613e-02       1.113501537710e+00 
       9.673716026122e-02       1.044174881825e+00 
       1.000946150608e-01       9.827059976311e-01 
       1.035447986307e-01       9.299386047585e-01 
       1.070931966524e-01       8.859604543246e-01 
       1.107452594180e-01       8.500715052602e-01 
       1.145064248899e-01       8.208031285503e-01 
       1.183821370656e-01       7.960257187943e-01 
       1.223778605591e-01       7.731437850514e-01 
       1.264990921707e-01       7.494525517514e-01 
       1.307513701078e-01       7.225561605812e-01 
       1.351402814485e-01       6.909078754607e-01 
       1.396714683894e-01       6.541812247493e-01 
       1.443506337875e-01       6.134269353248e-01 
       1.491835464900e-01       5.708683847673e-01 
       1.541760469368e-01       5.293644024984e-01 
       1.593340535209e-01       4.917103673549e-01 
       1.646635701934e-01       4.599198355734e-01 
       1.701706958081e-01       4.347278847358e-01 
       1.758616357070e-01       4.154077099718e-01 
       1.817427160581e-01       3.999376350166e-01 
       1.878204014651e-01       3.856825477410e-01 
       1.941013163855e-01       3.698097492076e-01 
       2.005922709060e-01       3.505458944235e-01 
       2.073002914514e-01       3.280439353954e-01 
       2.142326570343e-01       3.042140321261e-01 
       2.213969417044e-01       2.816112874365e-01 
       2.288010639201e-01       2.622574275072e-01 
       2.364533436625e-01       2.469620554952e-01 
       2.443625682390e-01       2.350133722266e-01 
       2.525380678946e-01       2.244173606766e-01 
       2.609898025770e-01       2.130935134623e-01 
       2.697284614969e-01       2.001019388266e-01 
       2.787655775073e-01       1.860196370874e-01 
       2.881136588192e-01       1.725169199248e-01 
       2.977863412019e-01       1.610654111131e-01 
       3.077985646248e-01       1.517610505101e-01 
       3.181667793367e-01       1.435592735887e-01 
       3.289091877084e-01       1.351814797388e-01 
       3.400460298905e-01       1.261649098130e-01 
       3.515999235695e-01       1.172019356846e-01 
       3.635962710278e-01       1.091769380665e-01 
       3.760637505499e-01       1.023094204576e-01 
       3.890349143014e-01       9.593790347721e-02 
       4.025469215929e-01       8.950773130005e-02 
       4.166424455447e-01       8.311167882380e-02 
       4.313708034899e-01       7.721551838621e-02 
       4.467893781976e-01       7.190048912575e-02 
       4.629654198623e-01       6.686890398061e-02 
       4.799783500912e-01       6.191762245220e-02 
       4.979227318246e-01       5.722216339001e-02 
       5.169121269689e-01       5.290292135242e-02 
       5.370841403262e-01       4.876977674929e-02 
       5.586070463286e-01       4.479096383645e-02 
       5.816885093582e-01       4.105193303004e-02 
       6.065870143577e-01       3.748992333424e-02 
       6.336266466978e-01       3.407627934060e-02 
       6.632156057925e-01       3.083454779546e-02 
       6.958678637575e-01       2.772825029981e-02 
       7.322247983784e-01       2.476704063764e-02 
       7.730680193171e-01       2.193949457509e-02 
       8.193049551574e-01       1.925617495637e-02 
       8.718988013754e-01       1.672925501814e-02 
       9.317218028590e-01       1.438422715671e-02 
       9.993660906273e-01       1.225067061533e-02 
       1.075037109879e+00       1.035258778217e-02 
       1.158653485387e+00       8.699701042985e-03 
       1.250099156961e+00       7.284561309625e-03 
       1.349432400897e+00       6.085455185774e-03 
       1.456947456991e+00       5.075717102536e-03 
       1.573135110893e+00       4.228299483106e-03 
       1.698621895119e+00       3.518536605886e-03 
       1.834127512423e+00       2.924973383096e-03 
       1.980444933977e+00       2.429162684930e-03 
       2.138435191130e+00       2.015503823969e-03 
       2.309029198543e+00       1.670769730346e-03 
       2.493232376993e+00       1.383795089013e-03 
       2.692130394536e+00       1.145134497344e-03 
       2.906895533764e+00       9.468530899123e-04 
       3.138793596840e+00       7.822812108851e-04 
       3.389191365541e+00       6.458221657193e-04 
       3.659564656886e+00       5.327690112884e-04 
       3.951507021438e+00       4.391844053718e-04 
       4.266739135513e+00       3.617849274352e-04 
       4.607118942658e+00       2.978255264525e-04 
       4.974652604172e+00       2.450099983687e-04 
       5.371506323193e+00       2.014336395299e-04 
       5.800019112071e+00       1.655022682037e-04 
       6.262716578240e+00       1.359018076552e-04 
       6.762325809881e+00       1.115274691527e-04 
       7.301791449077e+00       9.147358293303e-05 
       7.884293047211e+00       7.498317671307e-05 
       8.513263804891e+00       6.143414860474e-05 
       9.192410806865e+00       5.030614424503e-05 
       9.925736871166e+00       4.117243193946e-05 
       1.071756414128e+01       3.368124065972e-05 
       1.157255956041e+01       2.753932228578e-05 
       1.249576237789e+01       2.250680020509e-05 
       1.349261385000e+01       1.838547178045e-05 
       1.456898931011e+01       1.501207087727e-05 
       1.573123279727e+01       1.225228238486e-05 
       1.698619444729e+01       9.995665263076e-06 
       1.834127086665e+01       8.151264584645e-06 
       1.980444872733e+01       6.644360729533e-06 
       2.138435183937e+01       5.413915099685e-06 
       2.309029197863e+01       4.409541983178e-06 
       2.493232376942e+01       3.590138006997e-06 
       2.692130394533e+01       2.921841950342e-06 
       2.906895533764e+01       2.377089107337e-06 
       3.138793596840e+01       1.933137560435e-06 
       3.389191365541e+01       1.571520121731e-06 
       3.659564656886e+01       1.277048995085e-06 
       3.951507021438e+01       1.037374849253e-06 
       4.266739135513e+01       8.423554093237e-07 
       4.607118942658e+01       6.837154925646e-07 
       4.974652604172e+01       5.547312836812e-07 
       5.371506323193e+01       4.498827751682e-07 
       5.800019112071e+01       3.646882940779e-07 
       6.262716578240e+01       2.954863374633e-07 
       6.762325809881e+01       2.392823622278e-07 
