# Matter power spectrum P(k) at redshift z=0
# for k=1.04775e-05 to 66.1767 h/Mpc,
# number of wavenumbers equal to 130
#    1:k (h/Mpc)              2:P (Mpc/h)^3        
       1.047750691046e-05       5.020964811312e+01 
       1.319039970183e-05       6.270562594778e+01 
       1.660572937635e-05       7.831147247912e+01 
       2.090537469327e-05       9.780108069295e+01 
       2.631830744443e-05       1.221408203809e+02 
       3.313278603720e-05       1.525374501932e+02 
       4.171170630578e-05       1.904975994010e+02 
       5.251192703764e-05       2.379022224249e+02 
       6.610859936996e-05       2.970989227883e+02 
       8.322579568497e-05       3.710167318945e+02 
       1.047750691046e-04       4.633080766742e+02 
       1.319039970183e-04       5.785234129341e+02 
       1.660572937635e-04       7.223242666092e+02 
       2.090537469327e-04       9.017396271823e+02 
       2.631830744443e-04       1.125468123750e+03 
       3.313278603720e-04       1.404223053681e+03 
       4.171170630578e-04       1.751108028790e+03 
       5.251192703764e-04       2.181998448132e+03 
       6.610859936996e-04       2.715889983590e+03 
       8.322579568497e-04       3.375152337132e+03 
       1.047750691046e-03       4.185552174299e+03 
       1.319039970183e-03       5.175742740151e+03 
       1.660572937635e-03       6.376123051769e+03 
       2.090537469327e-03       7.815671865651e+03 
       2.631830744443e-03       9.517783069013e+03 
       3.313278603720e-03       1.149357460326e+04 
       4.171170630578e-03       1.373266009609e+04 
       5.251192703764e-03       1.619063603850e+04 
       6.610859936996e-03       1.877460423863e+04 
       8.322579568497e-03       2.132611394593e+04 
       1.047750691046e-02       2.360549011219e+04 
       1.319039970183e-02       2.528219116081e+04 
       1.660572937633e-02       2.595027014302e+04 
       2.090537453514e-02       2.520931639818e+04 
       2.631818545635e-02       2.287031400011e+04 
       3.311571692125e-02       1.928622962031e+04 
       4.113809243311e-02       1.568425573130e+04 
       4.792590854610e-02       1.361060813052e+04 
       5.284436902701e-02       1.259129961745e+04 
       5.689644391095e-02       1.195558350890e+04 
       6.051252627066e-02       1.147549214941e+04 
       6.388413457411e-02       1.105589959920e+04 
       6.711249296401e-02       1.064894654100e+04 
       7.025823437965e-02       1.022925114329e+04 
       7.336115587705e-02       9.784550848512e+03 
       7.644928796912e-02       9.311500019862e+03 
       7.954353299775e-02       8.814549192144e+03 
       8.266024078725e-02       8.302185725002e+03 
       8.581273398637e-02       7.786987341797e+03 
       8.901225918437e-02       7.283260738098e+03 
       9.226860540985e-02       6.805184609205e+03 
       9.559052048996e-02       6.365635662239e+03 
       9.898599946599e-02       5.974410580368e+03 
       1.024624891378e-01       5.637344747748e+03 
       1.060270359164e-01       5.355773760824e+03 
       1.096863943056e-01       5.126231222234e+03 
       1.134471073830e-01       4.940506993490e+03 
       1.173155669539e-01       4.786165797738e+03 
       1.212980586983e-01       4.647925801280e+03 
       1.254007961065e-01       4.509056363387e+03 
       1.296299459934e-01       4.354541209799e+03 
       1.339916477160e-01       4.173204763648e+03 
       1.384920277736e-01       3.961159135214e+03 
       1.431372111762e-01       3.722600270852e+03 
       1.479333307714e-01       3.469556138102e+03 
       1.528865355934e-01       3.218309677126e+03 
       1.580029992204e-01       2.986252336491e+03 
       1.632889290723e-01       2.786944210374e+03 
       1.687505775527e-01       2.626791820636e+03 
       1.743942559171e-01       2.503746467362e+03 
       1.802263517371e-01       2.407304825273e+03 
       1.862533508214e-01       2.322213135011e+03 
       1.924818644494e-01       2.231516744494e+03 
       1.989186627765e-01       2.122153781571e+03 
       2.055707152847e-01       1.992002786207e+03 
       2.124452391818e-01       1.850311429522e+03 
       2.195497567139e-01       1.712142303573e+03 
       2.268921624510e-01       1.590954191381e+03 
       2.344808017550e-01       1.493635372525e+03 
       2.423245618548e-01       1.418288618687e+03 
       2.504329772620e-01       1.354429718816e+03 
       2.588163516754e-01       1.288903096059e+03 
       2.674858990930e-01       1.213901295065e+03 
       2.764539076010e-01       1.130652460365e+03 
       2.857339303080e-01       1.048064253937e+03 
       2.953410092148e-01       9.761423278236e+02 
       3.052919395542e-01       9.177699523383e+02 
       3.156055844677e-01       8.678551572236e+02 
       3.263032530092e-01       8.184832903161e+02 
       3.374091587054e-01       7.650982649963e+02 
       3.489509817175e-01       7.106257245798e+02 
       3.609605657343e-01       6.607350282139e+02 
       3.734747921333e-01       6.180327397995e+02 
       3.865366902904e-01       5.792540265592e+02 
       4.001968667448e-01       5.403331913523e+02 
       4.145153713076e-01       5.010907940914e+02 
       4.295641718077e-01       4.644326867515e+02 
       4.454304922144e-01       4.313410861851e+02 
       4.622214006969e-01       4.000413858029e+02 
       4.800702491654e-01       3.690151077127e+02 
       4.991459272112e-01       3.393971104143e+02 
       5.196665217302e-01       3.119008709180e+02 
       5.419201087032e-01       2.851569625561e+02 
       5.662975451962e-01       2.592350050807e+02 
       5.933463737275e-01       2.344458529946e+02 
       6.238638458458e-01       2.101204143832e+02 
       6.590669257916e-01       1.863146790528e+02 
       7.009246080454e-01       1.625960911115e+02 
       7.528593308799e-01       1.386758209925e+02 
       8.213469537518e-01       1.140275957795e+02 
       9.196980813302e-01       8.817324310476e+01 
       1.075112183810e+00       6.149796691442e+01 
       1.322697471132e+00       3.774706335399e+01 
       1.662328205042e+00       2.171078244874e+01 
       2.092692408506e+00       1.217134962927e+01 
       2.634543445090e+00       6.581994860348e+00 
       3.316693691389e+00       3.323108037500e+00 
       4.175469971226e+00       1.452894423412e+00 
       5.256605252960e+00       4.524655928923e-01 
       6.617673932723e+00       4.441288599239e-02 
       8.331157880872e+00       2.337336315218e-02 
       1.048830636590e+01       1.187903998369e-01 
       1.320399541071e+01       8.487580383688e-02 
       1.662284535976e+01       2.075611910110e-03 
       2.092692243973e+01       1.727750833110e-02 
       2.634543445002e+01       1.619375462894e-03 
       3.316693691389e+01       2.920533373500e-03 
       4.175469971226e+01       3.855892904636e-04 
       5.256605252960e+01       4.569683874902e-05 
       6.617673932723e+01       1.649863955757e-05 
