# Matter power spectrum P(k) at redshift z=0
# for k=1.04775e-05 to 66.1767 h/Mpc,
# number of wavenumbers equal to 130
#    1:k (h/Mpc)              2:P (Mpc/h)^3        
       1.047750691046e-05       5.020964811312e+01 
       1.319039970183e-05       6.270562594776e+01 
       1.660572937635e-05       7.831147247912e+01 
       2.090537469327e-05       9.780108069296e+01 
       2.631830744443e-05       1.221408203809e+02 
       3.313278603720e-05       1.525374501932e+02 
       4.171170630578e-05       1.904975994009e+02 
       5.251192703764e-05       2.379022224249e+02 
       6.610859936996e-05       2.970989227881e+02 
       8.322579568497e-05       3.710167318946e+02 
       1.047750691046e-04       4.633080766742e+02 
       1.319039970183e-04       5.785234129333e+02 
       1.660572937635e-04       7.223242666092e+02 
       2.090537469327e-04       9.017396271824e+02 
       2.631830744443e-04       1.125468123750e+03 
       3.313278603720e-04       1.404223053681e+03 
       4.171170630578e-04       1.751108028790e+03 
       5.251192703764e-04       2.181998448133e+03 
       6.610859936996e-04       2.715889983592e+03 
       8.322579568497e-04       3.375152337134e+03 
       1.047750691046e-03       4.185552174307e+03 
       1.319039970183e-03       5.175742734858e+03 
       1.660572937635e-03       6.376123051791e+03 
       2.090537469327e-03       7.815671866180e+03 
       2.631830744443e-03       9.517783069112e+03 
       3.313278603720e-03       1.149357460346e+04 
       4.171170630578e-03       1.373266012836e+04 
       5.251192703764e-03       1.619063614471e+04 
       6.610859936996e-03       1.877460363275e+04 
       8.322579568497e-03       2.132607232456e+04 
       1.047750691046e-02       2.360549070054e+04 
       1.319039970183e-02       2.528218662281e+04 
       1.660572937633e-02       2.595027446620e+04 
       2.090537453514e-02       2.520935432267e+04 
       2.631818545635e-02       2.287037063081e+04 
       3.311571692125e-02       1.928628021332e+04 
       4.113809243311e-02       1.568427167815e+04 
       4.792590854610e-02       1.361062726939e+04 
       5.284436902701e-02       1.259129919292e+04 
       5.689644391095e-02       1.195556180287e+04 
       6.051252627066e-02       1.147546666456e+04 
       6.388413457411e-02       1.105589019140e+04 
       6.711249296401e-02       1.064901083938e+04 
       7.025823437965e-02       1.022931096131e+04 
       7.336115587705e-02       9.784512359176e+03 
       7.644928796912e-02       9.311624951023e+03 
       7.954353299775e-02       8.814536271110e+03 
       8.266024078725e-02       8.302141889918e+03 
       8.581273398637e-02       7.786979098214e+03 
       8.901225918437e-02       7.283154121409e+03 
       9.226860540985e-02       6.805162792009e+03 
       9.559052048996e-02       6.365641692903e+03 
       9.898599946599e-02       5.974406958405e+03 
       1.024624891378e-01       5.637289306512e+03 
       1.060270359164e-01       5.355747750507e+03 
       1.096863943056e-01       5.126249503024e+03 
       1.134471073830e-01       4.940472903571e+03 
       1.173155669539e-01       4.786155062601e+03 
       1.212980586983e-01       4.647942518268e+03 
       1.254007961065e-01       4.509146761829e+03 
       1.296299459934e-01       4.354560544800e+03 
       1.339916477160e-01       4.173208458105e+03 
       1.384920277736e-01       3.961171902074e+03 
       1.431372111762e-01       3.722694386491e+03 
       1.479333307714e-01       3.469549877837e+03 
       1.528865355934e-01       3.218336125090e+03 
       1.580029992204e-01       2.986283171649e+03 
       1.632889290723e-01       2.786962154601e+03 
       1.687505775527e-01       2.626826557381e+03 
       1.743942559171e-01       2.503765875527e+03 
       1.802263517371e-01       2.407333128177e+03 
       1.862533508214e-01       2.322255275622e+03 
       1.924818644494e-01       2.231553812763e+03 
       1.989186627765e-01       2.122188750687e+03 
       2.055707152847e-01       1.992007678791e+03 
       2.124452391818e-01       1.850319567660e+03 
       2.195497567139e-01       1.712167019090e+03 
       2.268921624510e-01       1.590988228389e+03 
       2.344808017550e-01       1.493658568437e+03 
       2.423245618548e-01       1.418316678802e+03 
       2.504329772620e-01       1.354462673365e+03 
       2.588163516754e-01       1.288931986035e+03 
       2.674858990930e-01       1.213931311295e+03 
       2.764539076010e-01       1.130688755229e+03 
       2.857339303080e-01       1.048095721559e+03 
       2.953410092148e-01       9.761816106663e+02 
       3.052919395542e-01       9.178042886740e+02 
       3.156055844677e-01       8.678960223150e+02 
       3.263032530092e-01       8.185227713804e+02 
       3.374091587054e-01       7.651430419989e+02 
       3.489509817175e-01       7.106675206908e+02 
       3.609605657343e-01       6.607826936420e+02 
       3.734747921333e-01       6.180833692964e+02 
       3.865366902904e-01       5.793121099749e+02 
       4.001968667448e-01       5.403896429576e+02 
       4.145153713076e-01       5.011492981615e+02 
       4.295641718077e-01       4.644968500356e+02 
       4.454304922144e-01       4.314060800132e+02 
       4.622214006969e-01       4.001118274416e+02 
       4.800702491654e-01       3.690874383277e+02 
       4.991459272112e-01       3.394738983670e+02 
       5.196665217302e-01       3.119825453448e+02 
       5.419201087032e-01       2.852440698251e+02 
       5.662975451962e-01       2.593298222060e+02 
       5.933463737275e-01       2.345449323837e+02 
       6.238638458458e-01       2.102297722365e+02 
       6.590669257916e-01       1.864325500039e+02 
       7.009246080454e-01       1.627243461401e+02 
       7.528593308799e-01       1.388173494698e+02 
       8.213469537518e-01       1.141870399828e+02 
       9.196980813302e-01       8.835848677345e+01 
       1.075112183810e+00       6.172572859936e+01 
       1.322697471132e+00       3.804289975451e+01 
       1.662328205042e+00       2.209782615584e+01 
       2.092692408506e+00       1.266903891253e+01 
       2.634543445090e+00       7.203241206030e+00 
       3.316693691389e+00       4.065107782756e+00 
       4.175469971226e+00       2.278600776726e+00 
       5.256605252960e+00       1.269331965647e+00 
       6.617673932723e+00       7.031224170619e-01 
       8.331157880872e+00       3.874681066402e-01 
       1.048830636590e+01       2.125022696581e-01 
       1.320399541071e+01       1.160288546518e-01 
       1.662284535976e+01       6.309205962398e-02 
       2.092692243973e+01       3.417310875999e-02 
       2.634543445002e+01       1.844005816003e-02 
       3.316693691389e+01       9.913704760523e-03 
       4.175469971226e+01       5.309556645132e-03 
       5.256605252960e+01       2.832081165197e-03 
       6.617673932723e+01       1.503472108056e-03 
