# Matter power spectrum P(k) at redshift z=0
# for k=1.04775e-05 to 67.6233 h/Mpc,
# number of wavenumbers equal to 246
#    1:k (h/Mpc)              2:P (Mpc/h)^3        
       1.047750691046e-05       5.020964811309e+01 
       1.131335172503e-05       5.407050701925e+01 
       1.221587619537e-05       5.822819068392e+01 
       1.319039970183e-05       6.270562594787e+01 
       1.424266597921e-05       6.752732240880e+01 
       1.537887696968e-05       7.271977206173e+01 
       1.660572937635e-05       7.831147247912e+01 
       1.793045413292e-05       8.433311821988e+01 
       1.936085902198e-05       9.081778249833e+01 
       2.090537469327e-05       9.780108069298e+01 
       2.257310435294e-05       1.053213197893e+02 
       2.437387741694e-05       1.134197377890e+02 
       2.631830744443e-05       1.221408203809e+02 
       2.841785469300e-05       1.315324642461e+02 
       3.068489366414e-05       1.416462094881e+02 
       3.313278603720e-05       1.525374501932e+02 
       3.577595942169e-05       1.642660688414e+02 
       3.862999239199e-05       1.768963506307e+02 
       4.171170630578e-05       1.904975994009e+02 
       4.503926444729e-05       2.051444491973e+02 
       4.863227907969e-05       2.209171465549e+02 
       5.251192703764e-05       2.379022224249e+02 
       5.670107454120e-05       2.561927928371e+02 
       6.122441196689e-05       2.758890444040e+02 
       6.610859936996e-05       2.970989227882e+02 
       7.138242361596e-05       3.199385560802e+02 
       7.707696804727e-05       3.445329783680e+02 
       8.322579568497e-05       3.710167318945e+02 
       8.986514704559e-05       3.995346444203e+02 
       9.703415373875e-05       4.302425407383e+02 
       1.047750691046e-04       4.633080766742e+02 
       1.131335172503e-04       4.989116271564e+02 
       1.221587619537e-04       5.372471950929e+02 
       1.319039970183e-04       5.785234129334e+02 
       1.424266597921e-04       6.229645936045e+02 
       1.537887696968e-04       6.708118490405e+02 
       1.660572937635e-04       7.223242666092e+02 
       1.793045413292e-04       7.777801559524e+02 
       1.936085902198e-04       8.374783614141e+02 
       2.090537469327e-04       9.017396271824e+02 
       2.257310435294e-04       9.709080268041e+02 
       2.437387741694e-04       1.045352449493e+03 
       2.631830744443e-04       1.125468123750e+03 
       2.841785469300e-04       1.211678180495e+03 
       3.068489366414e-04       1.304435250150e+03 
       3.313278603720e-04       1.404223053681e+03 
       3.577595942169e-04       1.511558014616e+03 
       3.862999239199e-04       1.626990837754e+03 
       4.171170630578e-04       1.751108028790e+03 
       4.503926444729e-04       1.884533382872e+03 
       4.863227907969e-04       2.027929378112e+03 
       5.251192703764e-04       2.181998448133e+03 
       5.670107454121e-04       2.347484102755e+03 
       6.122441196689e-04       2.525171871365e+03 
       6.610859936996e-04       2.715889983591e+03 
       7.138242361596e-04       2.920509688383e+03 
       7.707696804727e-04       3.139945100279e+03 
       8.322579568497e-04       3.375152337579e+03 
       8.986514704559e-04       3.627127831140e+03 
       9.703415373875e-04       3.896905453136e+03 
       1.047750691046e-03       4.185552174299e+03 
       1.131335172503e-03       4.494162430373e+03 
       1.221587619537e-03       4.823850706493e+03 
       1.319039970183e-03       5.175742742056e+03 
       1.424266597921e-03       5.551019596911e+03 
       1.537887696968e-03       5.950788340564e+03 
       1.660572937635e-03       6.376123051790e+03 
       1.793045413292e-03       6.828073901459e+03 
       1.936085902198e-03       7.307625381067e+03 
       2.090537469327e-03       7.815671864774e+03 
       2.257310435294e-03       8.352990375816e+03 
       2.437387741694e-03       8.920211064345e+03 
       2.631830744443e-03       9.517783069112e+03 
       2.841785469300e-03       1.014593704435e+04 
       3.068489366414e-03       1.080464502791e+04 
       3.313278603720e-03       1.149357460346e+04 
       3.577595942169e-03       1.221203621722e+04 
       3.862999239199e-03       1.295892539446e+04 
       4.171170630578e-03       1.373266011231e+04 
       4.503926444729e-03       1.453111835625e+04 
       4.863227907969e-03       1.535154985300e+04 
       5.251192703764e-03       1.619063614559e+04 
       5.670107454120e-03       1.704431257746e+04 
       6.122441196689e-03       1.790755939648e+04 
       6.610859936996e-03       1.877460421742e+04 
       7.138242361596e-03       1.963872430355e+04 
       7.707696804727e-03       2.049215714460e+04 
       8.322579568496e-03       2.132607231915e+04 
       8.986514704559e-03       2.213055077348e+04 
       9.703415373875e-03       2.289445472114e+04 
       1.047750691046e-02       2.360548610270e+04 
       1.131335172503e-02       2.425022891099e+04 
       1.221587619537e-02       2.481423923133e+04 
       1.319039970183e-02       2.528218638700e+04 
       1.424266597920e-02       2.563814209444e+04 
       1.537887696964e-02       2.586606777894e+04 
       1.660572937560e-02       2.595026968003e+04 
       1.793045412207e-02       2.587635575523e+04 
       1.936085889642e-02       2.563219786221e+04 
       2.090537351881e-02       2.520934000090e+04 
       2.257309534705e-02       2.460447360856e+04 
       2.437382002240e-02       2.382087410882e+04 
       2.631799943729e-02       2.287043002749e+04 
       2.841644544598e-02       2.177451201350e+04 
       3.067933354524e-02       2.056558508688e+04 
       3.311368469821e-02       1.928731299273e+04 
       3.571840442514e-02       1.799400626693e+04 
       3.847720347390e-02       1.674680646570e+04 
       4.135335537314e-02       1.560462358775e+04 
       4.429361666563e-02       1.461039730208e+04 
       4.724366437916e-02       1.378053046260e+04 
       5.016480834039e-02       1.310505461437e+04 
       5.303989618930e-02       1.255716191010e+04 
       5.586870668205e-02       1.210422525032e+04 
       5.866042679206e-02       1.171463632979e+04 
       6.142798931504e-02       1.136045639069e+04 
       6.418496438662e-02       1.101857172311e+04 
       6.694418832236e-02       1.067066296974e+04 
       6.971731104453e-02       1.030359473034e+04 
       7.251476154108e-02       9.908999885107e+03 
       7.534587669814e-02       9.483791148217e+03 
       7.821907664495e-02       9.029504117893e+03 
       8.114203771084e-02       8.552317051168e+03 
       8.412184533139e-02       8.061969521635e+03 
       8.716512277352e-02       7.570774253631e+03 
       9.027813693913e-02       7.092506225268e+03 
       9.346688429613e-02       6.640504000197e+03 
       9.673716026122e-02       6.226696939927e+03 
       1.000946150608e-01       5.859932824794e+03 
       1.035447986307e-01       5.545234692534e+03 
       1.070931966524e-01       5.283114041835e+03 
       1.107452594180e-01       5.069419082931e+03 
       1.145064248899e-01       4.895249163777e+03 
       1.183821370656e-01       4.747842551659e+03 
       1.223778605591e-01       4.611735041056e+03 
       1.264990921707e-01       4.470620070137e+03 
       1.307513701078e-01       4.310269530105e+03 
       1.351402814485e-01       4.121398069807e+03 
       1.396714683894e-01       3.902073863726e+03 
       1.443506337875e-01       3.658643703315e+03 
       1.491835464900e-01       3.404489276087e+03 
       1.541760469368e-01       3.156677483330e+03 
       1.593340535209e-01       2.931977982955e+03 
       1.646635701934e-01       2.742371445613e+03 
       1.701706958081e-01       2.592261863861e+03 
       1.758616357070e-01       2.477240184548e+03 
       1.817427160581e-01       2.385187021745e+03 
       1.878204014651e-01       2.300360478070e+03 
       1.941013163855e-01       2.205760038380e+03 
       2.005922709060e-01       2.090816079446e+03 
       2.073002914514e-01       1.956461224432e+03 
       2.142326570343e-01       1.814194090677e+03 
       2.213969417044e-01       1.679300978055e+03 
       2.288010639201e-01       1.563850233535e+03 
       2.364533436625e-01       1.472688075678e+03 
       2.443625682390e-01       1.401514407429e+03 
       2.525380678946e-01       1.338413558379e+03 
       2.609898025770e-01       1.270905781240e+03 
       2.697284614969e-01       1.193384990916e+03 
       2.787655775073e-01       1.109339731558e+03 
       2.881136588192e-01       1.028771819409e+03 
       2.977863412019e-01       9.604824243685e+02 
       3.077985646248e-01       9.050247135978e+02 
       3.181667793367e-01       8.561470958349e+02 
       3.289091877084e-01       8.061882600071e+02 
       3.400460298905e-01       7.523920177015e+02 
       3.515999235695e-01       6.989245828478e+02 
       3.635962710278e-01       6.510640306070e+02 
       3.760637505499e-01       6.101241693902e+02 
       3.890349143014e-01       5.721320965733e+02 
       4.025469215929e-01       5.337841851148e+02 
       4.166424455447e-01       4.956320194323e+02 
       4.313708034899e-01       4.604691643022e+02 
       4.467893781976e-01       4.287797605753e+02 
       4.629654198623e-01       3.987733583902e+02 
       4.799783500912e-01       3.692420048545e+02 
       4.979227318246e-01       3.412399384071e+02 
       5.169121269689e-01       3.154852561527e+02 
       5.370841403262e-01       2.908361395859e+02 
       5.586070463286e-01       2.671068260935e+02 
       5.816885093582e-01       2.448113972765e+02 
       6.065870143577e-01       2.235682714054e+02 
       6.336266466978e-01       2.032106850121e+02 
       6.632156057925e-01       1.838793393403e+02 
       6.958678637575e-01       1.653548878829e+02 
       7.322247983784e-01       1.476956639633e+02 
       7.730680193171e-01       1.308339373178e+02 
       8.193049551574e-01       1.148312839309e+02 
       8.718988013754e-01       9.976263527242e+01 
       9.317218028590e-01       8.577820826242e+01 
       9.993660906273e-01       7.305486492467e+01 
       1.075037109879e+00       6.173616414734e+01 
       1.158653485387e+00       5.187920924607e+01 
       1.250099156961e+00       4.344028881824e+01 
       1.349432400897e+00       3.628961129979e+01 
       1.456947456991e+00       3.026807599648e+01 
       1.573135110893e+00       2.521469015356e+01 
       1.698621895119e+00       2.098211741694e+01 
       1.834127512423e+00       1.744257355344e+01 
       1.980444933977e+00       1.448576764211e+01 
       2.138435191130e+00       1.201902366510e+01 
       2.309029198543e+00       9.963217207413e+00 
       2.493232376993e+00       8.251874557630e+00 
       2.692130394536e+00       6.828659604137e+00 
       2.906895533764e+00       5.646286612711e+00 
       3.138793596840e+00       4.664931570610e+00 
       3.389191365541e+00       3.851150781788e+00 
       3.659564656886e+00       3.176952196946e+00 
       3.951507021438e+00       2.618890296382e+00 
       4.266739135513e+00       2.157361645998e+00 
       4.607118942658e+00       1.775955509738e+00 
       4.974652604172e+00       1.461003136130e+00 
       5.371506323193e+00       1.201143708663e+00 
       5.800019112071e+00       9.868856434684e-01 
       6.262716578240e+00       8.103593414758e-01 
       6.762325809881e+00       6.650153603058e-01 
       7.301791449077e+00       5.454304740148e-01 
       7.884293047211e+00       4.471002732663e-01 
       8.513263804891e+00       3.663031268824e-01 
       9.192410806865e+00       2.999451099184e-01 
       9.925736871166e+00       2.454821787472e-01 
       1.071756414128e+01       2.008107306374e-01 
       1.157255956041e+01       1.641852132464e-01 
       1.249576237789e+01       1.341778330894e-01 
       1.349261385000e+01       1.096036603342e-01 
       1.456898931011e+01       8.949017792955e-02 
       1.573123279727e+01       7.303415759905e-02 
       1.698619444729e+01       5.957883955033e-02 
       1.834127086665e+01       4.858130956123e-02 
       1.980444872733e+01       3.959710581130e-02 
       2.138435183937e+01       3.226120791011e-02 
       2.309029197863e+01       2.627358529427e-02 
       2.493232376942e+01       2.138836135555e-02 
       2.692130394533e+01       1.740477684336e-02 
       2.906895533764e+01       1.415749075766e-02 
       3.138793596840e+01       1.151137168750e-02 
       3.389191365541e+01       9.355922500162e-03 
       3.659564656886e+01       7.601276056181e-03 
       3.951507021438e+01       6.173140367677e-03 
       4.266739135513e+01       5.011190563809e-03 
       4.607118942658e+01       4.066248420155e-03 
       4.974652604172e+01       3.298026197422e-03 
       5.371506323193e+01       2.673761701834e-03 
       5.800019112071e+01       2.166598998960e-03 
       6.262716578240e+01       1.754770700496e-03 
       6.762325809881e+01       1.420480848430e-03 
