# Matter power spectrum P(k) at redshift z=0
# for k=1.04775e-05 to 67.6233 h/Mpc,
# number of wavenumbers equal to 246
#    1:k (h/Mpc)              2:P (Mpc/h)^3        
       1.047750691046e-05       5.020964811308e+01 
       1.131335172503e-05       5.407050701927e+01 
       1.221587619537e-05       5.822819068848e+01 
       1.319039970183e-05       6.270562594784e+01 
       1.424266597921e-05       6.752732240880e+01 
       1.537887696968e-05       7.271977206173e+01 
       1.660572937635e-05       7.831147247912e+01 
       1.793045413292e-05       8.433311821988e+01 
       1.936085902198e-05       9.081778249833e+01 
       2.090537469327e-05       9.780108069296e+01 
       2.257310435294e-05       1.053213197893e+02 
       2.437387741694e-05       1.134197377890e+02 
       2.631830744443e-05       1.221408203809e+02 
       2.841785469300e-05       1.315324642451e+02 
       3.068489366414e-05       1.416462094882e+02 
       3.313278603720e-05       1.525374501932e+02 
       3.577595942169e-05       1.642660688414e+02 
       3.862999239199e-05       1.768963506307e+02 
       4.171170630578e-05       1.904975994010e+02 
       4.503926444729e-05       2.051444491974e+02 
       4.863227907969e-05       2.209171465548e+02 
       5.251192703764e-05       2.379022224247e+02 
       5.670107454120e-05       2.561927927745e+02 
       6.122441196689e-05       2.758890444040e+02 
       6.610859936996e-05       2.970989227881e+02 
       7.138242361596e-05       3.199385560801e+02 
       7.707696804727e-05       3.445329783677e+02 
       8.322579568497e-05       3.710167318944e+02 
       8.986514704559e-05       3.995346444202e+02 
       9.703415373875e-05       4.302425407381e+02 
       1.047750691046e-04       4.633080766740e+02 
       1.131335172503e-04       4.989116271562e+02 
       1.221587619537e-04       5.372471950926e+02 
       1.319039970183e-04       5.785234129334e+02 
       1.424266597921e-04       6.229645936039e+02 
       1.537887696968e-04       6.708118490397e+02 
       1.660572937635e-04       7.223242666082e+02 
       1.793045413292e-04       7.777801559397e+02 
       1.936085902198e-04       8.374783614124e+02 
       2.090537469327e-04       9.017396271804e+02 
       2.257310435294e-04       9.709080268017e+02 
       2.437387741694e-04       1.045352449490e+03 
       2.631830744443e-04       1.125468123745e+03 
       2.841785469300e-04       1.211678180490e+03 
       3.068489366414e-04       1.304435250144e+03 
       3.313278603720e-04       1.404223053673e+03 
       3.577595942169e-04       1.511558014607e+03 
       3.862999239199e-04       1.626990837708e+03 
       4.171170630578e-04       1.751108028775e+03 
       4.503926444729e-04       1.884533382853e+03 
       4.863227907969e-04       2.027929378088e+03 
       5.251192703764e-04       2.181998448103e+03 
       5.670107454121e-04       2.347484102717e+03 
       6.122441196689e-04       2.525171871319e+03 
       6.610859936996e-04       2.715889983533e+03 
       7.138242361596e-04       2.920509688309e+03 
       7.707696804727e-04       3.139945100185e+03 
       8.322579568497e-04       3.375152337464e+03 
       8.986514704559e-04       3.627127830992e+03 
       9.703415373875e-04       3.896905452949e+03 
       1.047750691046e-03       4.185552174061e+03 
       1.131335172503e-03       4.494162430079e+03 
       1.221587619537e-03       4.823850706128e+03 
       1.319039970183e-03       5.175742741370e+03 
       1.424266597921e-03       5.551019596335e+03 
       1.537887696968e-03       5.950788339781e+03 
       1.660572937635e-03       6.376123050742e+03 
       1.793045413292e-03       6.828073900179e+03 
       1.936085902198e-03       7.307625379424e+03 
       2.090537469327e-03       7.815671863704e+03 
       2.257310435294e-03       8.352990373130e+03 
       2.437387741694e-03       8.920211060934e+03 
       2.631830744443e-03       9.517783064755e+03 
       2.841785469300e-03       1.014593703882e+04 
       3.068489366414e-03       1.080464502091e+04 
       3.313278603720e-03       1.149357459458e+04 
       3.577595942169e-03       1.221203620603e+04 
       3.862999239199e-03       1.295892538037e+04 
       4.171170630578e-03       1.373266008785e+04 
       4.503926444729e-03       1.453111833400e+04 
       4.863227907969e-03       1.535154904958e+04 
       5.251192703764e-03       1.619063115815e+04 
       5.670107454120e-03       1.704431204684e+04 
       6.122441196689e-03       1.790756181430e+04 
       6.610859936996e-03       1.877460533707e+04 
       7.138242361596e-03       1.963872852382e+04 
       7.707696804727e-03       2.049214929416e+04 
       8.322579568496e-03       2.132610337439e+04 
       8.986514704559e-03       2.213054713615e+04 
       9.703415373875e-03       2.289441332145e+04 
       1.047750691046e-02       2.360545542383e+04 
       1.131335172503e-02       2.425022259247e+04 
       1.221587619537e-02       2.481418893279e+04 
       1.319039970183e-02       2.528217143348e+04 
       1.424266597920e-02       2.563798731504e+04 
       1.537887696964e-02       2.586598410379e+04 
       1.660572937560e-02       2.595005349068e+04 
       1.793045412207e-02       2.587607459946e+04 
       1.936085889642e-02       2.563225058687e+04 
       2.090537351881e-02       2.520925306683e+04 
       2.257309534705e-02       2.460431671756e+04 
       2.437382002240e-02       2.382074324257e+04 
       2.631799943729e-02       2.287026633993e+04 
       2.841644544598e-02       2.177434769995e+04 
       3.067933354524e-02       2.056535132528e+04 
       3.311368469821e-02       1.928716967582e+04 
       3.571840442514e-02       1.799387954990e+04 
       3.847720347390e-02       1.674671012289e+04 
       4.135335537314e-02       1.560451302924e+04 
       4.429361666563e-02       1.461032067322e+04 
       4.724366437916e-02       1.378049404753e+04 
       5.016480834039e-02       1.310495059668e+04 
       5.303989618930e-02       1.255712820480e+04 
       5.586870668205e-02       1.210422422587e+04 
       5.866042679206e-02       1.171433710826e+04 
       6.142798931504e-02       1.136010710036e+04 
       6.418496438662e-02       1.101860406017e+04 
       6.694418832236e-02       1.067064312028e+04 
       6.971731104453e-02       1.030362312636e+04 
       7.251476154108e-02       9.909066309169e+03 
       7.534587669814e-02       9.483613151984e+03 
       7.821907664495e-02       9.029315231623e+03 
       8.114203771084e-02       8.552111102907e+03 
       8.412184533139e-02       8.061938664849e+03 
       8.716512277352e-02       7.570751082708e+03 
       9.027813693913e-02       7.092457953565e+03 
       9.346688429613e-02       6.640510904093e+03 
       9.673716026122e-02       6.226699404403e+03 
       1.000946150608e-01       5.859920721773e+03 
       1.035447986307e-01       5.545241146563e+03 
       1.070931966524e-01       5.283133796290e+03 
       1.107452594180e-01       5.069442099216e+03 
       1.145064248899e-01       4.895240362376e+03 
       1.183821370656e-01       4.747831281404e+03 
       1.223778605591e-01       4.611701427225e+03 
       1.264990921707e-01       4.470596743508e+03 
       1.307513701078e-01       4.310252431841e+03 
       1.351402814485e-01       4.121371110882e+03 
       1.396714683894e-01       3.902025218017e+03 
       1.443506337875e-01       3.658626711725e+03 
       1.491835464900e-01       3.404432922955e+03 
       1.541760469368e-01       3.156611269736e+03 
       1.593340535209e-01       2.931894368836e+03 
       1.646635701934e-01       2.742324376611e+03 
       1.701706958081e-01       2.592204467725e+03 
       1.758616357070e-01       2.477185960108e+03 
       1.817427160581e-01       2.385123675315e+03 
       1.878204014651e-01       2.300307038234e+03 
       1.941013163855e-01       2.205736673722e+03 
       2.005922709060e-01       2.090799786642e+03 
       2.073002914514e-01       1.956419872560e+03 
       2.142326570343e-01       1.814129367064e+03 
       2.213969417044e-01       1.679224646204e+03 
       2.288010639201e-01       1.563795738092e+03 
       2.364533436625e-01       1.472618320693e+03 
       2.443625682390e-01       1.401460654414e+03 
       2.525380678946e-01       1.338361933011e+03 
       2.609898025770e-01       1.270840796084e+03 
       2.697284614969e-01       1.193297001927e+03 
       2.787655775073e-01       1.109270887476e+03 
       2.881136588192e-01       1.028698222836e+03 
       2.977863412019e-01       9.604092548172e+02 
       3.077985646248e-01       9.049514364319e+02 
       3.181667793367e-01       8.560634399119e+02 
       3.289091877084e-01       8.061056004604e+02 
       3.400460298905e-01       7.523089260417e+02 
       3.515999235695e-01       6.988365885620e+02 
       3.635962710278e-01       6.509694245851e+02 
       3.760637505499e-01       6.100353752267e+02 
       3.890349143014e-01       5.720405262439e+02 
       4.025469215929e-01       5.336855030875e+02 
       4.166424455447e-01       4.955313613174e+02 
       4.313708034899e-01       4.603678822867e+02 
       4.467893781976e-01       4.286707955630e+02 
       4.629654198623e-01       3.986648349180e+02 
       4.799783500912e-01       3.691292762278e+02 
       4.979227318246e-01       3.411264029500e+02 
       5.169121269689e-01       3.153639895003e+02 
       5.370841403262e-01       2.907117583179e+02 
       5.586070463286e-01       2.669784656172e+02 
       5.816885093582e-01       2.446762637590e+02 
       6.065870143577e-01       2.234308846485e+02 
       6.336266466978e-01       2.030679914285e+02 
       6.632156057925e-01       1.837300887208e+02 
       6.958678637575e-01       1.651992222088e+02 
       7.322247983784e-01       1.475316861813e+02 
       7.730680193171e-01       1.306620602095e+02 
       8.193049551574e-01       1.146492727953e+02 
       8.718988013754e-01       9.956894890746e+01 
       9.317218028590e-01       8.557056313689e+01 
       9.993660906273e-01       7.283257958503e+01 
       1.075037109879e+00       6.149703696089e+01 
       1.158653485387e+00       5.162142620394e+01 
       1.250099156961e+00       4.316221306967e+01 
       1.349432400897e+00       3.598940034466e+01 
       1.456947456991e+00       2.994447290994e+01 
       1.573135110893e+00       2.486550210545e+01 
       1.698621895119e+00       2.060591158346e+01 
       1.834127512423e+00       1.703743911621e+01 
       1.980444933977e+00       1.405038035309e+01 
       2.138435191130e+00       1.155180573326e+01 
       2.309029198543e+00       9.462728218744e+00 
       2.493232376993e+00       7.717301846136e+00 
       2.692130394536e+00       6.259424221259e+00 
       2.906895533764e+00       5.042468519089e+00 
       3.138793596840e+00       4.027351117646e+00 
       3.389191365541e+00       3.181682951344e+00 
       3.659564656886e+00       2.478691940597e+00 
       3.951507021438e+00       1.896415623605e+00 
       4.266739135513e+00       1.417026798930e+00 
       4.607118942658e+00       1.026054611457e+00 
       4.974652604172e+00       7.119771176107e-01 
       5.371506323193e+00       4.654957514155e-01 
       5.800019112071e+00       2.789212370667e-01 
       6.262716578240e+00       1.456183259717e-01 
       6.762325809881e+00       5.926129975799e-02 
       7.301791449077e+00       1.322898218418e-02 
       7.884293047211e+00       2.867356863207e-06 
       8.513263804891e+00       1.084638939205e-02 
       9.192410806865e+00       3.586058431729e-02 
       9.925736871166e+00       6.461505388155e-02 
       1.071756414128e+01       8.741012822661e-02 
       1.157255956041e+01       9.703350809463e-02 
       1.249576237789e+01       9.053328004479e-02 
       1.349261385000e+01       7.023623032627e-02 
       1.456898931011e+01       4.317785235652e-02 
       1.573123279727e+01       1.851004569307e-02 
       1.698619444729e+01       3.523182855258e-03 
       1.834127086665e+01       1.230365468377e-04 
       1.980444872733e+01       4.139990399162e-03 
       2.138435183937e+01       8.515437277602e-03 
       2.309029197863e+01       8.506090671438e-03 
       2.493232376942e+01       4.705674603398e-03 
       2.692130394533e+01       1.047817210928e-03 
       2.906895533764e+01       4.735567552544e-06 
       3.138793596840e+01       5.260217244048e-04 
       3.389191365541e+01       6.425837607195e-04 
       3.659564656886e+01       2.072511770572e-04 
       3.951507021438e+01       1.026054028286e-06 
       4.266739135513e+01       3.098385929822e-05 
       4.607118942658e+01       1.602574580484e-05 
       4.974652604172e+01       9.351282334069e-10 
       5.371506323193e+01       1.282891845272e-06 
       5.800019112071e+01       8.459888056996e-08 
       6.262716578240e+01       5.623953931803e-07 
       6.762325809881e+01       5.739690453542e-08 
