# Matter power spectrum P(k) at redshift z=99
# for k=1.04775e-05 to 66.1767 h/Mpc,
# number of wavenumbers equal to 130
#    1:k (h/Mpc)              2:P (Mpc/h)^3        
       1.047750691046e-05       7.261927680867e-03 
       1.319039970183e-05       9.069258201856e-03 
       1.660572937635e-05       1.132639106726e-02 
       2.090537469327e-05       1.414527123400e-02 
       2.631830744443e-05       1.766569584059e-02 
       3.313278603720e-05       2.206225515944e-02 
       4.171170630578e-05       2.755297766279e-02 
       5.251192703764e-05       3.441013522950e-02 
       6.610859936996e-05       4.297372172781e-02 
       8.322579568497e-05       5.366826852948e-02 
       1.047750691046e-04       6.702379872780e-02 
       1.319039970183e-04       8.370193441293e-02 
       1.660572937635e-04       1.045283355385e-01 
       2.090537469327e-04       1.305329134105e-01 
       2.631830744443e-04       1.629994506607e-01 
       3.313278603720e-04       2.035264004603e-01 
       4.171170630578e-04       2.541004744245e-01 
       5.251192703764e-04       3.171839528559e-01 
       6.610859936996e-04       3.958147256516e-01 
       8.322579568497e-04       4.937136006280e-01 
       1.047750691046e-03       6.153841636043e-01 
       1.319039970183e-03       7.661720592774e-01 
       1.660572937635e-03       9.522588016418e-01 
       2.090537469327e-03       1.180312991699e+00 
       2.631830744443e-03       1.456802684683e+00 
       3.313278603720e-03       1.786503854032e+00 
       4.171170630578e-03       2.169896194618e+00 
       5.251192703764e-03       2.599430630688e+00 
       6.610859936996e-03       3.055668711749e+00 
       8.322579568497e-03       3.505725598403e+00 
       1.047750691046e-02       3.905490855569e+00 
       1.319039970183e-02       4.200915354787e+00 
       1.660572937633e-02       4.325062258125e+00 
       2.090537453514e-02       4.210206936773e+00 
       2.631818545635e-02       3.825150508123e+00 
       3.311571692125e-02       3.229055664774e+00 
       4.113809243311e-02       2.627732042089e+00 
       4.792590854610e-02       2.280790258011e+00 
       5.284436902701e-02       2.110083572915e+00 
       5.689644391095e-02       2.003535997771e+00 
       6.051252627066e-02       1.923061488334e+00 
       6.388413457411e-02       1.852734677841e+00 
       6.711249296401e-02       1.784562976741e+00 
       7.025823437965e-02       1.714274717852e+00 
       7.336115587705e-02       1.639814348569e+00 
       7.644928796912e-02       1.560662492119e+00 
       7.954353299775e-02       1.477452465025e+00 
       8.266024078725e-02       1.391697479967e+00 
       8.581273398637e-02       1.305460817304e+00 
       8.901225918437e-02       1.221125162424e+00 
       9.226860540985e-02       1.141077916967e+00 
       9.559052048996e-02       1.067453168592e+00 
       9.898599946599e-02       1.001891555957e+00 
       1.024624891378e-01       9.453822012444e-01 
       1.060270359164e-01       8.981507254119e-01 
       1.096863943056e-01       8.596138625256e-01 
       1.134471073830e-01       8.284058572869e-01 
       1.173155669539e-01       8.024685137316e-01 
       1.212980586983e-01       7.792293085743e-01 
       1.254007961065e-01       7.559172191346e-01 
       1.296299459934e-01       7.299834546966e-01 
       1.339916477160e-01       6.995940566603e-01 
       1.384920277736e-01       6.640784258903e-01 
       1.431372111762e-01       6.241484055218e-01 
       1.479333307714e-01       5.817650100631e-01 
       1.528865355934e-01       5.396909537208e-01 
       1.580029992204e-01       5.008133419072e-01 
       1.632889290723e-01       4.673984032740e-01 
       1.687505775527e-01       4.405348807259e-01 
       1.743942559171e-01       4.198657361604e-01 
       1.802263517371e-01       4.036586783082e-01 
       1.862533508214e-01       3.893622296868e-01 
       1.924818644494e-01       3.741387196317e-01 
       1.989186627765e-01       3.558042593948e-01 
       2.055707152847e-01       3.340028526295e-01 
       2.124452391818e-01       3.102655605298e-01 
       2.195497567139e-01       2.871227920941e-01 
       2.268921624510e-01       2.668082475011e-01 
       2.344808017550e-01       2.504837590938e-01 
       2.423245618548e-01       2.378335229751e-01 
       2.504329772620e-01       2.271117871595e-01 
       2.588163516754e-01       2.161191413625e-01 
       2.674858990930e-01       2.035471742301e-01 
       2.764539076010e-01       1.895972573305e-01 
       2.857339303080e-01       1.757576635137e-01 
       2.953410092148e-01       1.636992975456e-01 
       3.052919395542e-01       1.539059128770e-01 
       3.156055844677e-01       1.455311876223e-01 
       3.263032530092e-01       1.372503876005e-01 
       3.374091587054e-01       1.283015954470e-01 
       3.489509817175e-01       1.191712804001e-01 
       3.609605657343e-01       1.108075838969e-01 
       3.734747921333e-01       1.036450499145e-01 
       3.865366902904e-01       9.714101353814e-02 
       4.001968667448e-01       9.061512067089e-02 
       4.145153713076e-01       8.403692986580e-02 
       4.295641718077e-01       7.789093812770e-02 
       4.454304922144e-01       7.234154351165e-02 
       4.622214006969e-01       6.709364557089e-02 
       4.800702491654e-01       6.189181938461e-02 
       4.991459272112e-01       5.692622371711e-02 
       5.196665217302e-01       5.231609585068e-02 
       5.419201087032e-01       4.783236910892e-02 
       5.662975451962e-01       4.348669993752e-02 
       5.933463737275e-01       3.933075358340e-02 
       6.238638458458e-01       3.525318241529e-02 
       6.590669257916e-01       3.126257255677e-02 
       7.009246080454e-01       2.728714000829e-02 
       7.528593308799e-01       2.327812299453e-02 
       8.213469537518e-01       1.914793727657e-02 
       9.196980813302e-01       1.481665801623e-02 
       1.075112183810e+00       1.035043127063e-02 
       1.322697471132e+00       6.378839082129e-03 
       1.662328205042e+00       3.704861620269e-03 
       2.092692408506e+00       2.123471696943e-03 
       2.634543445090e+00       1.206559066005e-03 
       3.316693691389e+00       6.798821479302e-04 
       4.175469971226e+00       3.797551961036e-04 
       5.256605252960e+00       2.098501802435e-04 
       6.617673932723e+00       1.141157869908e-04 
       8.331157880872e+00       6.031180609687e-05 
       1.048830636590e+01       3.011608820352e-05 
       1.320399541071e+01       1.332147319298e-05 
       1.662284535976e+01       4.439759344614e-06 
       2.092692243973e+01       6.196623908643e-07 
       2.634543445002e+01       7.392552671468e-08 
       3.316693691389e+01       8.111510635262e-07 
       4.175469971226e+01       7.875344218522e-07 
       5.256605252960e+01       7.841481215445e-08 
       6.617673932723e+01       9.694584175732e-08 
