# Matter power spectrum P(k) at redshift z=0
# for k=1.04775e-05 to 66.1767 h/Mpc,
# number of wavenumbers equal to 130
#    1:k (h/Mpc)              2:P (Mpc/h)^3        
       1.047750691046e-05       5.020964811308e+01 
       1.319039970183e-05       6.270562594778e+01 
       1.660572937635e-05       7.831147247912e+01 
       2.090537469327e-05       9.780108069296e+01 
       2.631830744443e-05       1.221408203809e+02 
       3.313278603720e-05       1.525374501932e+02 
       4.171170630578e-05       1.904975994010e+02 
       5.251192703764e-05       2.379022224249e+02 
       6.610859936996e-05       2.970989227882e+02 
       8.322579568497e-05       3.710167318946e+02 
       1.047750691046e-04       4.633080766742e+02 
       1.319039970183e-04       5.785234129338e+02 
       1.660572937635e-04       7.223242666092e+02 
       2.090537469327e-04       9.017396271824e+02 
       2.631830744443e-04       1.125468123750e+03 
       3.313278603720e-04       1.404223053681e+03 
       4.171170630578e-04       1.751108028790e+03 
       5.251192703764e-04       2.181998448133e+03 
       6.610859936996e-04       2.715889983592e+03 
       8.322579568497e-04       3.375152337134e+03 
       1.047750691046e-03       4.185552174308e+03 
       1.319039970183e-03       5.175742738735e+03 
       1.660572937635e-03       6.376123051779e+03 
       2.090537469327e-03       7.815671868448e+03 
       2.631830744443e-03       9.517783069112e+03 
       3.313278603720e-03       1.149357460343e+04 
       4.171170630578e-03       1.373266011047e+04 
       5.251192703764e-03       1.619063614558e+04 
       6.610859936996e-03       1.877460356192e+04 
       8.322579568497e-03       2.132607231840e+04 
       1.047750691046e-02       2.360548752687e+04 
       1.319039970183e-02       2.528218849849e+04 
       1.660572937633e-02       2.595027536867e+04 
       2.090537453514e-02       2.520935434514e+04 
       2.631818545635e-02       2.287037112885e+04 
       3.311571692125e-02       1.928622178029e+04 
       4.113809243311e-02       1.568426760979e+04 
       4.792590854610e-02       1.361059706172e+04 
       5.284436902701e-02       1.259130462148e+04 
       5.689644391095e-02       1.195555738701e+04 
       6.051252627066e-02       1.147546410437e+04 
       6.388413457411e-02       1.105589545497e+04 
       6.711249296401e-02       1.064899689281e+04 
       7.025823437965e-02       1.022928544496e+04 
       7.336115587705e-02       9.784494377372e+03 
       7.644928796912e-02       9.311655776241e+03 
       7.954353299775e-02       8.814532571187e+03 
       8.266024078725e-02       8.302105263849e+03 
       8.581273398637e-02       7.786949851693e+03 
       8.901225918437e-02       7.283150106194e+03 
       9.226860540985e-02       6.805168709958e+03 
       9.559052048996e-02       6.365640089414e+03 
       9.898599946599e-02       5.974399565875e+03 
       1.024624891378e-01       5.637314053597e+03 
       1.060270359164e-01       5.355769397590e+03 
       1.096863943056e-01       5.126234485771e+03 
       1.134471073830e-01       4.940488049622e+03 
       1.173155669539e-01       4.786168367203e+03 
       1.212980586983e-01       4.647943543872e+03 
       1.254007961065e-01       4.509137082748e+03 
       1.296299459934e-01       4.354544869593e+03 
       1.339916477160e-01       4.173205200880e+03 
       1.384920277736e-01       3.961162044454e+03 
       1.431372111762e-01       3.722692510841e+03 
       1.479333307714e-01       3.469529655584e+03 
       1.528865355934e-01       3.218339971671e+03 
       1.580029992204e-01       2.986290924376e+03 
       1.632889290723e-01       2.786968551086e+03 
       1.687505775527e-01       2.626824324444e+03 
       1.743942559171e-01       2.503752220680e+03 
       1.802263517371e-01       2.407343134107e+03 
       1.862533508214e-01       2.322255629292e+03 
       1.924818644494e-01       2.231556955922e+03 
       1.989186627765e-01       2.122189726654e+03 
       2.055707152847e-01       1.992028875587e+03 
       2.124452391818e-01       1.850324035559e+03 
       2.195497567139e-01       1.712184438420e+03 
       2.268921624510e-01       1.590987377124e+03 
       2.344808017550e-01       1.493667308777e+03 
       2.423245618548e-01       1.418307808983e+03 
       2.504329772620e-01       1.354468106918e+03 
       2.588163516754e-01       1.288935688581e+03 
       2.674858990930e-01       1.213934216908e+03 
       2.764539076010e-01       1.130691313951e+03 
       2.857339303080e-01       1.048102269809e+03 
       2.953410092148e-01       9.761829222972e+02 
       3.052919395542e-01       9.178116451503e+02 
       3.156055844677e-01       8.678984885533e+02 
       3.263032530092e-01       8.185251783746e+02 
       3.374091587054e-01       7.651445325233e+02 
       3.489509817175e-01       7.106700316392e+02 
       3.609605657343e-01       6.607865463491e+02 
       3.734747921333e-01       6.180845219348e+02 
       3.865366902904e-01       5.793096786785e+02 
       4.001968667448e-01       5.403916300748e+02 
       4.145153713076e-01       5.011520842002e+02 
       4.295641718077e-01       4.644995549211e+02 
       4.454304922144e-01       4.314107652099e+02 
       4.622214006969e-01       4.001128250308e+02 
       4.800702491654e-01       3.690900579705e+02 
       4.991459272112e-01       3.394760624501e+02 
       5.196665217302e-01       3.119853056616e+02 
       5.419201087032e-01       2.852463514732e+02 
       5.662975451962e-01       2.593311317977e+02 
       5.933463737275e-01       2.345478367948e+02 
       6.238638458458e-01       2.102305389905e+02 
       6.590669257916e-01       1.864335683306e+02 
       7.009246080454e-01       1.627248811588e+02 
       7.528593308799e-01       1.388180813147e+02 
       8.213469537518e-01       1.141883801699e+02 
       9.196980813302e-01       8.835932598305e+01 
       1.075112183810e+00       6.172569531763e+01 
       1.322697471132e+00       3.804278214296e+01 
       1.662328205042e+00       2.209787362385e+01 
       2.092692408506e+00       1.266911097607e+01 
       2.634543445090e+00       7.203258943097e+00 
       3.316693691389e+00       4.065102995678e+00 
       4.175469971226e+00       2.278604742875e+00 
       5.256605252960e+00       1.269353789506e+00 
       6.617673932723e+00       7.031363715656e-01 
       8.331157880872e+00       3.874731666793e-01 
       1.048830636590e+01       2.125087291203e-01 
       1.320399541071e+01       1.160355785254e-01 
       1.662284535976e+01       6.309871144099e-02 
       2.092692243973e+01       3.417938957140e-02 
       2.634543445002e+01       1.844593636912e-02 
       3.316693691389e+01       9.918988291553e-03 
       4.175469971226e+01       5.314473499924e-03 
       5.256605252960e+01       2.836543998392e-03 
       6.617673932723e+01       1.507578796767e-03 
