# Matter power spectrum P(k) at redshift z=0
# for k=1.04775e-05 to 66.1767 h/Mpc,
# number of wavenumbers equal to 130
#    1:k (h/Mpc)              2:P (Mpc/h)^3        
       1.047750691046e-05       5.020964811312e+01 
       1.319039970183e-05       6.270562594781e+01 
       1.660572937635e-05       7.831147247912e+01 
       2.090537469327e-05       9.780108069294e+01 
       2.631830744443e-05       1.221408203809e+02 
       3.313278603720e-05       1.525374501932e+02 
       4.171170630578e-05       1.904975994010e+02 
       5.251192703764e-05       2.379022224249e+02 
       6.610859936996e-05       2.970989227882e+02 
       8.322579568497e-05       3.710167318946e+02 
       1.047750691046e-04       4.633080766742e+02 
       1.319039970183e-04       5.785234129339e+02 
       1.660572937635e-04       7.223242666092e+02 
       2.090537469327e-04       9.017396271824e+02 
       2.631830744443e-04       1.125468123750e+03 
       3.313278603720e-04       1.404223053681e+03 
       4.171170630578e-04       1.751108028789e+03 
       5.251192703764e-04       2.181998448133e+03 
       6.610859936996e-04       2.715889983593e+03 
       8.322579568497e-04       3.375152337134e+03 
       1.047750691046e-03       4.185552174307e+03 
       1.319039970183e-03       5.175742740873e+03 
       1.660572937635e-03       6.376123051775e+03 
       2.090537469327e-03       7.815671913586e+03 
       2.631830744443e-03       9.517783069112e+03 
       3.313278603720e-03       1.149357460346e+04 
       4.171170630578e-03       1.373266012892e+04 
       5.251192703764e-03       1.619063614560e+04 
       6.610859936996e-03       1.877460419161e+04 
       8.322579568497e-03       2.132607231902e+04 
       1.047750691046e-02       2.360548891149e+04 
       1.319039970183e-02       2.528218618427e+04 
       1.660572937633e-02       2.595026415676e+04 
       2.090537453514e-02       2.520935680901e+04 
       2.631818545635e-02       2.287032955237e+04 
       3.311571692125e-02       1.928622267410e+04 
       4.113809243311e-02       1.568428007949e+04 
       4.792590854610e-02       1.361061783430e+04 
       5.284436902701e-02       1.259129147000e+04 
       5.689644391095e-02       1.195556534945e+04 
       6.051252627066e-02       1.147548619589e+04 
       6.388413457411e-02       1.105589804737e+04 
       6.711249296401e-02       1.064900322109e+04 
       7.025823437965e-02       1.022929000241e+04 
       7.336115587705e-02       9.784534878010e+03 
       7.644928796912e-02       9.311670457042e+03 
       7.954353299775e-02       8.814545560489e+03 
       8.266024078725e-02       8.302118074053e+03 
       8.581273398637e-02       7.786954613554e+03 
       8.901225918437e-02       7.283174452898e+03 
       9.226860540985e-02       6.805166585875e+03 
       9.559052048996e-02       6.365638952475e+03 
       9.898599946599e-02       5.974388297259e+03 
       1.024624891378e-01       5.637313433647e+03 
       1.060270359164e-01       5.355772935367e+03 
       1.096863943056e-01       5.126241096359e+03 
       1.134471073830e-01       4.940468695560e+03 
       1.173155669539e-01       4.786168249401e+03 
       1.212980586983e-01       4.647938176137e+03 
       1.254007961065e-01       4.509151721779e+03 
       1.296299459934e-01       4.354560565000e+03 
       1.339916477160e-01       4.173211615642e+03 
       1.384920277736e-01       3.961162683006e+03 
       1.431372111762e-01       3.722677499971e+03 
       1.479333307714e-01       3.469544393597e+03 
       1.528865355934e-01       3.218351756229e+03 
       1.580029992204e-01       2.986295851948e+03 
       1.632889290723e-01       2.786966125116e+03 
       1.687505775527e-01       2.626833943022e+03 
       1.743942559171e-01       2.503756693235e+03 
       1.802263517371e-01       2.407343571114e+03 
       1.862533508214e-01       2.322255687941e+03 
       1.924818644494e-01       2.231550534246e+03 
       1.989186627765e-01       2.122190034986e+03 
       2.055707152847e-01       1.992024046696e+03 
       2.124452391818e-01       1.850325230091e+03 
       2.195497567139e-01       1.712181750374e+03 
       2.268921624510e-01       1.590994851184e+03 
       2.344808017550e-01       1.493667073151e+03 
       2.423245618548e-01       1.418308381525e+03 
       2.504329772620e-01       1.354465936986e+03 
       2.588163516754e-01       1.288934723818e+03 
       2.674858990930e-01       1.213940419726e+03 
       2.764539076010e-01       1.130694909456e+03 
       2.857339303080e-01       1.048099753178e+03 
       2.953410092148e-01       9.761789291698e+02 
       3.052919395542e-01       9.178086394275e+02 
       3.156055844677e-01       8.679003829395e+02 
       3.263032530092e-01       8.185255958240e+02 
       3.374091587054e-01       7.651447166685e+02 
       3.489509817175e-01       7.106718627303e+02 
       3.609605657343e-01       6.607864670274e+02 
       3.734747921333e-01       6.180861292295e+02 
       3.865366902904e-01       5.793112857071e+02 
       4.001968667448e-01       5.403927203730e+02 
       4.145153713076e-01       5.011488883610e+02 
       4.295641718077e-01       4.644985320388e+02 
       4.454304922144e-01       4.314091216523e+02 
       4.622214006969e-01       4.001147490547e+02 
       4.800702491654e-01       3.690889824286e+02 
       4.991459272112e-01       3.394764550059e+02 
       5.196665217302e-01       3.119865877057e+02 
       5.419201087032e-01       2.852473489721e+02 
       5.662975451962e-01       2.593309791625e+02 
       5.933463737275e-01       2.345486468342e+02 
       6.238638458458e-01       2.102311453112e+02 
       6.590669257916e-01       1.864337610754e+02 
       7.009246080454e-01       1.627250052739e+02 
       7.528593308799e-01       1.388183671402e+02 
       8.213469537518e-01       1.141885824719e+02 
       9.196980813302e-01       8.835926255806e+01 
       1.075112183810e+00       6.172630201695e+01 
       1.322697471132e+00       3.804275826206e+01 
       1.662328205042e+00       2.209795295461e+01 
       2.092692408506e+00       1.266922407198e+01 
       2.634543445090e+00       7.203371097124e+00 
       3.316693691389e+00       4.065163168275e+00 
       4.175469971226e+00       2.278616865227e+00 
       5.256605252960e+00       1.269362044831e+00 
       6.617673932723e+00       7.031388259410e-01 
       8.331157880872e+00       3.874785349339e-01 
       1.048830636590e+01       2.125107324109e-01 
       1.320399541071e+01       1.160366329147e-01 
       1.662284535976e+01       6.309944044911e-02 
       2.092692243973e+01       3.417986365319e-02 
       2.634543445002e+01       1.844626293377e-02 
       3.316693691389e+01       9.919148491110e-03 
       4.175469971226e+01       5.314607098473e-03 
       5.256605252960e+01       2.836720695191e-03 
       6.617673932723e+01       1.507711880473e-03 
