# Matter power spectrum P(k) at redshift z=99
# for k=1.04775e-05 to 66.1767 h/Mpc,
# number of wavenumbers equal to 130
#    1:k (h/Mpc)              2:P (Mpc/h)^3        
       1.047750691046e-05       7.261927680862e-03 
       1.319039970183e-05       9.069258201849e-03 
       1.660572937635e-05       1.132639106725e-02 
       2.090537469327e-05       1.414527123399e-02 
       2.631830744443e-05       1.766569584058e-02 
       3.313278603720e-05       2.206225515943e-02 
       4.171170630578e-05       2.755297766277e-02 
       5.251192703764e-05       3.441013522948e-02 
       6.610859936996e-05       4.297372172778e-02 
       8.322579568497e-05       5.366826852945e-02 
       1.047750691046e-04       6.702379872775e-02 
       1.319039970183e-04       8.370193441287e-02 
       1.660572937635e-04       1.045283355384e-01 
       2.090537469327e-04       1.305329134104e-01 
       2.631830744443e-04       1.629994506606e-01 
       3.313278603720e-04       2.035264004602e-01 
       4.171170630578e-04       2.541004744243e-01 
       5.251192703764e-04       3.171839528557e-01 
       6.610859936996e-04       3.958147256514e-01 
       8.322579568497e-04       4.937136006281e-01 
       1.047750691046e-03       6.153841636042e-01 
       1.319039970183e-03       7.661720592735e-01 
       1.660572937635e-03       9.522588016474e-01 
       2.090537469327e-03       1.180312991699e+00 
       2.631830744443e-03       1.456802684685e+00 
       3.313278603720e-03       1.786503854043e+00 
       4.171170630578e-03       2.169896192189e+00 
       5.251192703764e-03       2.599430630717e+00 
       6.610859936996e-03       3.055668707541e+00 
       8.322579568497e-03       3.505724277268e+00 
       1.047750691046e-02       3.905491038571e+00 
       1.319039970183e-02       4.200915354938e+00 
       1.660572937633e-02       4.325061470593e+00 
       2.090537453514e-02       4.210199522158e+00 
       2.631818545635e-02       3.825153533713e+00 
       3.311571692125e-02       3.229071352072e+00 
       4.113809243311e-02       2.627736003822e+00 
       4.792590854610e-02       2.280794434400e+00 
       5.284436902701e-02       2.110086310925e+00 
       5.689644391095e-02       2.003540166856e+00 
       6.051252627066e-02       1.923057199714e+00 
       6.388413457411e-02       1.852735481345e+00 
       6.711249296401e-02       1.784566312017e+00 
       7.025823437965e-02       1.714277793158e+00 
       7.336115587705e-02       1.639817110070e+00 
       7.644928796912e-02       1.560662163275e+00 
       7.954353299775e-02       1.477460067590e+00 
       8.266024078725e-02       1.391696059459e+00 
       8.581273398637e-02       1.305461678397e+00 
       8.901225918437e-02       1.221125669118e+00 
       9.226860540985e-02       1.141082261435e+00 
       9.559052048996e-02       1.067453578398e+00 
       9.898599946599e-02       1.001891100503e+00 
       1.024624891378e-01       9.453821851698e-01 
       1.060270359164e-01       8.981500526350e-01 
       1.096863943056e-01       8.596113883305e-01 
       1.134471073830e-01       8.284055743290e-01 
       1.173155669539e-01       8.024675794169e-01 
       1.212980586983e-01       7.792265049122e-01 
       1.254007961065e-01       7.559175602909e-01 
       1.296299459934e-01       7.299828412857e-01 
       1.339916477160e-01       6.995932558047e-01 
       1.384920277736e-01       6.640786886135e-01 
       1.431372111762e-01       6.241452937323e-01 
       1.479333307714e-01       5.817633745460e-01 
       1.528865355934e-01       5.396918751447e-01 
       1.580029992204e-01       5.008154230351e-01 
       1.632889290723e-01       4.673983768381e-01 
       1.687505775527e-01       4.405335493957e-01 
       1.743942559171e-01       4.198660437728e-01 
       1.802263517371e-01       4.036607377215e-01 
       1.862533508214e-01       3.893595326543e-01 
       1.924818644494e-01       3.741344981891e-01 
       1.989186627765e-01       3.558015795550e-01 
       2.055707152847e-01       3.340005265722e-01 
       2.124452391818e-01       3.102663197267e-01 
       2.195497567139e-01       2.871226362009e-01 
       2.268921624510e-01       2.668084661584e-01 
       2.344808017550e-01       2.504829724843e-01 
       2.423245618548e-01       2.378337482829e-01 
       2.504329772620e-01       2.271122123959e-01 
       2.588163516754e-01       2.161186402548e-01 
       2.674858990930e-01       2.035456849441e-01 
       2.764539076010e-01       1.895983702736e-01 
       2.857339303080e-01       1.757572210459e-01 
       2.953410092148e-01       1.636988479347e-01 
       3.052919395542e-01       1.539060683460e-01 
       3.156055844677e-01       1.455308948515e-01 
       3.263032530092e-01       1.372506315757e-01 
       3.374091587054e-01       1.283021647861e-01 
       3.489509817175e-01       1.191710575570e-01 
       3.609605657343e-01       1.108074552712e-01 
       3.734747921333e-01       1.036449617639e-01 
       3.865366902904e-01       9.714157745507e-02 
       4.001968667448e-01       9.061559424695e-02 
       4.145153713076e-01       8.403709426245e-02 
       4.295641718077e-01       7.789129968127e-02 
       4.454304922144e-01       7.234160917719e-02 
       4.622214006969e-01       6.709358547816e-02 
       4.800702491654e-01       6.189165022766e-02 
       4.991459272112e-01       5.692602213230e-02 
       5.196665217302e-01       5.231608370244e-02 
       5.419201087032e-01       4.783242880188e-02 
       5.662975451962e-01       4.348667845572e-02 
       5.933463737275e-01       3.933073549904e-02 
       6.238638458458e-01       3.525314513408e-02 
       6.590669257916e-01       3.126257862648e-02 
       7.009246080454e-01       2.728708246211e-02 
       7.528593308799e-01       2.327799839815e-02 
       8.213469537518e-01       1.914776079498e-02 
       9.196980813302e-01       1.481650995007e-02 
       1.075112183810e+00       1.035029337531e-02 
       1.322697471132e+00       6.378591520223e-03 
       1.662328205042e+00       3.704515017084e-03 
       2.092692408506e+00       2.123007482699e-03 
       2.634543445090e+00       1.205946848592e-03 
       3.316693691389e+00       6.790856626877e-04 
       4.175469971226e+00       3.787493043103e-04 
       5.256605252960e+00       2.086120570893e-04 
       6.617673932723e+00       1.126488360921e-04 
       8.331157880872e+00       5.865744621454e-05 
       1.048830636590e+01       2.839300133663e-05 
       1.320399541071e+01       1.175434826001e-05 
       1.662284535976e+01       3.341648490458e-06 
       2.092692243973e+01       2.362851515239e-07 
       2.634543445002e+01       2.661266529412e-07 
       3.316693691389e+01       9.709425363804e-07 
       4.175469971226e+01       5.991732378959e-07 
       5.256605252960e+01       1.027664837095e-08 
       6.617673932723e+01       1.101492663399e-07 
