# Matter power spectrum P(k) at redshift z=99
# for k=1.04775e-05 to 67.6233 h/Mpc,
# number of wavenumbers equal to 246
#    1:k (h/Mpc)              2:P (Mpc/h)^3        
       1.047750691046e-05       7.261927680885e-03 
       1.131335172503e-05       7.820331652457e-03 
       1.221587619537e-05       8.421675995481e-03 
       1.319039970183e-05       9.069258201878e-03 
       1.424266597921e-05       9.766638412164e-03 
       1.537887696968e-05       1.051764070804e-02 
       1.660572937635e-05       1.132639106729e-02 
       1.793045413292e-05       1.219733232719e-02 
       1.936085902198e-05       1.313524225783e-02 
       2.090537469327e-05       1.414527123404e-02 
       2.257310435294e-05       1.523296273828e-02 
       2.437387741694e-05       1.640429446293e-02 
       2.631830744443e-05       1.766569584064e-02 
       2.841785469300e-05       1.902408737011e-02 
       3.068489366414e-05       2.048692972779e-02 
       3.313278603720e-05       2.206225515949e-02 
       3.577595942169e-05       2.375870707446e-02 
       3.862999239199e-05       2.558560730211e-02 
       4.171170630578e-05       2.755297766286e-02 
       4.503926444729e-05       2.967161930482e-02 
       4.863227907969e-05       3.195316454243e-02 
       5.251192703764e-05       3.441013522958e-02 
       5.670107454120e-05       3.705601726483e-02 
       6.122441196689e-05       3.990533417810e-02 
       6.610859936996e-05       4.297372172791e-02 
       7.138242361596e-05       4.627802146629e-02 
       7.707696804727e-05       4.983636199480e-02 
       8.322579568497e-05       5.366826852961e-02 
       8.986514704559e-05       5.779476400739e-02 
       9.703415373875e-05       6.223848250530e-02 
       1.047750691046e-04       6.702379872796e-02 
       1.131335172503e-04       7.217695161087e-02 
       1.221587619537e-04       7.772619081869e-02 
       1.319039970183e-04       8.370193441313e-02 
       1.424266597921e-04       9.013692517171e-02 
       1.537887696968e-04       9.706641252933e-02 
       1.660572937635e-04       1.045283355387e-01 
       1.793045413292e-04       1.125635350270e-01 
       1.936085902198e-04       1.212159616262e-01 
       2.090537469327e-04       1.305329134108e-01 
       2.257310435294e-04       1.405652847715e-01 
       2.437387741694e-04       1.513678304156e-01 
       2.631830744443e-04       1.629994506610e-01 
       2.841785469300e-04       1.755234923098e-01 
       3.068489366414e-04       1.890080672431e-01 
       3.313278603720e-04       2.035264004608e-01 
       3.577595942169e-04       2.191571806020e-01 
       3.862999239199e-04       2.359849440110e-01 
       4.171170630578e-04       2.541004744250e-01 
       4.503926444729e-04       2.736012083197e-01 
       4.863227907969e-04       2.945916794108e-01 
       5.251192703764e-04       3.171839528566e-01 
       5.670107454121e-04       3.414980767644e-01 
       6.122441196689e-04       3.676625417022e-01 
       6.610859936996e-04       3.958147256524e-01 
       7.138242361596e-04       4.261013289368e-01 
       7.707696804727e-04       4.586787797364e-01 
       8.322579568497e-04       4.937136006311e-01 
       8.986514704559e-04       5.313826807060e-01 
       9.703415373875e-04       5.718734978245e-01 
       1.047750691046e-03       6.153841636054e-01 
       1.131335172503e-03       6.621233246505e-01 
       1.221587619537e-03       7.123098227997e-01 
       1.319039970183e-03       7.661720592497e-01 
       1.424266597921e-03       8.239546306456e-01 
       1.537887696968e-03       8.859011182849e-01 
       1.660572937635e-03       9.522588016381e-01 
       1.793045413292e-03       1.023280100900e+00 
       1.936085902198e-03       1.099216305737e+00 
       2.090537469327e-03       1.180312991694e+00 
       2.257310435294e-03       1.266804117180e+00 
       2.437387741694e-03       1.358904854827e+00 
       2.631830744443e-03       1.456802684673e+00 
       2.841785469300e-03       1.560646892139e+00 
       3.068489366414e-03       1.670536064222e+00 
       3.313278603720e-03       1.786503854014e+00 
       3.577595942169e-03       1.908502932731e+00 
       3.862999239199e-03       2.036387732765e+00 
       4.171170630578e-03       2.169896193197e+00 
       4.503926444729e-03       2.308631881275e+00 
       4.863227907969e-03       2.452047293352e+00 
       5.251192703764e-03       2.599430630586e+00 
       5.670107454120e-03       2.749896934389e+00 
       6.122441196689e-03       2.902386516055e+00 
       6.610859936996e-03       3.055668702298e+00 
       7.138242361596e-03       3.208356464319e+00 
       7.707696804727e-03       3.358923895133e+00 
       8.322579568496e-03       3.505725598213e+00 
       8.986514704559e-03       3.647009253819e+00 
       9.703415373875e-03       3.780923306973e+00 
       1.047750691046e-02       3.905491060678e+00 
       1.131335172503e-02       4.018587660660e+00 
       1.221587619537e-02       4.117901590107e+00 
       1.319039970183e-02       4.200915406760e+00 
       1.424266597920e-02       4.264939999703e+00 
       1.537887696964e-02       4.307217985710e+00 
       1.660572937560e-02       4.325062751580e+00 
       1.793045412207e-02       4.316059192296e+00 
       1.936085889642e-02       4.278232022557e+00 
       2.090537351881e-02       4.210205704002e+00 
       2.257309534705e-02       4.111419813881e+00 
       2.437382002240e-02       3.982421090621e+00 
       2.631799943729e-02       3.825172378055e+00 
       2.841644544598e-02       3.643282180257e+00 
       3.067933354524e-02       3.442199097066e+00 
       3.311368469821e-02       3.229241406281e+00 
       3.571840442514e-02       3.013515242741e+00 
       3.847720347390e-02       2.805281411476e+00 
       4.135335537314e-02       2.614411759674e+00 
       4.429361666563e-02       2.448133351522e+00 
       4.724366437916e-02       2.309243454833e+00 
       5.016480834039e-02       2.196109976094e+00 
       5.303989618930e-02       2.104363479490e+00 
       5.586870668205e-02       2.028460095942e+00 
       5.866042679206e-02       1.963156808640e+00 
       6.142798931504e-02       1.903781520105e+00 
       6.418496438662e-02       1.846481379816e+00 
       6.694418832236e-02       1.788198441317e+00 
       6.971731104453e-02       1.726716602466e+00 
       7.251476154108e-02       1.660654424687e+00 
       7.534587669814e-02       1.589472624061e+00 
       7.821907664495e-02       1.513438395172e+00 
       8.114203771084e-02       1.433569680612e+00 
       8.412184533139e-02       1.351492673427e+00 
       8.716512277352e-02       1.269275464166e+00 
       9.027813693913e-02       1.189194725965e+00 
       9.346688429613e-02       1.113500364989e+00 
       9.673716026122e-02       1.044175457571e+00 
       1.000946150608e-01       9.827054527709e-01 
       1.035447986307e-01       9.299379703828e-01 
       1.070931966524e-01       8.859586613207e-01 
       1.107452594180e-01       8.500704629094e-01 
       1.145064248899e-01       8.208044548271e-01 
       1.183821370656e-01       7.960246582170e-01 
       1.223778605591e-01       7.731467005480e-01 
       1.264990921707e-01       7.494524229242e-01 
       1.307513701078e-01       7.225576737600e-01 
       1.351402814485e-01       6.909106516790e-01 
       1.396714683894e-01       6.541824125544e-01 
       1.443506337875e-01       6.134273233476e-01 
       1.491835464900e-01       5.708687209234e-01 
       1.541760469368e-01       5.293651066769e-01 
       1.593340535209e-01       4.917106694914e-01 
       1.646635701934e-01       4.599196595621e-01 
       1.701706958081e-01       4.347284501004e-01 
       1.758616357070e-01       4.154081240542e-01 
       1.817427160581e-01       3.999354319254e-01 
       1.878204014651e-01       3.856849376001e-01 
       1.941013163855e-01       3.698142943339e-01 
       2.005922709060e-01       3.505507564080e-01 
       2.073002914514e-01       3.280466419134e-01 
       2.142326570343e-01       3.042139511925e-01 
       2.213969417044e-01       2.816108360155e-01 
       2.288010639201e-01       2.622564916423e-01 
       2.364533436625e-01       2.469617153626e-01 
       2.443625682390e-01       2.350126301219e-01 
       2.525380678946e-01       2.244205001944e-01 
       2.609898025770e-01       2.130955317495e-01 
       2.697284614969e-01       2.001021603986e-01 
       2.787655775073e-01       1.860191948455e-01 
       2.881136588192e-01       1.725170494672e-01 
       2.977863412019e-01       1.610658484625e-01 
       3.077985646248e-01       1.517606840376e-01 
       3.181667793367e-01       1.435590517160e-01 
       3.289091877084e-01       1.351818504368e-01 
       3.400460298905e-01       1.261642751440e-01 
       3.515999235695e-01       1.172016692351e-01 
       3.635962710278e-01       1.091764129660e-01 
       3.760637505499e-01       1.023092754137e-01 
       3.890349143014e-01       9.593732625166e-02 
       4.025469215929e-01       8.950733127106e-02 
       4.166424455447e-01       8.311158219378e-02 
       4.313708034899e-01       7.721516403890e-02 
       4.467893781976e-01       7.190026698539e-02 
       4.629654198623e-01       6.686867361789e-02 
       4.799783500912e-01       6.191715708788e-02 
       4.979227318246e-01       5.722183994280e-02 
       5.169121269689e-01       5.290256051635e-02 
       5.370841403262e-01       4.876948191904e-02 
       5.586070463286e-01       4.479065060730e-02 
       5.816885093582e-01       4.105158912412e-02 
       6.065870143577e-01       3.748955993594e-02 
       6.336266466978e-01       3.407602411149e-02 
       6.632156057925e-01       3.083432572103e-02 
       6.958678637575e-01       2.772799342289e-02 
       7.322247983784e-01       2.476676421298e-02 
       7.730680193171e-01       2.193925838742e-02 
       8.193049551574e-01       1.925580847246e-02 
       8.718988013754e-01       1.672902513146e-02 
       9.317218028590e-01       1.438395632434e-02 
       9.993660906273e-01       1.225037009389e-02 
       1.075037109879e+00       1.035230994748e-02 
       1.158653485387e+00       8.699447862994e-03 
       1.250099156961e+00       7.284331907670e-03 
       1.349432400897e+00       6.085194037186e-03 
       1.456947456991e+00       5.075461459908e-03 
       1.573135110893e+00       4.228017931793e-03 
       1.698621895119e+00       3.518277336546e-03 
       1.834127512423e+00       2.924703450773e-03 
       1.980444933977e+00       2.428896298930e-03 
       2.138435191130e+00       2.015243292692e-03 
       2.309029198543e+00       1.670501077084e-03 
       2.493232376993e+00       1.383531007035e-03 
       2.692130394536e+00       1.144863527862e-03 
       2.906895533764e+00       9.465934487137e-04 
       3.138793596840e+00       7.820316282834e-04 
       3.389191365541e+00       6.455637488190e-04 
       3.659564656886e+00       5.325125963040e-04 
       3.951507021438e+00       4.389343732901e-04 
       4.266739135513e+00       3.615423249262e-04 
       4.607118942658e+00       2.975835381529e-04 
       4.974652604172e+00       2.447725247892e-04 
       5.371506323193e+00       2.011999094362e-04 
       5.800019112071e+00       1.652745623771e-04 
       6.262716578240e+00       1.356754058191e-04 
       6.762325809881e+00       1.113064113838e-04 
       7.301791449077e+00       9.125729262658e-05 
       7.884293047211e+00       7.477136852489e-05 
       8.513263804891e+00       6.122620406724e-05 
       9.192410806865e+00       5.010272758189e-05 
       9.925736871166e+00       4.097430326659e-05 
       1.071756414128e+01       3.348749945572e-05 
       1.157255956041e+01       2.735029739504e-05 
       1.249576237789e+01       2.232243406523e-05 
       1.349261385000e+01       1.820595026103e-05 
       1.456898931011e+01       1.483736994726e-05 
       1.573123279727e+01       1.208236368027e-05 
       1.698619444729e+01       9.830380260230e-06 
       1.834127086665e+01       7.990602774941e-06 
       1.980444872733e+01       6.488531114872e-06 
       2.138435183937e+01       5.262771033332e-06 
       2.309029197863e+01       4.263088946546e-06 
       2.493232376942e+01       3.448408799018e-06 
       2.692130394533e+01       2.784781015982e-06 
       2.906895533764e+01       2.244633756718e-06 
       3.138793596840e+01       1.805319654648e-06 
       3.389191365541e+01       1.448301066314e-06 
       3.659564656886e+01       1.158488405053e-06 
       3.951507021438e+01       9.234487654952e-07 
       4.266739135513e+01       7.330687522061e-07 
       4.607118942658e+01       5.791283455437e-07 
       4.974652604172e+01       4.548551242904e-07 
       5.371506323193e+01       3.547907648038e-07 
       5.800019112071e+01       2.744454008224e-07 
       6.262716578240e+01       2.101758170330e-07 
       6.762325809881e+01       1.590050260257e-07 
