# Matter power spectrum P(k) at redshift z=0
# for k=1.04775e-05 to 67.6233 h/Mpc,
# number of wavenumbers equal to 246
#    1:k (h/Mpc)              2:P (Mpc/h)^3        
       1.047750691046e-05       5.020964811313e+01 
       1.131335172503e-05       5.407050701925e+01 
       1.221587619537e-05       5.822819068338e+01 
       1.319039970183e-05       6.270562594791e+01 
       1.424266597921e-05       6.752732240880e+01 
       1.537887696968e-05       7.271977206173e+01 
       1.660572937635e-05       7.831147247912e+01 
       1.793045413292e-05       8.433311821988e+01 
       1.936085902198e-05       9.081778249833e+01 
       2.090537469327e-05       9.780108069296e+01 
       2.257310435294e-05       1.053213197893e+02 
       2.437387741694e-05       1.134197377890e+02 
       2.631830744443e-05       1.221408203809e+02 
       2.841785469300e-05       1.315324642471e+02 
       3.068489366414e-05       1.416462094881e+02 
       3.313278603720e-05       1.525374501932e+02 
       3.577595942169e-05       1.642660688414e+02 
       3.862999239199e-05       1.768963506307e+02 
       4.171170630578e-05       1.904975994010e+02 
       4.503926444729e-05       2.051444491974e+02 
       4.863227907969e-05       2.209171465549e+02 
       5.251192703764e-05       2.379022224249e+02 
       5.670107454120e-05       2.561927927940e+02 
       6.122441196689e-05       2.758890444041e+02 
       6.610859936996e-05       2.970989227882e+02 
       7.138242361596e-05       3.199385560802e+02 
       7.707696804727e-05       3.445329783680e+02 
       8.322579568497e-05       3.710167318945e+02 
       8.986514704559e-05       3.995346444203e+02 
       9.703415373875e-05       4.302425407383e+02 
       1.047750691046e-04       4.633080766742e+02 
       1.131335172503e-04       4.989116271565e+02 
       1.221587619537e-04       5.372471950929e+02 
       1.319039970183e-04       5.785234129340e+02 
       1.424266597921e-04       6.229645936045e+02 
       1.537887696968e-04       6.708118490405e+02 
       1.660572937635e-04       7.223242666092e+02 
       1.793045413292e-04       7.777801563900e+02 
       1.936085902198e-04       8.374783614140e+02 
       2.090537469327e-04       9.017396271824e+02 
       2.257310435294e-04       9.709080268041e+02 
       2.437387741694e-04       1.045352449493e+03 
       2.631830744443e-04       1.125468123750e+03 
       2.841785469300e-04       1.211678180495e+03 
       3.068489366414e-04       1.304435250150e+03 
       3.313278603720e-04       1.404223053681e+03 
       3.577595942169e-04       1.511558014616e+03 
       3.862999239199e-04       1.626990837840e+03 
       4.171170630578e-04       1.751108028790e+03 
       4.503926444729e-04       1.884533382872e+03 
       4.863227907969e-04       2.027929378112e+03 
       5.251192703764e-04       2.181998448133e+03 
       5.670107454121e-04       2.347484102755e+03 
       6.122441196689e-04       2.525171871364e+03 
       6.610859936996e-04       2.715889983592e+03 
       7.138242361596e-04       2.920509688384e+03 
       7.707696804727e-04       3.139945100279e+03 
       8.322579568497e-04       3.375152337583e+03 
       8.986514704559e-04       3.627127831141e+03 
       9.703415373875e-04       3.896905453136e+03 
       1.047750691046e-03       4.185552174301e+03 
       1.131335172503e-03       4.494162430373e+03 
       1.221587619537e-03       4.823850706491e+03 
       1.319039970183e-03       5.175742739257e+03 
       1.424266597921e-03       5.551019596912e+03 
       1.537887696968e-03       5.950788340550e+03 
       1.660572937635e-03       6.376123051784e+03 
       1.793045413292e-03       6.828073901445e+03 
       1.936085902198e-03       7.307625381066e+03 
       2.090537469327e-03       7.815671881434e+03 
       2.257310435294e-03       8.352990375805e+03 
       2.437387741694e-03       8.920211064321e+03 
       2.631830744443e-03       9.517783069112e+03 
       2.841785469300e-03       1.014593704435e+04 
       3.068489366414e-03       1.080464502789e+04 
       3.313278603720e-03       1.149357460340e+04 
       3.577595942169e-03       1.221203621722e+04 
       3.862999239199e-03       1.295892539446e+04 
       4.171170630578e-03       1.373266010342e+04 
       4.503926444729e-03       1.453111835625e+04 
       4.863227907969e-03       1.535154985293e+04 
       5.251192703764e-03       1.619063614517e+04 
       5.670107454120e-03       1.704431257740e+04 
       6.122441196689e-03       1.790755939667e+04 
       6.610859936996e-03       1.877460399715e+04 
       7.138242361596e-03       1.963872430435e+04 
       7.707696804727e-03       2.049215714415e+04 
       8.322579568496e-03       2.132607232223e+04 
       8.986514704559e-03       2.213055032366e+04 
       9.703415373875e-03       2.289445472439e+04 
       1.047750691046e-02       2.360548650727e+04 
       1.131335172503e-02       2.425023419859e+04 
       1.221587619537e-02       2.481423923229e+04 
       1.319039970183e-02       2.528218778251e+04 
       1.424266597920e-02       2.563814416176e+04 
       1.537887696964e-02       2.586607728303e+04 
       1.660572937560e-02       2.595028857550e+04 
       1.793045412207e-02       2.587633721067e+04 
       1.936085889642e-02       2.563220535097e+04 
       2.090537351881e-02       2.520934873967e+04 
       2.257309534705e-02       2.460448206784e+04 
       2.437382002240e-02       2.382087375339e+04 
       2.631799943729e-02       2.287044307162e+04 
       2.841644544598e-02       2.177455374079e+04 
       3.067933354524e-02       2.056554153798e+04 
       3.311368469821e-02       1.928727507537e+04 
       3.571840442514e-02       1.799400802915e+04 
       3.847720347390e-02       1.674687012586e+04 
       4.135335537314e-02       1.560461820413e+04 
       4.429361666563e-02       1.461041458699e+04 
       4.724366437916e-02       1.378054989816e+04 
       5.016480834039e-02       1.310507644377e+04 
       5.303989618930e-02       1.255715966133e+04 
       5.586870668205e-02       1.210428944025e+04 
       5.866042679206e-02       1.171467380505e+04 
       6.142798931504e-02       1.136049243869e+04 
       6.418496438662e-02       1.101855353647e+04 
       6.694418832236e-02       1.067069556130e+04 
       6.971731104453e-02       1.030356153169e+04 
       7.251476154108e-02       9.909021783982e+03 
       7.534587669814e-02       9.483758471302e+03 
       7.821907664495e-02       9.029517171620e+03 
       8.114203771084e-02       8.552309962320e+03 
       8.412184533139e-02       8.061914629441e+03 
       8.716512277352e-02       7.570775809715e+03 
       9.027813693913e-02       7.092476972182e+03 
       9.346688429613e-02       6.640515596360e+03 
       9.673716026122e-02       6.226697807854e+03 
       1.000946150608e-01       5.859915415117e+03 
       1.035447986307e-01       5.545238240930e+03 
       1.070931966524e-01       5.283150926749e+03 
       1.107452594180e-01       5.069412361135e+03 
       1.145064248899e-01       4.895246391501e+03 
       1.183821370656e-01       4.747836942943e+03 
       1.223778605591e-01       4.611734956647e+03 
       1.264990921707e-01       4.470637742112e+03 
       1.307513701078e-01       4.310270572529e+03 
       1.351402814485e-01       4.121382086898e+03 
       1.396714683894e-01       3.902058522873e+03 
       1.443506337875e-01       3.658650840339e+03 
       1.491835464900e-01       3.404462564649e+03 
       1.541760469368e-01       3.156676556631e+03 
       1.593340535209e-01       2.931970306905e+03 
       1.646635701934e-01       2.742380514844e+03 
       1.701706958081e-01       2.592260433969e+03 
       1.758616357070e-01       2.477242807303e+03 
       1.817427160581e-01       2.385186829986e+03 
       1.878204014651e-01       2.300359605125e+03 
       1.941013163855e-01       2.205760069388e+03 
       2.005922709060e-01       2.090813290220e+03 
       2.073002914514e-01       1.956470080425e+03 
       2.142326570343e-01       1.814193656625e+03 
       2.213969417044e-01       1.679283826960e+03 
       2.288010639201e-01       1.563844354785e+03 
       2.364533436625e-01       1.472685890851e+03 
       2.443625682390e-01       1.401510053319e+03 
       2.525380678946e-01       1.338416054308e+03 
       2.609898025770e-01       1.270902455902e+03 
       2.697284614969e-01       1.193384448098e+03 
       2.787655775073e-01       1.109339750466e+03 
       2.881136588192e-01       1.028769011847e+03 
       2.977863412019e-01       9.604795443227e+02 
       3.077985646248e-01       9.050193054118e+02 
       3.181667793367e-01       8.561449201009e+02 
       3.289091877084e-01       8.061865466560e+02 
       3.400460298905e-01       7.523913417773e+02 
       3.515999235695e-01       6.989235636682e+02 
       3.635962710278e-01       6.510625708539e+02 
       3.760637505499e-01       6.101203585522e+02 
       3.890349143014e-01       5.721309897388e+02 
       4.025469215929e-01       5.337823420750e+02 
       4.166424455447e-01       4.956326773045e+02 
       4.313708034899e-01       4.604676580296e+02 
       4.467893781976e-01       4.287768284537e+02 
       4.629654198623e-01       3.987709153018e+02 
       4.799783500912e-01       3.692422003247e+02 
       4.979227318246e-01       3.412389012566e+02 
       5.169121269689e-01       3.154831332469e+02 
       5.370841403262e-01       2.908351107966e+02 
       5.586070463286e-01       2.671065086317e+02 
       5.816885093582e-01       2.448089704135e+02 
       6.065870143577e-01       2.235670293976e+02 
       6.336266466978e-01       2.032103003544e+02 
       6.632156057925e-01       1.838776603482e+02 
       6.958678637575e-01       1.653540150965e+02 
       7.322247983784e-01       1.476951979952e+02 
       7.730680193171e-01       1.308331077424e+02 
       8.193049551574e-01       1.148301986968e+02 
       8.718988013754e-01       9.976180645816e+01 
       9.317218028590e-01       8.577730735240e+01 
       9.993660906273e-01       7.305386434382e+01 
       1.075037109879e+00       6.173485314312e+01 
       1.158653485387e+00       5.187804030584e+01 
       1.250099156961e+00       4.343882702079e+01 
       1.349432400897e+00       3.628785361351e+01 
       1.456947456991e+00       3.026632332977e+01 
       1.573135110893e+00       2.521262886402e+01 
       1.698621895119e+00       2.098001651683e+01 
       1.834127512423e+00       1.744011696026e+01 
       1.980444933977e+00       1.448326973203e+01 
       2.138435191130e+00       1.201628800166e+01 
       2.309029198543e+00       9.960294621843e+00 
       2.493232376993e+00       8.248688619695e+00 
       2.692130394536e+00       6.825248093086e+00 
       2.906895533764e+00       5.642630862423e+00 
       3.138793596840e+00       4.660977189287e+00 
       3.389191365541e+00       3.846902802510e+00 
       3.659564656886e+00       3.172428103530e+00 
       3.951507021438e+00       2.614023896410e+00 
       4.266739135513e+00       2.152148525571e+00 
       4.607118942658e+00       1.770377490795e+00 
       4.974652604172e+00       1.455059255191e+00 
       5.371506323193e+00       1.194817511226e+00 
       5.800019112071e+00       9.801407284364e-01 
       6.262716578240e+00       8.031944077408e-01 
       6.762325809881e+00       6.574162463819e-01 
       7.301791449077e+00       5.373848872440e-01 
       7.884293047211e+00       4.385977979595e-01 
       8.513263804891e+00       3.573345632413e-01 
       9.192410806865e+00       2.905106563166e-01 
       9.925736871166e+00       2.355876337226e-01 
       1.071756414128e+01       1.904583034333e-01 
       1.157255956041e+01       1.533939522793e-01 
       1.249576237789e+01       1.229697407931e-01 
       1.349261385000e+01       9.801302754438e-02 
       1.456898931011e+01       7.755974698004e-02 
       1.573123279727e+01       6.082555844550e-02 
       1.698619444729e+01       4.716258258031e-02 
       1.834127086665e+01       3.604833581415e-02 
       1.980444872733e+01       2.705338622843e-02 
       2.138435183937e+01       1.983033388619e-02 
       2.309029197863e+01       1.409610620902e-02 
       2.493232376942e+01       9.618695877356e-03 
       2.692130394533e+01       6.206230524172e-03 
       2.906895533764e+01       3.696550418424e-03 
       3.138793596840e+01       1.947735857338e-03 
       3.389191365541e+01       8.310361470568e-04 
       3.659564656886e+01       2.241622314928e-04 
       3.951507021438e+01       7.243056324935e-06 
       4.266739135513e+01       6.175781493605e-05 
       4.607118942658e+01       2.724638134766e-04 
       4.974652604172e+01       5.329320903598e-04 
       5.371506323193e+01       7.539634833710e-04 
       5.800019112071e+01       8.731889516724e-04 
       6.262716578240e+01       8.631160859472e-04 
       6.762325809881e+01       7.338675232128e-04 
