# Matter power spectrum P(k) at redshift z=99
# for k=1.04775e-05 to 66.1767 h/Mpc,
# number of wavenumbers equal to 130
#    1:k (h/Mpc)              2:P (Mpc/h)^3        
       1.047750691046e-05       7.261927680861e-03 
       1.319039970183e-05       9.069258201848e-03 
       1.660572937635e-05       1.132639106725e-02 
       2.090537469327e-05       1.414527123399e-02 
       2.631830744443e-05       1.766569584058e-02 
       3.313278603720e-05       2.206225515942e-02 
       4.171170630578e-05       2.755297766277e-02 
       5.251192703764e-05       3.441013522947e-02 
       6.610859936996e-05       4.297372172777e-02 
       8.322579568497e-05       5.366826852944e-02 
       1.047750691046e-04       6.702379872774e-02 
       1.319039970183e-04       8.370193441286e-02 
       1.660572937635e-04       1.045283355384e-01 
       2.090537469327e-04       1.305329134104e-01 
       2.631830744443e-04       1.629994506605e-01 
       3.313278603720e-04       2.035264004601e-01 
       4.171170630578e-04       2.541004744243e-01 
       5.251192703764e-04       3.171839528557e-01 
       6.610859936996e-04       3.958147256513e-01 
       8.322579568497e-04       4.937136006271e-01 
       1.047750691046e-03       6.153841636041e-01 
       1.319039970183e-03       7.661720592320e-01 
       1.660572937635e-03       9.522588016470e-01 
       2.090537469327e-03       1.180312991698e+00 
       2.631830744443e-03       1.456802684686e+00 
       3.313278603720e-03       1.786503854035e+00 
       4.171170630578e-03       2.169896193351e+00 
       5.251192703764e-03       2.599430630723e+00 
       6.610859936996e-03       3.055668538665e+00 
       8.322579568497e-03       3.505725598578e+00 
       1.047750691046e-02       3.905490270500e+00 
       1.319039970183e-02       4.200915410189e+00 
       1.660572937633e-02       4.325065791402e+00 
       2.090537453514e-02       4.210206279601e+00 
       2.631818545635e-02       3.825147917513e+00 
       3.311571692125e-02       3.229069907926e+00 
       4.113809243311e-02       2.627730026525e+00 
       4.792590854610e-02       2.280795615756e+00 
       5.284436902701e-02       2.110090279072e+00 
       5.689644391095e-02       2.003537547815e+00 
       6.051252627066e-02       1.923051223626e+00 
       6.388413457411e-02       1.852732622469e+00 
       6.711249296401e-02       1.784564517035e+00 
       7.025823437965e-02       1.714279871050e+00 
       7.336115587705e-02       1.639815248096e+00 
       7.644928796912e-02       1.560668735549e+00 
       7.954353299775e-02       1.477454222350e+00 
       8.266024078725e-02       1.391698217334e+00 
       8.581273398637e-02       1.305461818171e+00 
       8.901225918437e-02       1.221123831941e+00 
       9.226860540985e-02       1.141081242790e+00 
       9.559052048996e-02       1.067450830572e+00 
       9.898599946599e-02       1.001889940892e+00 
       1.024624891378e-01       9.453817184216e-01 
       1.060270359164e-01       8.981502992375e-01 
       1.096863943056e-01       8.596132235085e-01 
       1.134471073830e-01       8.284072936261e-01 
       1.173155669539e-01       8.024673669438e-01 
       1.212980586983e-01       7.792275148042e-01 
       1.254007961065e-01       7.559175081142e-01 
       1.296299459934e-01       7.299844616176e-01 
       1.339916477160e-01       6.995928821797e-01 
       1.384920277736e-01       6.640779703041e-01 
       1.431372111762e-01       6.241464821481e-01 
       1.479333307714e-01       5.817636327738e-01 
       1.528865355934e-01       5.396938142170e-01 
       1.580029992204e-01       5.008152203230e-01 
       1.632889290723e-01       4.673982430063e-01 
       1.687505775527e-01       4.405349814722e-01 
       1.743942559171e-01       4.198649975626e-01 
       1.802263517371e-01       4.036608645570e-01 
       1.862533508214e-01       3.893596240847e-01 
       1.924818644494e-01       3.741347536665e-01 
       1.989186627765e-01       3.558023737136e-01 
       2.055707152847e-01       3.339982391562e-01 
       2.124452391818e-01       3.102657397045e-01 
       2.195497567139e-01       2.871237188795e-01 
       2.268921624510e-01       2.668088394325e-01 
       2.344808017550e-01       2.504836715194e-01 
       2.423245618548e-01       2.378332065872e-01 
       2.504329772620e-01       2.271121858034e-01 
       2.588163516754e-01       2.161168928148e-01 
       2.674858990930e-01       2.035454255313e-01 
       2.764539076010e-01       1.895976404969e-01 
       2.857339303080e-01       1.757570433551e-01 
       2.953410092148e-01       1.636996310680e-01 
       3.052919395542e-01       1.539068822297e-01 
       3.156055844677e-01       1.455310801601e-01 
       3.263032530092e-01       1.372498352354e-01 
       3.374091587054e-01       1.283019150967e-01 
       3.489509817175e-01       1.191715568778e-01 
       3.609605657343e-01       1.108072856664e-01 
       3.734747921333e-01       1.036452040261e-01 
       3.865366902904e-01       9.714118030039e-02 
       4.001968667448e-01       9.061580308692e-02 
       4.145153713076e-01       8.403722235454e-02 
       4.295641718077e-01       7.789141450908e-02 
       4.454304922144e-01       7.234192445319e-02 
       4.622214006969e-01       6.709385340392e-02 
       4.800702491654e-01       6.189209300227e-02 
       4.991459272112e-01       5.692643576012e-02 
       5.196665217302e-01       5.231622875430e-02 
       5.419201087032e-01       4.783272351933e-02 
       5.662975451962e-01       4.348716125348e-02 
       5.933463737275e-01       3.933116378349e-02 
       6.238638458458e-01       3.525352788648e-02 
       6.590669257916e-01       3.126305799163e-02 
       7.009246080454e-01       2.728737364434e-02 
       7.528593308799e-01       2.327847332117e-02 
       8.213469537518e-01       1.914830139994e-02 
       9.196980813302e-01       1.481707955606e-02 
       1.075112183810e+00       1.035094576712e-02 
       1.322697471132e+00       6.379488199563e-03 
       1.662328205042e+00       3.705684631300e-03 
       2.092692408506e+00       2.124542013080e-03 
       2.634543445090e+00       1.207963498721e-03 
       3.316693691389e+00       6.817159516554e-04 
       4.175469971226e+00       3.821235022609e-04 
       5.256605252960e+00       2.128743469150e-04 
       6.617673932723e+00       1.179232789173e-04 
       8.331157880872e+00       6.498771346096e-05 
       1.048830636590e+01       3.564561578689e-05 
       1.320399541071e+01       1.946652233302e-05 
       1.662284535976e+01       1.058812079921e-05 
       2.092692243973e+01       5.737526835476e-06 
       2.634543445002e+01       3.098278925626e-06 
       3.316693691389e+01       1.667603120523e-06 
       4.175469971226e+01       8.948008712049e-07 
       5.256605252960e+01       4.787161423259e-07 
       6.617673932723e+01       2.553738360613e-07 
