# Matter power spectrum P(k) at redshift z=0
# for k=1.04775e-05 to 67.6233 h/Mpc,
# number of wavenumbers equal to 246
#    1:k (h/Mpc)              2:P (Mpc/h)^3        
       1.047750691046e-05       5.020964811308e+01 
       1.131335172503e-05       5.407050701928e+01 
       1.221587619537e-05       5.822819068661e+01 
       1.319039970183e-05       6.270562594782e+01 
       1.424266597921e-05       6.752732240880e+01 
       1.537887696968e-05       7.271977206173e+01 
       1.660572937635e-05       7.831147247912e+01 
       1.793045413292e-05       8.433311821988e+01 
       1.936085902198e-05       9.081778249833e+01 
       2.090537469327e-05       9.780108069296e+01 
       2.257310435294e-05       1.053213197893e+02 
       2.437387741694e-05       1.134197377890e+02 
       2.631830744443e-05       1.221408203809e+02 
       2.841785469300e-05       1.315324642467e+02 
       3.068489366414e-05       1.416462094881e+02 
       3.313278603720e-05       1.525374501932e+02 
       3.577595942169e-05       1.642660688414e+02 
       3.862999239199e-05       1.768963506307e+02 
       4.171170630578e-05       1.904975994010e+02 
       4.503926444729e-05       2.051444491973e+02 
       4.863227907969e-05       2.209171465549e+02 
       5.251192703764e-05       2.379022224249e+02 
       5.670107454120e-05       2.561927928024e+02 
       6.122441196689e-05       2.758890444041e+02 
       6.610859936996e-05       2.970989227882e+02 
       7.138242361596e-05       3.199385560802e+02 
       7.707696804727e-05       3.445329783680e+02 
       8.322579568497e-05       3.710167318946e+02 
       8.986514704559e-05       3.995346444203e+02 
       9.703415373875e-05       4.302425407383e+02 
       1.047750691046e-04       4.633080766742e+02 
       1.131335172503e-04       4.989116271564e+02 
       1.221587619537e-04       5.372471950929e+02 
       1.319039970183e-04       5.785234129335e+02 
       1.424266597921e-04       6.229645936045e+02 
       1.537887696968e-04       6.708118490405e+02 
       1.660572937635e-04       7.223242666092e+02 
       1.793045413292e-04       7.777801559482e+02 
       1.936085902198e-04       8.374783614140e+02 
       2.090537469327e-04       9.017396271824e+02 
       2.257310435294e-04       9.709080268041e+02 
       2.437387741694e-04       1.045352449493e+03 
       2.631830744443e-04       1.125468123750e+03 
       2.841785469300e-04       1.211678180495e+03 
       3.068489366414e-04       1.304435250150e+03 
       3.313278603720e-04       1.404223053681e+03 
       3.577595942169e-04       1.511558014616e+03 
       3.862999239199e-04       1.626990837819e+03 
       4.171170630578e-04       1.751108028790e+03 
       4.503926444729e-04       1.884533382872e+03 
       4.863227907969e-04       2.027929378112e+03 
       5.251192703764e-04       2.181998448133e+03 
       5.670107454121e-04       2.347484102755e+03 
       6.122441196689e-04       2.525171871365e+03 
       6.610859936996e-04       2.715889983593e+03 
       7.138242361596e-04       2.920509688385e+03 
       7.707696804727e-04       3.139945100279e+03 
       8.322579568497e-04       3.375152337586e+03 
       8.986514704559e-04       3.627127831141e+03 
       9.703415373875e-04       3.896905453136e+03 
       1.047750691046e-03       4.185552174299e+03 
       1.131335172503e-03       4.494162430373e+03 
       1.221587619537e-03       4.823850706491e+03 
       1.319039970183e-03       5.175742743928e+03 
       1.424266597921e-03       5.551019596900e+03 
       1.537887696968e-03       5.950788340547e+03 
       1.660572937635e-03       6.376123051772e+03 
       1.793045413292e-03       6.828073901462e+03 
       1.936085902198e-03       7.307625381066e+03 
       2.090537469327e-03       7.815671868625e+03 
       2.257310435294e-03       8.352990375820e+03 
       2.437387741694e-03       8.920211064358e+03 
       2.631830744443e-03       9.517783069111e+03 
       2.841785469300e-03       1.014593704435e+04 
       3.068489366414e-03       1.080464502800e+04 
       3.313278603720e-03       1.149357460344e+04 
       3.577595942169e-03       1.221203621721e+04 
       3.862999239199e-03       1.295892539445e+04 
       4.171170630578e-03       1.373266009528e+04 
       4.503926444729e-03       1.453111835624e+04 
       4.863227907969e-03       1.535154985269e+04 
       5.251192703764e-03       1.619063614374e+04 
       5.670107454120e-03       1.704431257739e+04 
       6.122441196689e-03       1.790755939743e+04 
       6.610859936996e-03       1.877460425022e+04 
       7.138242361596e-03       1.963872430709e+04 
       7.707696804727e-03       2.049215714495e+04 
       8.322579568496e-03       2.132607233313e+04 
       8.986514704559e-03       2.213055171599e+04 
       9.703415373875e-03       2.289445473538e+04 
       1.047750691046e-02       2.360548733928e+04 
       1.131335172503e-02       2.425022855198e+04 
       1.221587619537e-02       2.481423924813e+04 
       1.319039970183e-02       2.528218567315e+04 
       1.424266597920e-02       2.563814234735e+04 
       1.537887696964e-02       2.586605923946e+04 
       1.660572937560e-02       2.595026853899e+04 
       1.793045412207e-02       2.587632702181e+04 
       1.936085889642e-02       2.563218640779e+04 
       2.090537351881e-02       2.520935295190e+04 
       2.257309534705e-02       2.460445750610e+04 
       2.437382002240e-02       2.382087778398e+04 
       2.631799943729e-02       2.287047108442e+04 
       2.841644544598e-02       2.177454244906e+04 
       3.067933354524e-02       2.056555096624e+04 
       3.311368469821e-02       1.928731325987e+04 
       3.571840442514e-02       1.799404404235e+04 
       3.847720347390e-02       1.674686100770e+04 
       4.135335537314e-02       1.560460792844e+04 
       4.429361666563e-02       1.461039459073e+04 
       4.724366437916e-02       1.378054373664e+04 
       5.016480834039e-02       1.310505082504e+04 
       5.303989618930e-02       1.255715363928e+04 
       5.586870668205e-02       1.210428990551e+04 
       5.866042679206e-02       1.171465775325e+04 
       6.142798931504e-02       1.136048067052e+04 
       6.418496438662e-02       1.101853412401e+04 
       6.694418832236e-02       1.067066695014e+04 
       6.971731104453e-02       1.030356951533e+04 
       7.251476154108e-02       9.908984614104e+03 
       7.534587669814e-02       9.483787475280e+03 
       7.821907664495e-02       9.029483679510e+03 
       8.114203771084e-02       8.552337704993e+03 
       8.412184533139e-02       8.061929117639e+03 
       8.716512277352e-02       7.570764598072e+03 
       9.027813693913e-02       7.092502091386e+03 
       9.346688429613e-02       6.640556836915e+03 
       9.673716026122e-02       6.226731414463e+03 
       1.000946150608e-01       5.859942229245e+03 
       1.035447986307e-01       5.545211316003e+03 
       1.070931966524e-01       5.283155664891e+03 
       1.107452594180e-01       5.069444708881e+03 
       1.145064248899e-01       4.895275126835e+03 
       1.183821370656e-01       4.747846947945e+03 
       1.223778605591e-01       4.611762455200e+03 
       1.264990921707e-01       4.470626617177e+03 
       1.307513701078e-01       4.310251584433e+03 
       1.351402814485e-01       4.121369815423e+03 
       1.396714683894e-01       3.902054767641e+03 
       1.443506337875e-01       3.658665193691e+03 
       1.491835464900e-01       3.404492364709e+03 
       1.541760469368e-01       3.156681776015e+03 
       1.593340535209e-01       2.931958350317e+03 
       1.646635701934e-01       2.742371810011e+03 
       1.701706958081e-01       2.592244182175e+03 
       1.758616357070e-01       2.477233957288e+03 
       1.817427160581e-01       2.385198781271e+03 
       1.878204014651e-01       2.300342548246e+03 
       1.941013163855e-01       2.205746815870e+03 
       2.005922709060e-01       2.090807588219e+03 
       2.073002914514e-01       1.956468447473e+03 
       2.142326570343e-01       1.814184816460e+03 
       2.213969417044e-01       1.679283622356e+03 
       2.288010639201e-01       1.563846472496e+03 
       2.364533436625e-01       1.472677026294e+03 
       2.443625682390e-01       1.401521457919e+03 
       2.525380678946e-01       1.338411077924e+03 
       2.609898025770e-01       1.270893303691e+03 
       2.697284614969e-01       1.193380218538e+03 
       2.787655775073e-01       1.109338725229e+03 
       2.881136588192e-01       1.028764679793e+03 
       2.977863412019e-01       9.604773930927e+02 
       3.077985646248e-01       9.050170356582e+02 
       3.181667793367e-01       8.561462068439e+02 
       3.289091877084e-01       8.061828958380e+02 
       3.400460298905e-01       7.523918635562e+02 
       3.515999235695e-01       6.989207162831e+02 
       3.635962710278e-01       6.510584634057e+02 
       3.760637505499e-01       6.101201728034e+02 
       3.890349143014e-01       5.721262817677e+02 
       4.025469215929e-01       5.337760128603e+02 
       4.166424455447e-01       4.956290170238e+02 
       4.313708034899e-01       4.604655242770e+02 
       4.467893781976e-01       4.287716254765e+02 
       4.629654198623e-01       3.987709694153e+02 
       4.799783500912e-01       3.692397822325e+02 
       4.979227318246e-01       3.412360188501e+02 
       5.169121269689e-01       3.154821176605e+02 
       5.370841403262e-01       2.908332190485e+02 
       5.586070463286e-01       2.671027692457e+02 
       5.816885093582e-01       2.448091465169e+02 
       6.065870143577e-01       2.235647916766e+02 
       6.336266466978e-01       2.032076652175e+02 
       6.632156057925e-01       1.838775250983e+02 
       6.958678637575e-01       1.653532823765e+02 
       7.322247983784e-01       1.476952240036e+02 
       7.730680193171e-01       1.308332135833e+02 
       8.193049551574e-01       1.148310821630e+02 
       8.718988013754e-01       9.976285376824e+01 
       9.317218028590e-01       8.577730096547e+01 
       9.993660906273e-01       7.305437199777e+01 
       1.075037109879e+00       6.173575543619e+01 
       1.158653485387e+00       5.187874068630e+01 
       1.250099156961e+00       4.343994271112e+01 
       1.349432400897e+00       3.628877679744e+01 
       1.456947456991e+00       3.026788365370e+01 
       1.573135110893e+00       2.521440402435e+01 
       1.698621895119e+00       2.098188594592e+01 
       1.834127512423e+00       1.744229542668e+01 
       1.980444933977e+00       1.448557386167e+01 
       2.138435191130e+00       1.201886082798e+01 
       2.309029198543e+00       9.963125972270e+00 
       2.493232376993e+00       8.251785284974e+00 
       2.692130394536e+00       6.828534935220e+00 
       2.906895533764e+00       5.646222114171e+00 
       3.138793596840e+00       4.664834624797e+00 
       3.389191365541e+00       3.851116061814e+00 
       3.659564656886e+00       3.176915216085e+00 
       3.951507021438e+00       2.618831115578e+00 
       4.266739135513e+00       2.157315048086e+00 
       4.607118942658e+00       1.775905170910e+00 
       4.974652604172e+00       1.460968558592e+00 
       5.371506323193e+00       1.201105496580e+00 
       5.800019112071e+00       9.868617667634e-01 
       6.262716578240e+00       8.103325552452e-01 
       6.762325809881e+00       6.649870702995e-01 
       7.301791449077e+00       5.454077211285e-01 
       7.884293047211e+00       4.470758843775e-01 
       8.513263804891e+00       3.662807707942e-01 
       9.192410806865e+00       2.999215521151e-01 
       9.925736871166e+00       2.454628090049e-01 
       1.071756414128e+01       2.007891113343e-01 
       1.157255956041e+01       1.641688421341e-01 
       1.249576237789e+01       1.341600011206e-01 
       1.349261385000e+01       1.095864995017e-01 
       1.456898931011e+01       8.947224665476e-02 
       1.573123279727e+01       7.301754749700e-02 
       1.698619444729e+01       5.956267995995e-02 
       1.834127086665e+01       4.856591957247e-02 
       1.980444872733e+01       3.958176140655e-02 
       2.138435183937e+01       3.224603835395e-02 
       2.309029197863e+01       2.625882377548e-02 
       2.493232376942e+01       2.137394910989e-02 
       2.692130394533e+01       1.739034033280e-02 
       2.906895533764e+01       1.414319154371e-02 
       3.138793596840e+01       1.149739042670e-02 
       3.389191365541e+01       9.342251999535e-03 
       3.659564656886e+01       7.587477902165e-03 
       3.951507021438e+01       6.159327372786e-03 
       4.266739135513e+01       4.997499025283e-03 
       4.607118942658e+01       4.052503421380e-03 
       4.974652604172e+01       3.284324370363e-03 
       5.371506323193e+01       2.659961685020e-03 
       5.800019112071e+01       2.152737202741e-03 
       6.262716578240e+01       1.740804076290e-03 
       6.762325809881e+01       1.406368505217e-03 
