# Matter power spectrum P(k) at redshift z=99
# for k=1.04775e-05 to 66.1767 h/Mpc,
# number of wavenumbers equal to 130
#    1:k (h/Mpc)              2:P (Mpc/h)^3        
       1.047750691046e-05       7.261927680883e-03 
       1.319039970183e-05       9.069258201875e-03 
       1.660572937635e-05       1.132639106729e-02 
       2.090537469327e-05       1.414527123403e-02 
       2.631830744443e-05       1.766569584063e-02 
       3.313278603720e-05       2.206225515949e-02 
       4.171170630578e-05       2.755297766285e-02 
       5.251192703764e-05       3.441013522957e-02 
       6.610859936996e-05       4.297372172790e-02 
       8.322579568497e-05       5.366826852960e-02 
       1.047750691046e-04       6.702379872794e-02 
       1.319039970183e-04       8.370193441310e-02 
       1.660572937635e-04       1.045283355387e-01 
       2.090537469327e-04       1.305329134108e-01 
       2.631830744443e-04       1.629994506610e-01 
       3.313278603720e-04       2.035264004607e-01 
       4.171170630578e-04       2.541004744250e-01 
       5.251192703764e-04       3.171839528565e-01 
       6.610859936996e-04       3.958147256523e-01 
       8.322579568497e-04       4.937136006283e-01 
       1.047750691046e-03       6.153841636053e-01 
       1.319039970183e-03       7.661720592915e-01 
       1.660572937635e-03       9.522588016485e-01 
       2.090537469327e-03       1.180312991695e+00 
       2.631830744443e-03       1.456802684674e+00 
       3.313278603720e-03       1.786503854013e+00 
       4.171170630578e-03       2.169896195715e+00 
       5.251192703764e-03       2.599430630599e+00 
       6.610859936996e-03       3.055668709398e+00 
       8.322579568497e-03       3.505725598125e+00 
       1.047750691046e-02       3.905491579024e+00 
       1.319039970183e-02       4.200915386004e+00 
       1.660572937633e-02       4.325062406344e+00 
       2.090537453514e-02       4.210203244668e+00 
       2.631818545635e-02       3.825151166370e+00 
       3.311571692125e-02       3.229068767470e+00 
       4.113809243311e-02       2.627724955251e+00 
       4.792590854610e-02       2.280791270429e+00 
       5.284436902701e-02       2.110081976607e+00 
       5.689644391095e-02       2.003537873209e+00 
       6.051252627066e-02       1.923062171183e+00 
       6.388413457411e-02       1.852729990004e+00 
       6.711249296401e-02       1.784564045656e+00 
       7.025823437965e-02       1.714276125657e+00 
       7.336115587705e-02       1.639816020014e+00 
       7.644928796912e-02       1.560660747280e+00 
       7.954353299775e-02       1.477456039566e+00 
       8.266024078725e-02       1.391695578458e+00 
       8.581273398637e-02       1.305461556796e+00 
       8.901225918437e-02       1.221127071505e+00 
       9.226860540985e-02       1.141079836867e+00 
       9.559052048996e-02       1.067453046751e+00 
       9.898599946599e-02       1.001888297454e+00 
       1.024624891378e-01       9.453821763145e-01 
       1.060270359164e-01       8.981487036249e-01 
       1.096863943056e-01       8.596141472292e-01 
       1.134471073830e-01       8.284046466070e-01 
       1.173155669539e-01       8.024658560160e-01 
       1.212980586983e-01       7.792282406557e-01 
       1.254007961065e-01       7.559154871865e-01 
       1.296299459934e-01       7.299813101293e-01 
       1.339916477160e-01       6.995903443437e-01 
       1.384920277736e-01       6.640758885852e-01 
       1.431372111762e-01       6.241445654224e-01 
       1.479333307714e-01       5.817612142299e-01 
       1.528865355934e-01       5.396874095214e-01 
       1.580029992204e-01       5.008117221267e-01 
       1.632889290723e-01       4.673956937140e-01 
       1.687505775527e-01       4.405324168203e-01 
       1.743942559171e-01       4.198623815392e-01 
       1.802263517371e-01       4.036570276767e-01 
       1.862533508214e-01       3.893559881277e-01 
       1.924818644494e-01       3.741309977104e-01 
       1.989186627765e-01       3.557979341494e-01 
       2.055707152847e-01       3.339960440008e-01 
       2.124452391818e-01       3.102612720311e-01 
       2.195497567139e-01       2.871180349806e-01 
       2.268921624510e-01       2.668032640339e-01 
       2.344808017550e-01       2.504780161606e-01 
       2.423245618548e-01       2.378282257180e-01 
       2.504329772620e-01       2.271058006585e-01 
       2.588163516754e-01       2.161113002080e-01 
       2.674858990930e-01       2.035388352504e-01 
       2.764539076010e-01       1.895902317129e-01 
       2.857339303080e-01       1.757496268895e-01 
       2.953410092148e-01       1.636916786890e-01 
       3.052919395542e-01       1.538977656187e-01 
       3.156055844677e-01       1.455222540274e-01 
       3.263032530092e-01       1.372407659196e-01 
       3.374091587054e-01       1.282915254292e-01 
       3.489509817175e-01       1.191610755928e-01 
       3.609605657343e-01       1.107963047313e-01 
       3.734747921333e-01       1.036333192532e-01 
       3.865366902904e-01       9.712926930202e-02 
       4.001968667448e-01       9.060259818659e-02 
       4.145153713076e-01       8.402323945291e-02 
       4.295641718077e-01       7.787666846106e-02 
       4.454304922144e-01       7.232645364514e-02 
       4.622214006969e-01       6.707754945379e-02 
       4.800702491654e-01       6.187454249000e-02 
       4.991459272112e-01       5.690818002033e-02 
       5.196665217302e-01       5.229682023281e-02 
       5.419201087032e-01       4.781215991611e-02 
       5.662975451962e-01       4.346498617137e-02 
       5.933463737275e-01       3.930764983201e-02 
       6.238638458458e-01       3.522828475421e-02 
       6.590669257916e-01       3.123574192637e-02 
       7.009246080454e-01       2.725775127024e-02 
       7.528593308799e-01       2.324584039406e-02 
       8.213469537518e-01       1.911153755977e-02 
       9.196980813302e-01       1.477436262179e-02 
       1.075112183810e+00       1.029868966485e-02 
       1.322697471132e+00       6.311927873471e-03 
       1.662328205042e+00       3.617601479815e-03 
       2.092692408506e+00       2.012169179733e-03 
       2.634543445090e+00       1.069415262414e-03 
       3.316693691389e+00       5.196215258141e-04 
       4.175469971226e+00       2.079446286795e-04 
       5.256605252960e+00       5.073521175262e-05 
       6.617673932723e+00       8.130904187514e-07 
       8.331157880872e+00       1.281292125293e-05 
       1.048830636590e+01       2.618159078682e-05 
       1.320399541071e+01       9.410267319615e-06 
       1.662284535976e+01       4.362855436406e-07 
       2.092692243973e+01       3.276166711102e-06 
       2.634543445002e+01       6.952045346904e-08 
       3.316693691389e+01       1.944462699956e-07 
       4.175469971226e+01       9.082161494256e-08 
       5.256605252960e+01       1.674154748108e-08 
       6.617673932723e+01       8.032447959061e-10 
