# Matter power spectrum P(k) at redshift z=0
# for k=1.04775e-05 to 66.1767 h/Mpc,
# number of wavenumbers equal to 130
#    1:k (h/Mpc)              2:P (Mpc/h)^3        
       1.047750691046e-05       5.020964811307e+01 
       1.319039970183e-05       6.270562594771e+01 
       1.660572937635e-05       7.831147247912e+01 
       2.090537469327e-05       9.780108069295e+01 
       2.631830744443e-05       1.221408203809e+02 
       3.313278603720e-05       1.525374501932e+02 
       4.171170630578e-05       1.904975994010e+02 
       5.251192703764e-05       2.379022224249e+02 
       6.610859936996e-05       2.970989227881e+02 
       8.322579568497e-05       3.710167318945e+02 
       1.047750691046e-04       4.633080766741e+02 
       1.319039970183e-04       5.785234129339e+02 
       1.660572937635e-04       7.223242666090e+02 
       2.090537469327e-04       9.017396271820e+02 
       2.631830744443e-04       1.125468123749e+03 
       3.313278603720e-04       1.404223053679e+03 
       4.171170630578e-04       1.751108028787e+03 
       5.251192703764e-04       2.181998448127e+03 
       6.610859936996e-04       2.715889983580e+03 
       8.322579568497e-04       3.375152337112e+03 
       1.047750691046e-03       4.185552174268e+03 
       1.319039970183e-03       5.175742740635e+03 
       1.660572937635e-03       6.376123051599e+03 
       2.090537469327e-03       7.815671869886e+03 
       2.631830744443e-03       9.517783068251e+03 
       3.313278603720e-03       1.149357460166e+04 
       4.171170630578e-03       1.373266010695e+04 
       5.251192703764e-03       1.619063520497e+04 
       6.610859936996e-03       1.877460425663e+04 
       8.322579568497e-03       2.132610929437e+04 
       1.047750691046e-02       2.360547686790e+04 
       1.319039970183e-02       2.528219200978e+04 
       1.660572937633e-02       2.595034894812e+04 
       2.090537453514e-02       2.520929614522e+04 
       2.631818545635e-02       2.287032109321e+04 
       3.311571692125e-02       1.928616876144e+04 
       4.113809243311e-02       1.568414457285e+04 
       4.792590854610e-02       1.361048770567e+04 
       5.284436902701e-02       1.259121050315e+04 
       5.689644391095e-02       1.195551658836e+04 
       6.051252627066e-02       1.147546241410e+04 
       6.388413457411e-02       1.105562770491e+04 
       6.711249296401e-02       1.064886919233e+04 
       7.025823437965e-02       1.022929023174e+04 
       7.336115587705e-02       9.784555113315e+03 
       7.644928796912e-02       9.311691094886e+03 
       7.954353299775e-02       8.814271706150e+03 
       8.266024078725e-02       8.302154371265e+03 
       8.581273398637e-02       7.786930668182e+03 
       8.901225918437e-02       7.283225531764e+03 
       9.226860540985e-02       6.805203386337e+03 
       9.559052048996e-02       6.365629838519e+03 
       9.898599946599e-02       5.974377364901e+03 
       1.024624891378e-01       5.637328054487e+03 
       1.060270359164e-01       5.355783176708e+03 
       1.096863943056e-01       5.126228474718e+03 
       1.134471073830e-01       4.940465966748e+03 
       1.173155669539e-01       4.786146429876e+03 
       1.212980586983e-01       4.647911423556e+03 
       1.254007961065e-01       4.509030776806e+03 
       1.296299459934e-01       4.354524012128e+03 
       1.339916477160e-01       4.173215816198e+03 
       1.384920277736e-01       3.961156887884e+03 
       1.431372111762e-01       3.722575684107e+03 
       1.479333307714e-01       3.469523564691e+03 
       1.528865355934e-01       3.218285877669e+03 
       1.580029992204e-01       2.986204621844e+03 
       1.632889290723e-01       2.786908598030e+03 
       1.687505775527e-01       2.626772662309e+03 
       1.743942559171e-01       2.503719121939e+03 
       1.802263517371e-01       2.407270558247e+03 
       1.862533508214e-01       2.322221066355e+03 
       1.924818644494e-01       2.231515691685e+03 
       1.989186627765e-01       2.122151286004e+03 
       2.055707152847e-01       1.991989992546e+03 
       2.124452391818e-01       1.850262137267e+03 
       2.195497567139e-01       1.712106188675e+03 
       2.268921624510e-01       1.590919964934e+03 
       2.344808017550e-01       1.493596475479e+03 
       2.423245618548e-01       1.418239981023e+03 
       2.504329772620e-01       1.354379663432e+03 
       2.588163516754e-01       1.288859600133e+03 
       2.674858990930e-01       1.213851949271e+03 
       2.764539076010e-01       1.130607861483e+03 
       2.857339303080e-01       1.048009980120e+03 
       2.953410092148e-01       9.760821306703e+02 
       3.052919395542e-01       9.177106227100e+02 
       3.156055844677e-01       8.677882791955e+02 
       3.263032530092e-01       8.184230187139e+02 
       3.374091587054e-01       7.650364714655e+02 
       3.489509817175e-01       7.105513394402e+02 
       3.609605657343e-01       6.606586571324e+02 
       3.734747921333e-01       6.179537843832e+02 
       3.865366902904e-01       5.791736224304e+02 
       4.001968667448e-01       5.402477441892e+02 
       4.145153713076e-01       5.009992451153e+02 
       4.295641718077e-01       4.643401266760e+02 
       4.454304922144e-01       4.312391296813e+02 
       4.622214006969e-01       3.999360430279e+02 
       4.800702491654e-01       3.689023681785e+02 
       4.991459272112e-01       3.392783593936e+02 
       5.196665217302e-01       3.117758663856e+02 
       5.419201087032e-01       2.850243894198e+02 
       5.662975451962e-01       2.590943701397e+02 
       5.933463737275e-01       2.342971558647e+02 
       6.238638458458e-01       2.099614746917e+02 
       6.590669257916e-01       1.861448741600e+02 
       7.009246080454e-01       1.624112323279e+02 
       7.528593308799e-01       1.384722873046e+02 
       8.213469537518e-01       1.138003291084e+02 
       9.196980813302e-01       8.791101136051e+01 
       1.075112183810e+00       6.118048398058e+01 
       1.322697471132e+00       3.734424266604e+01 
       1.662328205042e+00       2.119810728328e+01 
       2.092692408506e+00       1.154136512050e+01 
       2.634543445090e+00       5.851653949442e+00 
       3.316693691389e+00       2.556990933447e+00 
       4.175469971226e+00       7.859216577551e-01 
       5.256605252960e+00       7.053161110636e-02 
       6.617673932723e+00       4.943115485790e-02 
       8.331157880872e+00       2.234187339514e-01 
       1.048830636590e+01       1.484523010668e-01 
       1.320399541071e+01       1.856684164630e-03 
       1.662284535976e+01       3.338071070305e-02 
       2.092692243973e+01       1.636073011836e-03 
       2.634543445002e+01       4.976022537068e-03 
       3.316693691389e+01       8.899344662013e-04 
       4.175469971226e+01       1.348727824518e-04 
       5.256605252960e+01       2.970103535443e-05 
       6.617673932723e+01       4.308915499314e-07 
