# Matter power spectrum P(k) at redshift z=99
# for k=1.04775e-05 to 66.1767 h/Mpc,
# number of wavenumbers equal to 130
#    1:k (h/Mpc)              2:P (Mpc/h)^3        
       1.047750691046e-05       7.261927680870e-03 
       1.319039970183e-05       9.069258201859e-03 
       1.660572937635e-05       1.132639106727e-02 
       2.090537469327e-05       1.414527123401e-02 
       2.631830744443e-05       1.766569584060e-02 
       3.313278603720e-05       2.206225515945e-02 
       4.171170630578e-05       2.755297766280e-02 
       5.251192703764e-05       3.441013522951e-02 
       6.610859936996e-05       4.297372172783e-02 
       8.322579568497e-05       5.366826852950e-02 
       1.047750691046e-04       6.702379872782e-02 
       1.319039970183e-04       8.370193441295e-02 
       1.660572937635e-04       1.045283355385e-01 
       2.090537469327e-04       1.305329134105e-01 
       2.631830744443e-04       1.629994506607e-01 
       3.313278603720e-04       2.035264004604e-01 
       4.171170630578e-04       2.541004744246e-01 
       5.251192703764e-04       3.171839528560e-01 
       6.610859936996e-04       3.958147256517e-01 
       8.322579568497e-04       4.937136006280e-01 
       1.047750691046e-03       6.153841636046e-01 
       1.319039970183e-03       7.661720592506e-01 
       1.660572937635e-03       9.522588016402e-01 
       2.090537469327e-03       1.180312991698e+00 
       2.631830744443e-03       1.456802684681e+00 
       3.313278603720e-03       1.786503854030e+00 
       4.171170630578e-03       2.169896192306e+00 
       5.251192703764e-03       2.599430630673e+00 
       6.610859936996e-03       3.055668693915e+00 
       8.322579568497e-03       3.505725598514e+00 
       1.047750691046e-02       3.905491041551e+00 
       1.319039970183e-02       4.200915310728e+00 
       1.660572937633e-02       4.325060795765e+00 
       2.090537453514e-02       4.210199146011e+00 
       2.631818545635e-02       3.825148079686e+00 
       3.311571692125e-02       3.229067718696e+00 
       4.113809243311e-02       2.627734873418e+00 
       4.792590854610e-02       2.280795522127e+00 
       5.284436902701e-02       2.110082603034e+00 
       5.689644391095e-02       2.003538198458e+00 
       6.051252627066e-02       1.923058604436e+00 
       6.388413457411e-02       1.852734131273e+00 
       6.711249296401e-02       1.784564599800e+00 
       7.025823437965e-02       1.714277975761e+00 
       7.336115587705e-02       1.639814296623e+00 
       7.644928796912e-02       1.560661319014e+00 
       7.954353299775e-02       1.477456566372e+00 
       8.266024078725e-02       1.391697753211e+00 
       8.581273398637e-02       1.305461425273e+00 
       8.901225918437e-02       1.221125444736e+00 
       9.226860540985e-02       1.141078460935e+00 
       9.559052048996e-02       1.067444913385e+00 
       9.898599946599e-02       1.001889709023e+00 
       1.024624891378e-01       9.453797749241e-01 
       1.060270359164e-01       8.981508190064e-01 
       1.096863943056e-01       8.596142046748e-01 
       1.134471073830e-01       8.284057715052e-01 
       1.173155669539e-01       8.024640697399e-01 
       1.212980586983e-01       7.792294087605e-01 
       1.254007961065e-01       7.559184338242e-01 
       1.296299459934e-01       7.299829111767e-01 
       1.339916477160e-01       6.995934267149e-01 
       1.384920277736e-01       6.640788393087e-01 
       1.431372111762e-01       6.241484373535e-01 
       1.479333307714e-01       5.817654484266e-01 
       1.528865355934e-01       5.396903394942e-01 
       1.580029992204e-01       5.008140952081e-01 
       1.632889290723e-01       4.673981055222e-01 
       1.687505775527e-01       4.405341148370e-01 
       1.743942559171e-01       4.198656856841e-01 
       1.802263517371e-01       4.036595309135e-01 
       1.862533508214e-01       3.893624655715e-01 
       1.924818644494e-01       3.741396846916e-01 
       1.989186627765e-01       3.558073009742e-01 
       2.055707152847e-01       3.340041162252e-01 
       2.124452391818e-01       3.102649228304e-01 
       2.195497567139e-01       2.871234952665e-01 
       2.268921624510e-01       2.668080940356e-01 
       2.344808017550e-01       2.504826958979e-01 
       2.423245618548e-01       2.378338962606e-01 
       2.504329772620e-01       2.271119963144e-01 
       2.588163516754e-01       2.161196663860e-01 
       2.674858990930e-01       2.035476837379e-01 
       2.764539076010e-01       1.895974651434e-01 
       2.857339303080e-01       1.757571016168e-01 
       2.953410092148e-01       1.636991057018e-01 
       3.052919395542e-01       1.539059697936e-01 
       3.156055844677e-01       1.455305600198e-01 
       3.263032530092e-01       1.372504310024e-01 
       3.374091587054e-01       1.283017172293e-01 
       3.489509817175e-01       1.191711704391e-01 
       3.609605657343e-01       1.108071304333e-01 
       3.734747921333e-01       1.036450909707e-01 
       3.865366902904e-01       9.714117200089e-02 
       4.001968667448e-01       9.061547451969e-02 
       4.145153713076e-01       8.403702071697e-02 
       4.295641718077e-01       7.789138786330e-02 
       4.454304922144e-01       7.234157999760e-02 
       4.622214006969e-01       6.709362106210e-02 
       4.800702491654e-01       6.189173224750e-02 
       4.991459272112e-01       5.692627598645e-02 
       5.196665217302e-01       5.231606132770e-02 
       5.419201087032e-01       4.783261457975e-02 
       5.662975451962e-01       4.348676357999e-02 
       5.933463737275e-01       3.933102971197e-02 
       6.238638458458e-01       3.525335634891e-02 
       6.590669257916e-01       3.126289535643e-02 
       7.009246080454e-01       2.728729657196e-02 
       7.528593308799e-01       2.327841954167e-02 
       8.213469537518e-01       1.914813136940e-02 
       9.196980813302e-01       1.481694512302e-02 
       1.075112183810e+00       1.035082867512e-02 
       1.322697471132e+00       6.379384239723e-03 
       1.662328205042e+00       3.705584438911e-03 
       2.092692408506e+00       2.124449609633e-03 
       2.634543445090e+00       1.207874582117e-03 
       3.316693691389e+00       6.816177529636e-04 
       4.175469971226e+00       3.820328132362e-04 
       5.256605252960e+00       2.127885517486e-04 
       6.617673932723e+00       1.178408798102e-04 
       8.331157880872e+00       6.491070843445e-05 
       1.048830636590e+01       3.557341176723e-05 
       1.320399541071e+01       1.939935808608e-05 
       1.662284535976e+01       1.052618138760e-05 
       2.092692243973e+01       5.680841016912e-06 
       2.634543445002e+01       3.046709734780e-06 
       3.316693691389e+01       1.621006635421e-06 
       4.175469971226e+01       8.530248037338e-07 
       5.256605252960e+01       4.416186528069e-07 
       6.617673932723e+01       2.228645489495e-07 
