# Matter power spectrum P(k) at redshift z=99
# for k=1.04775e-05 to 67.6233 h/Mpc,
# number of wavenumbers equal to 246
#    1:k (h/Mpc)              2:P (Mpc/h)^3        
       1.047750691046e-05       7.261927680879e-03 
       1.131335172503e-05       7.820331652450e-03 
       1.221587619537e-05       8.421675995473e-03 
       1.319039970183e-05       9.069258201870e-03 
       1.424266597921e-05       9.766638412156e-03 
       1.537887696968e-05       1.051764070804e-02 
       1.660572937635e-05       1.132639106728e-02 
       1.793045413292e-05       1.219733232718e-02 
       1.936085902198e-05       1.313524225782e-02 
       2.090537469327e-05       1.414527123402e-02 
       2.257310435294e-05       1.523296273827e-02 
       2.437387741694e-05       1.640429446292e-02 
       2.631830744443e-05       1.766569584062e-02 
       2.841785469300e-05       1.902408737009e-02 
       3.068489366414e-05       2.048692972777e-02 
       3.313278603720e-05       2.206225515947e-02 
       3.577595942169e-05       2.375870707444e-02 
       3.862999239199e-05       2.558560730208e-02 
       4.171170630578e-05       2.755297766283e-02 
       4.503926444729e-05       2.967161930480e-02 
       4.863227907969e-05       3.195316454241e-02 
       5.251192703764e-05       3.441013522955e-02 
       5.670107454120e-05       3.705601726481e-02 
       6.122441196689e-05       3.990533417804e-02 
       6.610859936996e-05       4.297372172788e-02 
       7.138242361596e-05       4.627802146625e-02 
       7.707696804727e-05       4.983636199476e-02 
       8.322579568497e-05       5.366826852957e-02 
       8.986514704559e-05       5.779476400734e-02 
       9.703415373875e-05       6.223848250524e-02 
       1.047750691046e-04       6.702379872790e-02 
       1.131335172503e-04       7.217695161080e-02 
       1.221587619537e-04       7.772619081862e-02 
       1.319039970183e-04       8.370193441305e-02 
       1.424266597921e-04       9.013692517163e-02 
       1.537887696968e-04       9.706641252925e-02 
       1.660572937635e-04       1.045283355386e-01 
       1.793045413292e-04       1.125635350269e-01 
       1.936085902198e-04       1.212159616261e-01 
       2.090537469327e-04       1.305329134107e-01 
       2.257310435294e-04       1.405652847714e-01 
       2.437387741694e-04       1.513678304155e-01 
       2.631830744443e-04       1.629994506609e-01 
       2.841785469300e-04       1.755234923096e-01 
       3.068489366414e-04       1.890080672429e-01 
       3.313278603720e-04       2.035264004606e-01 
       3.577595942169e-04       2.191571806018e-01 
       3.862999239199e-04       2.359849440110e-01 
       4.171170630578e-04       2.541004744248e-01 
       4.503926444729e-04       2.736012083195e-01 
       4.863227907969e-04       2.945916794106e-01 
       5.251192703764e-04       3.171839528564e-01 
       5.670107454121e-04       3.414980767642e-01 
       6.122441196689e-04       3.676625417019e-01 
       6.610859936996e-04       3.958147256521e-01 
       7.138242361596e-04       4.261013289365e-01 
       7.707696804727e-04       4.586787797359e-01 
       8.322579568497e-04       4.937136006306e-01 
       8.986514704559e-04       5.313826807058e-01 
       9.703415373875e-04       5.718734978241e-01 
       1.047750691046e-03       6.153841636048e-01 
       1.131335172503e-03       6.621233246502e-01 
       1.221587619537e-03       7.123098228003e-01 
       1.319039970183e-03       7.661720592254e-01 
       1.424266597921e-03       8.239546306459e-01 
       1.537887696968e-03       8.859011182849e-01 
       1.660572937635e-03       9.522588016387e-01 
       1.793045413292e-03       1.023280100900e+00 
       1.936085902198e-03       1.099216305738e+00 
       2.090537469327e-03       1.180312991697e+00 
       2.257310435294e-03       1.266804117182e+00 
       2.437387741694e-03       1.358904854830e+00 
       2.631830744443e-03       1.456802684677e+00 
       2.841785469300e-03       1.560646892144e+00 
       3.068489366414e-03       1.670536064228e+00 
       3.313278603720e-03       1.786503854012e+00 
       3.577595942169e-03       1.908502932742e+00 
       3.862999239199e-03       2.036387732779e+00 
       4.171170630578e-03       2.169896193507e+00 
       4.503926444729e-03       2.308631881298e+00 
       4.863227907969e-03       2.452047293382e+00 
       5.251192703764e-03       2.599430630623e+00 
       5.670107454120e-03       2.749896934456e+00 
       6.122441196689e-03       2.902386516117e+00 
       6.610859936996e-03       3.055668706131e+00 
       7.138242361596e-03       3.208356464413e+00 
       7.707696804727e-03       3.358923895421e+00 
       8.322579568496e-03       3.505725598261e+00 
       8.986514704559e-03       3.647009256752e+00 
       9.703415373875e-03       3.780923307192e+00 
       1.047750691046e-02       3.905490688618e+00 
       1.131335172503e-02       4.018587644029e+00 
       1.221587619537e-02       4.117901755905e+00 
       1.319039970183e-02       4.200915358903e+00 
       1.424266597920e-02       4.264942511723e+00 
       1.537887696964e-02       4.307217721459e+00 
       1.660572937560e-02       4.325062849933e+00 
       1.793045412207e-02       4.316059837107e+00 
       1.936085889642e-02       4.278226770764e+00 
       2.090537351881e-02       4.210205320103e+00 
       2.257309534705e-02       4.111423676856e+00 
       2.437382002240e-02       3.982417187714e+00 
       2.631799943729e-02       3.825165274357e+00 
       2.841644544598e-02       3.643282638021e+00 
       3.067933354524e-02       3.442203872182e+00 
       3.311368469821e-02       3.229243393564e+00 
       3.571840442514e-02       3.013505992684e+00 
       3.847720347390e-02       2.805282068939e+00 
       4.135335537314e-02       2.614413570911e+00 
       4.429361666563e-02       2.448131325920e+00 
       4.724366437916e-02       2.309239989274e+00 
       5.016480834039e-02       2.196112694000e+00 
       5.303989618930e-02       2.104367360162e+00 
       5.586870668205e-02       2.028467791886e+00 
       5.866042679206e-02       1.963155291873e+00 
       6.142798931504e-02       1.903780619251e+00 
       6.418496438662e-02       1.846479599598e+00 
       6.694418832236e-02       1.788195790666e+00 
       6.971731104453e-02       1.726719091876e+00 
       7.251476154108e-02       1.660655144113e+00 
       7.534587669814e-02       1.589467667909e+00 
       7.821907664495e-02       1.513437160325e+00 
       8.114203771084e-02       1.433567077988e+00 
       8.412184533139e-02       1.351492347255e+00 
       8.716512277352e-02       1.269274531006e+00 
       9.027813693913e-02       1.189196342661e+00 
       9.346688429613e-02       1.113502875714e+00 
       9.673716026122e-02       1.044174892896e+00 
       1.000946150608e-01       9.827052825438e-01 
       1.035447986307e-01       9.299391271648e-01 
       1.070931966524e-01       8.859588702168e-01 
       1.107452594180e-01       8.500704819315e-01 
       1.145064248899e-01       8.208045160476e-01 
       1.183821370656e-01       7.960242597802e-01 
       1.223778605591e-01       7.731462161689e-01 
       1.264990921707e-01       7.494513053085e-01 
       1.307513701078e-01       7.225575270105e-01 
       1.351402814485e-01       6.909102640677e-01 
       1.396714683894e-01       6.541821802168e-01 
       1.443506337875e-01       6.134270716333e-01 
       1.491835464900e-01       5.708682023371e-01 
       1.541760469368e-01       5.293638361339e-01 
       1.593340535209e-01       4.917114630476e-01 
       1.646635701934e-01       4.599198470609e-01 
       1.701706958081e-01       4.347283632780e-01 
       1.758616357070e-01       4.154086073408e-01 
       1.817427160581e-01       3.999365564930e-01 
       1.878204014651e-01       3.856855388820e-01 
       1.941013163855e-01       3.698137630506e-01 
       2.005922709060e-01       3.505514216300e-01 
       2.073002914514e-01       3.280466520899e-01 
       2.142326570343e-01       3.042140574943e-01 
       2.213969417044e-01       2.816115332675e-01 
       2.288010639201e-01       2.622564031836e-01 
       2.364533436625e-01       2.469619161747e-01 
       2.443625682390e-01       2.350129458132e-01 
       2.525380678946e-01       2.244196562155e-01 
       2.609898025770e-01       2.130968356711e-01 
       2.697284614969e-01       2.001023018082e-01 
       2.787655775073e-01       1.860190783665e-01 
       2.881136588192e-01       1.725171958380e-01 
       2.977863412019e-01       1.610663031751e-01 
       3.077985646248e-01       1.517604458942e-01 
       3.181667793367e-01       1.435590039077e-01 
       3.289091877084e-01       1.351817659277e-01 
       3.400460298905e-01       1.261639798302e-01 
       3.515999235695e-01       1.172013510956e-01 
       3.635962710278e-01       1.091766894016e-01 
       3.760637505499e-01       1.023090429542e-01 
       3.890349143014e-01       9.593756149619e-02 
       4.025469215929e-01       8.950743425459e-02 
       4.166424455447e-01       8.311166979159e-02 
       4.313708034899e-01       7.721532841222e-02 
       4.467893781976e-01       7.190044771040e-02 
       4.629654198623e-01       6.686887076473e-02 
       4.799783500912e-01       6.191724094899e-02 
       4.979227318246e-01       5.722192893490e-02 
       5.169121269689e-01       5.290271615615e-02 
       5.370841403262e-01       4.876962000400e-02 
       5.586070463286e-01       4.479066808889e-02 
       5.816885093582e-01       4.105164966977e-02 
       6.065870143577e-01       3.748972045430e-02 
       6.336266466978e-01       3.407608718143e-02 
       6.632156057925e-01       3.083443033980e-02 
       6.958678637575e-01       2.772811865148e-02 
       7.322247983784e-01       2.476689136343e-02 
       7.730680193171e-01       2.193927486937e-02 
       8.193049551574e-01       1.925596092080e-02 
       8.718988013754e-01       1.672905463708e-02 
       9.317218028590e-01       1.438401965808e-02 
       9.993660906273e-01       1.225044616518e-02 
       1.075037109879e+00       1.035239368268e-02 
       1.158653485387e+00       8.699504071152e-03 
       1.250099156961e+00       7.284393953956e-03 
       1.349432400897e+00       6.085255891762e-03 
       1.456947456991e+00       5.075508204159e-03 
       1.573135110893e+00       4.228099083784e-03 
       1.698621895119e+00       3.518360374415e-03 
       1.834127512423e+00       2.924781307785e-03 
       1.980444933977e+00       2.428973241055e-03 
       2.138435191130e+00       2.015305489542e-03 
       2.309029198543e+00       1.670579118774e-03 
       2.493232376993e+00       1.383600233208e-03 
       2.692130394536e+00       1.144939304102e-03 
       2.906895533764e+00       9.466645770070e-04 
       3.138793596840e+00       7.820992073039e-04 
       3.389191365541e+00       6.456395371459e-04 
       3.659564656886e+00       5.325866686282e-04 
       3.951507021438e+00       4.390052584234e-04 
       4.266739135513e+00       3.616093930714e-04 
       4.607118942658e+00       2.976509738379e-04 
       4.974652604172e+00       2.448386902158e-04 
       5.371506323193e+00       2.012641337687e-04 
       5.800019112071e+00       1.653380547993e-04 
       6.262716578240e+00       1.357385994272e-04 
       6.762325809881e+00       1.113679101131e-04 
       7.301791449077e+00       9.131686265440e-05 
       7.884293047211e+00       7.483084317813e-05 
       8.513263804891e+00       6.128346830668e-05 
       9.192410806865e+00       5.015933536317e-05 
       9.925736871166e+00       4.102955992637e-05 
       1.071756414128e+01       3.354095682400e-05 
       1.157255956041e+01       2.740250428477e-05 
       1.249576237789e+01       2.237353688633e-05 
       1.349261385000e+01       1.825563878219e-05 
       1.456898931011e+01       1.488589141071e-05 
       1.573123279727e+01       1.212954981927e-05 
       1.698619444729e+01       9.876190019648e-06 
       1.834127086665e+01       8.035260547526e-06 
       1.980444872733e+01       6.531785184039e-06 
       2.138435183937e+01       5.304782206881e-06 
       2.309029197863e+01       4.303795961793e-06 
       2.493232376942e+01       3.487747760799e-06 
       2.692130394533e+01       2.822813754797e-06 
       2.906895533764e+01       2.281356870434e-06 
       3.138793596840e+01       1.840754678516e-06 
       3.389191365541e+01       1.482433698537e-06 
       3.659564656886e+01       1.191255230717e-06 
       3.951507021438e+01       9.548634041684e-07 
       4.266739135513e+01       7.631048681506e-07 
       4.607118942658e+01       6.077577967433e-07 
       4.974652604172e+01       4.820530168867e-07 
       5.371506323193e+01       3.805049355018e-07 
       5.800019112071e+01       2.986245254482e-07 
       6.262716578240e+01       2.327599935931e-07 
       6.762325809881e+01       1.799385314135e-07 
