# Matter power spectrum P(k) at redshift z=99
# for k=1.04775e-05 to 66.1767 h/Mpc,
# number of wavenumbers equal to 130
#    1:k (h/Mpc)              2:P (Mpc/h)^3        
       1.047750691046e-05       7.261927680862e-03 
       1.319039970183e-05       9.069258201849e-03 
       1.660572937635e-05       1.132639106725e-02 
       2.090537469327e-05       1.414527123399e-02 
       2.631830744443e-05       1.766569584058e-02 
       3.313278603720e-05       2.206225515942e-02 
       4.171170630578e-05       2.755297766277e-02 
       5.251192703764e-05       3.441013522947e-02 
       6.610859936996e-05       4.297372172778e-02 
       8.322579568497e-05       5.366826852944e-02 
       1.047750691046e-04       6.702379872774e-02 
       1.319039970183e-04       8.370193441285e-02 
       1.660572937635e-04       1.045283355384e-01 
       2.090537469327e-04       1.305329134104e-01 
       2.631830744443e-04       1.629994506605e-01 
       3.313278603720e-04       2.035264004601e-01 
       4.171170630578e-04       2.541004744243e-01 
       5.251192703764e-04       3.171839528558e-01 
       6.610859936996e-04       3.958147256513e-01 
       8.322579568497e-04       4.937136006292e-01 
       1.047750691046e-03       6.153841636042e-01 
       1.319039970183e-03       7.661720592238e-01 
       1.660572937635e-03       9.522588016482e-01 
       2.090537469327e-03       1.180312991698e+00 
       2.631830744443e-03       1.456802684686e+00 
       3.313278603720e-03       1.786503854041e+00 
       4.171170630578e-03       2.169896161909e+00 
       5.251192703764e-03       2.599430630721e+00 
       6.610859936996e-03       3.055668686823e+00 
       8.322579568497e-03       3.505725598630e+00 
       1.047750691046e-02       3.905491333870e+00 
       1.319039970183e-02       4.200915400780e+00 
       1.660572937633e-02       4.325060921732e+00 
       2.090537453514e-02       4.210203363642e+00 
       2.631818545635e-02       3.825158348425e+00 
       3.311571692125e-02       3.229060551874e+00 
       4.113809243311e-02       2.627727533312e+00 
       4.792590854610e-02       2.280792470599e+00 
       5.284436902701e-02       2.110086123923e+00 
       5.689644391095e-02       2.003540538353e+00 
       6.051252627066e-02       1.923053446792e+00 
       6.388413457411e-02       1.852733979964e+00 
       6.711249296401e-02       1.784564483091e+00 
       7.025823437965e-02       1.714276594796e+00 
       7.336115587705e-02       1.639816077967e+00 
       7.644928796912e-02       1.560661484593e+00 
       7.954353299775e-02       1.477458522589e+00 
       8.266024078725e-02       1.391698968195e+00 
       8.581273398637e-02       1.305461640886e+00 
       8.901225918437e-02       1.221127184598e+00 
       9.226860540985e-02       1.141079941116e+00 
       9.559052048996e-02       1.067452518460e+00 
       9.898599946599e-02       1.001890794678e+00 
       1.024624891378e-01       9.453812009125e-01 
       1.060270359164e-01       8.981496626392e-01 
       1.096863943056e-01       8.596120872720e-01 
       1.134471073830e-01       8.284053739720e-01 
       1.173155669539e-01       8.024675148105e-01 
       1.212980586983e-01       7.792297332916e-01 
       1.254007961065e-01       7.559185060745e-01 
       1.296299459934e-01       7.299815869706e-01 
       1.339916477160e-01       6.995927143162e-01 
       1.384920277736e-01       6.640791766729e-01 
       1.431372111762e-01       6.241459806486e-01 
       1.479333307714e-01       5.817634701729e-01 
       1.528865355934e-01       5.396940766706e-01 
       1.580029992204e-01       5.008136046979e-01 
       1.632889290723e-01       4.673982993041e-01 
       1.687505775527e-01       4.405342817715e-01 
       1.743942559171e-01       4.198648684247e-01 
       1.802263517371e-01       4.036595132144e-01 
       1.862533508214e-01       3.893585761178e-01 
       1.924818644494e-01       3.741350001854e-01 
       1.989186627765e-01       3.558022187584e-01 
       2.055707152847e-01       3.340001230384e-01 
       2.124452391818e-01       3.102664864751e-01 
       2.195497567139e-01       2.871225826758e-01 
       2.268921624510e-01       2.668084526144e-01 
       2.344808017550e-01       2.504836023729e-01 
       2.423245618548e-01       2.378337389305e-01 
       2.504329772620e-01       2.271121431974e-01 
       2.588163516754e-01       2.161169215807e-01 
       2.674858990930e-01       2.035458634881e-01 
       2.764539076010e-01       1.895981755638e-01 
       2.857339303080e-01       1.757570900931e-01 
       2.953410092148e-01       1.636994106486e-01 
       3.052919395542e-01       1.539060744981e-01 
       3.156055844677e-01       1.455310796512e-01 
       3.263032530092e-01       1.372502594077e-01 
       3.374091587054e-01       1.283021077144e-01 
       3.489509817175e-01       1.191714525138e-01 
       3.609605657343e-01       1.108072816974e-01 
       3.734747921333e-01       1.036448283545e-01 
       3.865366902904e-01       9.714128071351e-02 
       4.001968667448e-01       9.061580777540e-02 
       4.145153713076e-01       8.403695768976e-02 
       4.295641718077e-01       7.789100689230e-02 
       4.454304922144e-01       7.234186372494e-02 
       4.622214006969e-01       6.709366721450e-02 
       4.800702491654e-01       6.189170816219e-02 
       4.991459272112e-01       5.692629915851e-02 
       5.196665217302e-01       5.231611086224e-02 
       5.419201087032e-01       4.783256495530e-02 
       5.662975451962e-01       4.348690003598e-02 
       5.933463737275e-01       3.933110284775e-02 
       6.238638458458e-01       3.525342585348e-02 
       6.590669257916e-01       3.126294850529e-02 
       7.009246080454e-01       2.728739508006e-02 
       7.528593308799e-01       2.327848701694e-02 
       8.213469537518e-01       1.914821133990e-02 
       9.196980813302e-01       1.481699460804e-02 
       1.075112183810e+00       1.035091521675e-02 
       1.322697471132e+00       6.379456793598e-03 
       1.662328205042e+00       3.705678290877e-03 
       2.092692408506e+00       2.124532648952e-03 
       2.634543445090e+00       1.207943206230e-03 
       3.316693691389e+00       6.816840617530e-04 
       4.175469971226e+00       3.820866751412e-04 
       5.256605252960e+00       2.128248742121e-04 
       6.617673932723e+00       1.178591575629e-04 
       8.331157880872e+00       6.490588851620e-05 
       1.048830636590e+01       3.554183474774e-05 
       1.320399541071e+01       1.933530637127e-05 
       1.662284535976e+01       1.042490206875e-05 
       2.092692243973e+01       5.537670364868e-06 
       2.634543445002e+01       2.859624838453e-06 
       3.316693691389e+01       1.393778479404e-06 
       4.175469971226e+01       6.000425423463e-07 
       5.256605252960e+01       1.934842934281e-07 
       6.617673932723e+01       2.566000555036e-08 
