# Matter power spectrum P(k) at redshift z=99
# for k=1.04775e-05 to 66.1767 h/Mpc,
# number of wavenumbers equal to 130
#    1:k (h/Mpc)              2:P (Mpc/h)^3        
       1.047750691046e-05       7.261927680861e-03 
       1.319039970183e-05       9.069258201848e-03 
       1.660572937635e-05       1.132639106725e-02 
       2.090537469327e-05       1.414527123399e-02 
       2.631830744443e-05       1.766569584058e-02 
       3.313278603720e-05       2.206225515942e-02 
       4.171170630578e-05       2.755297766277e-02 
       5.251192703764e-05       3.441013522947e-02 
       6.610859936996e-05       4.297372172777e-02 
       8.322579568497e-05       5.366826852944e-02 
       1.047750691046e-04       6.702379872774e-02 
       1.319039970183e-04       8.370193441285e-02 
       1.660572937635e-04       1.045283355384e-01 
       2.090537469327e-04       1.305329134104e-01 
       2.631830744443e-04       1.629994506605e-01 
       3.313278603720e-04       2.035264004601e-01 
       4.171170630578e-04       2.541004744243e-01 
       5.251192703764e-04       3.171839528557e-01 
       6.610859936996e-04       3.958147256513e-01 
       8.322579568497e-04       4.937136006276e-01 
       1.047750691046e-03       6.153841636041e-01 
       1.319039970183e-03       7.661720592353e-01 
       1.660572937635e-03       9.522588016469e-01 
       2.090537469327e-03       1.180312991700e+00 
       2.631830744443e-03       1.456802684686e+00 
       3.313278603720e-03       1.786503854040e+00 
       4.171170630578e-03       2.169896196352e+00 
       5.251192703764e-03       2.599430630722e+00 
       6.610859936996e-03       3.055668687324e+00 
       8.322579568497e-03       3.505724951402e+00 
       1.047750691046e-02       3.905490294932e+00 
       1.319039970183e-02       4.200915412162e+00 
       1.660572937633e-02       4.325062425724e+00 
       2.090537453514e-02       4.210206263397e+00 
       2.631818545635e-02       3.825157276371e+00 
       3.311571692125e-02       3.229073858579e+00 
       4.113809243311e-02       2.627732811151e+00 
       4.792590854610e-02       2.280789392816e+00 
       5.284436902701e-02       2.110085327104e+00 
       5.689644391095e-02       2.003536495817e+00 
       6.051252627066e-02       1.923059724643e+00 
       6.388413457411e-02       1.852735560331e+00 
       6.711249296401e-02       1.784564577796e+00 
       7.025823437965e-02       1.714278187157e+00 
       7.336115587705e-02       1.639814546884e+00 
       7.644928796912e-02       1.560662213501e+00 
       7.954353299775e-02       1.477452421090e+00 
       8.266024078725e-02       1.391698580162e+00 
       8.581273398637e-02       1.305462048046e+00 
       8.901225918437e-02       1.221126222410e+00 
       9.226860540985e-02       1.141077957895e+00 
       9.559052048996e-02       1.067454492628e+00 
       9.898599946599e-02       1.001890289556e+00 
       1.024624891378e-01       9.453821053571e-01 
       1.060270359164e-01       8.981484937317e-01 
       1.096863943056e-01       8.596148215658e-01 
       1.134471073830e-01       8.284069846511e-01 
       1.173155669539e-01       8.024678926020e-01 
       1.212980586983e-01       7.792280958450e-01 
       1.254007961065e-01       7.559180444782e-01 
       1.296299459934e-01       7.299829967373e-01 
       1.339916477160e-01       6.995936991312e-01 
       1.384920277736e-01       6.640797364709e-01 
       1.431372111762e-01       6.241473820276e-01 
       1.479333307714e-01       5.817635920772e-01 
       1.528865355934e-01       5.396941853999e-01 
       1.580029992204e-01       5.008133934775e-01 
       1.632889290723e-01       4.673992653846e-01 
       1.687505775527e-01       4.405342475962e-01 
       1.743942559171e-01       4.198657088999e-01 
       1.802263517371e-01       4.036612019093e-01 
       1.862533508214e-01       3.893600831825e-01 
       1.924818644494e-01       3.741349626960e-01 
       1.989186627765e-01       3.558022997141e-01 
       2.055707152847e-01       3.339994418010e-01 
       2.124452391818e-01       3.102654111181e-01 
       2.195497567139e-01       2.871232985797e-01 
       2.268921624510e-01       2.668085328952e-01 
       2.344808017550e-01       2.504836513210e-01 
       2.423245618548e-01       2.378336592042e-01 
       2.504329772620e-01       2.271117757681e-01 
       2.588163516754e-01       2.161174324616e-01 
       2.674858990930e-01       2.035461491185e-01 
       2.764539076010e-01       1.895978322606e-01 
       2.857339303080e-01       1.757568780638e-01 
       2.953410092148e-01       1.636995663116e-01 
       3.052919395542e-01       1.539066146236e-01 
       3.156055844677e-01       1.455312750062e-01 
       3.263032530092e-01       1.372504042451e-01 
       3.374091587054e-01       1.283021372312e-01 
       3.489509817175e-01       1.191715341254e-01 
       3.609605657343e-01       1.108075951661e-01 
       3.734747921333e-01       1.036456507400e-01 
       3.865366902904e-01       9.714144065025e-02 
       4.001968667448e-01       9.061565755993e-02 
       4.145153713076e-01       8.403694544835e-02 
       4.295641718077e-01       7.789151032293e-02 
       4.454304922144e-01       7.234189298524e-02 
       4.622214006969e-01       6.709393857906e-02 
       4.800702491654e-01       6.189188915321e-02 
       4.991459272112e-01       5.692651638868e-02 
       5.196665217302e-01       5.231635868315e-02 
       5.419201087032e-01       4.783251412682e-02 
       5.662975451962e-01       4.348702587193e-02 
       5.933463737275e-01       3.933104488572e-02 
       6.238638458458e-01       3.525342831771e-02 
       6.590669257916e-01       3.126298215862e-02 
       7.009246080454e-01       2.728737590123e-02 
       7.528593308799e-01       2.327846973985e-02 
       8.213469537518e-01       1.914828847963e-02 
       9.196980813302e-01       1.481707174705e-02 
       1.075112183810e+00       1.035093595959e-02 
       1.322697471132e+00       6.379473432553e-03 
       1.662328205042e+00       3.705683040756e-03 
       2.092692408506e+00       2.124543012329e-03 
       2.634543445090e+00       1.207970715212e-03 
       3.316693691389e+00       6.817111682938e-04 
       4.175469971226e+00       3.821261868256e-04 
       5.256605252960e+00       2.128767158430e-04 
       6.617673932723e+00       1.179234596831e-04 
       8.331157880872e+00       6.498812039969e-05 
       1.048830636590e+01       3.564607074122e-05 
       1.320399541071e+01       1.946652251022e-05 
       1.662284535976e+01       1.058809726847e-05 
       2.092692243973e+01       5.737525181559e-06 
       2.634543445002e+01       3.098250158969e-06 
       3.316693691389e+01       1.667599789918e-06 
       4.175469971226e+01       8.948129189023e-07 
       5.256605252960e+01       4.787189667138e-07 
       6.617673932723e+01       2.553763716870e-07 
