# Matter power spectrum P(k) at redshift z=99
# for k=1.04775e-05 to 66.1767 h/Mpc,
# number of wavenumbers equal to 130
#    1:k (h/Mpc)              2:P (Mpc/h)^3        
       1.047750691046e-05       7.261927680862e-03 
       1.319039970183e-05       9.069258201849e-03 
       1.660572937635e-05       1.132639106725e-02 
       2.090537469327e-05       1.414527123399e-02 
       2.631830744443e-05       1.766569584058e-02 
       3.313278603720e-05       2.206225515942e-02 
       4.171170630578e-05       2.755297766277e-02 
       5.251192703764e-05       3.441013522947e-02 
       6.610859936996e-05       4.297372172778e-02 
       8.322579568497e-05       5.366826852944e-02 
       1.047750691046e-04       6.702379872774e-02 
       1.319039970183e-04       8.370193441286e-02 
       1.660572937635e-04       1.045283355384e-01 
       2.090537469327e-04       1.305329134104e-01 
       2.631830744443e-04       1.629994506606e-01 
       3.313278603720e-04       2.035264004601e-01 
       4.171170630578e-04       2.541004744243e-01 
       5.251192703764e-04       3.171839528557e-01 
       6.610859936996e-04       3.958147256513e-01 
       8.322579568497e-04       4.937136006270e-01 
       1.047750691046e-03       6.153841636041e-01 
       1.319039970183e-03       7.661720592904e-01 
       1.660572937635e-03       9.522588016484e-01 
       2.090537469327e-03       1.180312991699e+00 
       2.631830744443e-03       1.456802684686e+00 
       3.313278603720e-03       1.786503854036e+00 
       4.171170630578e-03       2.169896193166e+00 
       5.251192703764e-03       2.599430630721e+00 
       6.610859936996e-03       3.055668698211e+00 
       8.322579568497e-03       3.505725598223e+00 
       1.047750691046e-02       3.905490007632e+00 
       1.319039970183e-02       4.200915284558e+00 
       1.660572937633e-02       4.325061219058e+00 
       2.090537453514e-02       4.210195249547e+00 
       2.631818545635e-02       3.825149925240e+00 
       3.311571692125e-02       3.229059722266e+00 
       4.113809243311e-02       2.627725291470e+00 
       4.792590854610e-02       2.280792128319e+00 
       5.284436902701e-02       2.110087438618e+00 
       5.689644391095e-02       2.003538867781e+00 
       6.051252627066e-02       1.923057490880e+00 
       6.388413457411e-02       1.852733295346e+00 
       6.711249296401e-02       1.784565340573e+00 
       7.025823437965e-02       1.714273893591e+00 
       7.336115587705e-02       1.639817740768e+00 
       7.644928796912e-02       1.560662274799e+00 
       7.954353299775e-02       1.477458893031e+00 
       8.266024078725e-02       1.391698468166e+00 
       8.581273398637e-02       1.305462865811e+00 
       8.901225918437e-02       1.221123054338e+00 
       9.226860540985e-02       1.141076856551e+00 
       9.559052048996e-02       1.067453776213e+00 
       9.898599946599e-02       1.001889776212e+00 
       1.024624891378e-01       9.453824523692e-01 
       1.060270359164e-01       8.981485712711e-01 
       1.096863943056e-01       8.596103319032e-01 
       1.134471073830e-01       8.284052835160e-01 
       1.173155669539e-01       8.024676938590e-01 
       1.212980586983e-01       7.792294016215e-01 
       1.254007961065e-01       7.559168601661e-01 
       1.296299459934e-01       7.299832087403e-01 
       1.339916477160e-01       6.995929167504e-01 
       1.384920277736e-01       6.640775947103e-01 
       1.431372111762e-01       6.241461202066e-01 
       1.479333307714e-01       5.817654491605e-01 
       1.528865355934e-01       5.396940614098e-01 
       1.580029992204e-01       5.008144362566e-01 
       1.632889290723e-01       4.673986491640e-01 
       1.687505775527e-01       4.405341392601e-01 
       1.743942559171e-01       4.198653166730e-01 
       1.802263517371e-01       4.036593246028e-01 
       1.862533508214e-01       3.893601498265e-01 
       1.924818644494e-01       3.741355006603e-01 
       1.989186627765e-01       3.558015006810e-01 
       2.055707152847e-01       3.340003657839e-01 
       2.124452391818e-01       3.102661353720e-01 
       2.195497567139e-01       2.871227347993e-01 
       2.268921624510e-01       2.668086342829e-01 
       2.344808017550e-01       2.504835796498e-01 
       2.423245618548e-01       2.378338056655e-01 
       2.504329772620e-01       2.271118944761e-01 
       2.588163516754e-01       2.161175215596e-01 
       2.674858990930e-01       2.035457166420e-01 
       2.764539076010e-01       1.895978176724e-01 
       2.857339303080e-01       1.757569172946e-01 
       2.953410092148e-01       1.636991148133e-01 
       3.052919395542e-01       1.539062812048e-01 
       3.156055844677e-01       1.455314850285e-01 
       3.263032530092e-01       1.372508530850e-01 
       3.374091587054e-01       1.283022570275e-01 
       3.489509817175e-01       1.191712403043e-01 
       3.609605657343e-01       1.108073830424e-01 
       3.734747921333e-01       1.036449393947e-01 
       3.865366902904e-01       9.714139722903e-02 
       4.001968667448e-01       9.061556569886e-02 
       4.145153713076e-01       8.403702878743e-02 
       4.295641718077e-01       7.789117438176e-02 
       4.454304922144e-01       7.234188531016e-02 
       4.622214006969e-01       6.709381809076e-02 
       4.800702491654e-01       6.189194385106e-02 
       4.991459272112e-01       5.692638697365e-02 
       5.196665217302e-01       5.231622410328e-02 
       5.419201087032e-01       4.783260117665e-02 
       5.662975451962e-01       4.348698157796e-02 
       5.933463737275e-01       3.933102044666e-02 
       6.238638458458e-01       3.525332949653e-02 
       6.590669257916e-01       3.126297810420e-02 
       7.009246080454e-01       2.728739616908e-02 
       7.528593308799e-01       2.327842436670e-02 
       8.213469537518e-01       1.914825582589e-02 
       9.196980813302e-01       1.481706460658e-02 
       1.075112183810e+00       1.035089223636e-02 
       1.322697471132e+00       6.379432133108e-03 
       1.662328205042e+00       3.705637710813e-03 
       2.092692408506e+00       2.124514542240e-03 
       2.634543445090e+00       1.207917556613e-03 
       3.316693691389e+00       6.816500500832e-04 
       4.175469971226e+00       3.820434319286e-04 
       5.256605252960e+00       2.127688422220e-04 
       6.617673932723e+00       1.177876167206e-04 
       8.331157880872e+00       6.481445018434e-05 
       1.048830636590e+01       3.542603354634e-05 
       1.320399541071e+01       1.919150500852e-05 
       1.662284535976e+01       1.024974120176e-05 
       2.092692243973e+01       5.331192906337e-06 
       2.634543445002e+01       2.628448744491e-06 
       3.316693691389e+01       1.156430162676e-06 
       4.175469971226e+01       3.918386771243e-07 
       5.256605252960e+01       6.217495339061e-08 
       6.617673932723e+01       2.368210503714e-09 
