# Matter power spectrum P(k) at redshift z=0
# for k=1.04775e-05 to 66.1767 h/Mpc,
# number of wavenumbers equal to 130
#    1:k (h/Mpc)              2:P (Mpc/h)^3        
       1.047750691046e-05       5.020964811312e+01 
       1.319039970183e-05       6.270562594779e+01 
       1.660572937635e-05       7.831147247912e+01 
       2.090537469327e-05       9.780108069295e+01 
       2.631830744443e-05       1.221408203809e+02 
       3.313278603720e-05       1.525374501932e+02 
       4.171170630578e-05       1.904975994010e+02 
       5.251192703764e-05       2.379022224249e+02 
       6.610859936996e-05       2.970989227881e+02 
       8.322579568497e-05       3.710167318946e+02 
       1.047750691046e-04       4.633080766742e+02 
       1.319039970183e-04       5.785234129339e+02 
       1.660572937635e-04       7.223242666092e+02 
       2.090537469327e-04       9.017396271824e+02 
       2.631830744443e-04       1.125468123750e+03 
       3.313278603720e-04       1.404223053681e+03 
       4.171170630578e-04       1.751108028790e+03 
       5.251192703764e-04       2.181998448133e+03 
       6.610859936996e-04       2.715889983592e+03 
       8.322579568497e-04       3.375152337134e+03 
       1.047750691046e-03       4.185552174308e+03 
       1.319039970183e-03       5.175742741772e+03 
       1.660572937635e-03       6.376123051779e+03 
       2.090537469327e-03       7.815671868441e+03 
       2.631830744443e-03       9.517783069112e+03 
       3.313278603720e-03       1.149357460346e+04 
       4.171170630578e-03       1.373266012746e+04 
       5.251192703764e-03       1.619063614559e+04 
       6.610859936996e-03       1.877460415825e+04 
       8.322579568497e-03       2.132607231748e+04 
       1.047750691046e-02       2.360548342220e+04 
       1.319039970183e-02       2.528218633449e+04 
       1.660572937633e-02       2.595027365929e+04 
       2.090537453514e-02       2.520932975950e+04 
       2.631818545635e-02       2.287034858469e+04 
       3.311571692125e-02       1.928624434177e+04 
       4.113809243311e-02       1.568427821450e+04 
       4.792590854610e-02       1.361061626206e+04 
       5.284436902701e-02       1.259126381453e+04 
       5.689644391095e-02       1.195555516999e+04 
       6.051252627066e-02       1.147545876282e+04 
       6.388413457411e-02       1.105589644319e+04 
       6.711249296401e-02       1.064899453121e+04 
       7.025823437965e-02       1.022929411806e+04 
       7.336115587705e-02       9.784511724609e+03 
       7.644928796912e-02       9.311671928437e+03 
       7.954353299775e-02       8.814578762644e+03 
       8.266024078725e-02       8.302111501342e+03 
       8.581273398637e-02       7.786951926778e+03 
       8.901225918437e-02       7.283180299087e+03 
       9.226860540985e-02       6.805158579276e+03 
       9.559052048996e-02       6.365631213995e+03 
       9.898599946599e-02       5.974388405604e+03 
       1.024624891378e-01       5.637315144425e+03 
       1.060270359164e-01       5.355778850830e+03 
       1.096863943056e-01       5.126250835182e+03 
       1.134471073830e-01       4.940468662746e+03 
       1.173155669539e-01       4.786165383703e+03 
       1.212980586983e-01       4.647934933805e+03 
       1.254007961065e-01       4.509150543689e+03 
       1.296299459934e-01       4.354551082370e+03 
       1.339916477160e-01       4.173213928550e+03 
       1.384920277736e-01       3.961156374071e+03 
       1.431372111762e-01       3.722683069553e+03 
       1.479333307714e-01       3.469555068182e+03 
       1.528865355934e-01       3.218335683570e+03 
       1.580029992204e-01       2.986292438126e+03 
       1.632889290723e-01       2.786965215224e+03 
       1.687505775527e-01       2.626828893781e+03 
       1.743942559171e-01       2.503762366741e+03 
       1.802263517371e-01       2.407344299012e+03 
       1.862533508214e-01       2.322252025017e+03 
       1.924818644494e-01       2.231550600685e+03 
       1.989186627765e-01       2.122189332013e+03 
       2.055707152847e-01       1.992029140512e+03 
       2.124452391818e-01       1.850321127149e+03 
       2.195497567139e-01       1.712180412615e+03 
       2.268921624510e-01       1.590987088263e+03 
       2.344808017550e-01       1.493671507631e+03 
       2.423245618548e-01       1.418305309113e+03 
       2.504329772620e-01       1.354465282695e+03 
       2.588163516754e-01       1.288934547645e+03 
       2.674858990930e-01       1.213939359870e+03 
       2.764539076010e-01       1.130694039850e+03 
       2.857339303080e-01       1.048096929307e+03 
       2.953410092148e-01       9.761813537766e+02 
       3.052919395542e-01       9.178076706518e+02 
       3.156055844677e-01       8.678957632940e+02 
       3.263032530092e-01       8.185267325744e+02 
       3.374091587054e-01       7.651461302420e+02 
       3.489509817175e-01       7.106701375506e+02 
       3.609605657343e-01       6.607863852138e+02 
       3.734747921333e-01       6.180858188715e+02 
       3.865366902904e-01       5.793112798821e+02 
       4.001968667448e-01       5.403913042567e+02 
       4.145153713076e-01       5.011527134351e+02 
       4.295641718077e-01       4.644987461255e+02 
       4.454304922144e-01       4.314079421426e+02 
       4.622214006969e-01       4.001131188318e+02 
       4.800702491654e-01       3.690902457493e+02 
       4.991459272112e-01       3.394765133451e+02 
       5.196665217302e-01       3.119851993374e+02 
       5.419201087032e-01       2.852464981847e+02 
       5.662975451962e-01       2.593313141989e+02 
       5.933463737275e-01       2.345477349142e+02 
       6.238638458458e-01       2.102310849584e+02 
       6.590669257916e-01       1.864336013519e+02 
       7.009246080454e-01       1.627253612822e+02 
       7.528593308799e-01       1.388188279375e+02 
       8.213469537518e-01       1.141884108429e+02 
       9.196980813302e-01       8.835941688311e+01 
       1.075112183810e+00       6.172609286793e+01 
       1.322697471132e+00       3.804278869523e+01 
       1.662328205042e+00       2.209800833758e+01 
       2.092692408506e+00       1.266918155647e+01 
       2.634543445090e+00       7.203318268741e+00 
       3.316693691389e+00       4.065136750205e+00 
       4.175469971226e+00       2.278597070154e+00 
       5.256605252960e+00       1.269338924864e+00 
       6.617673932723e+00       7.031399580940e-01 
       8.331157880872e+00       3.874788217583e-01 
       1.048830636590e+01       2.125103630467e-01 
       1.320399541071e+01       1.160366049406e-01 
       1.662284535976e+01       6.309839450847e-02 
       2.092692243973e+01       3.417957933837e-02 
       2.634543445002e+01       1.844588560551e-02 
       3.316693691389e+01       9.919152760634e-03 
       4.175469971226e+01       5.314622459342e-03 
       5.256605252960e+01       2.836666166816e-03 
       6.617673932723e+01       1.507696649389e-03 
