# Matter power spectrum P(k) at redshift z=0
# for k=1.04775e-05 to 67.6233 h/Mpc,
# number of wavenumbers equal to 246
#    1:k (h/Mpc)              2:P (Mpc/h)^3        
       1.047750691046e-05       5.020964811313e+01 
       1.131335172503e-05       5.407050701925e+01 
       1.221587619537e-05       5.822819068595e+01 
       1.319039970183e-05       6.270562594785e+01 
       1.424266597921e-05       6.752732240880e+01 
       1.537887696968e-05       7.271977206173e+01 
       1.660572937635e-05       7.831147247912e+01 
       1.793045413292e-05       8.433311821988e+01 
       1.936085902198e-05       9.081778249833e+01 
       2.090537469327e-05       9.780108069296e+01 
       2.257310435294e-05       1.053213197893e+02 
       2.437387741694e-05       1.134197377890e+02 
       2.631830744443e-05       1.221408203809e+02 
       2.841785469300e-05       1.315324642466e+02 
       3.068489366414e-05       1.416462094882e+02 
       3.313278603720e-05       1.525374501932e+02 
       3.577595942169e-05       1.642660688414e+02 
       3.862999239199e-05       1.768963506307e+02 
       4.171170630578e-05       1.904975994010e+02 
       4.503926444729e-05       2.051444491974e+02 
       4.863227907969e-05       2.209171465548e+02 
       5.251192703764e-05       2.379022224249e+02 
       5.670107454120e-05       2.561927927624e+02 
       6.122441196689e-05       2.758890444041e+02 
       6.610859936996e-05       2.970989227882e+02 
       7.138242361596e-05       3.199385560802e+02 
       7.707696804727e-05       3.445329783680e+02 
       8.322579568497e-05       3.710167318945e+02 
       8.986514704559e-05       3.995346444203e+02 
       9.703415373875e-05       4.302425407383e+02 
       1.047750691046e-04       4.633080766742e+02 
       1.131335172503e-04       4.989116271565e+02 
       1.221587619537e-04       5.372471950929e+02 
       1.319039970183e-04       5.785234129334e+02 
       1.424266597921e-04       6.229645936045e+02 
       1.537887696968e-04       6.708118490405e+02 
       1.660572937635e-04       7.223242666092e+02 
       1.793045413292e-04       7.777801560336e+02 
       1.936085902198e-04       8.374783614141e+02 
       2.090537469327e-04       9.017396271824e+02 
       2.257310435294e-04       9.709080268041e+02 
       2.437387741694e-04       1.045352449493e+03 
       2.631830744443e-04       1.125468123750e+03 
       2.841785469300e-04       1.211678180495e+03 
       3.068489366414e-04       1.304435250150e+03 
       3.313278603720e-04       1.404223053681e+03 
       3.577595942169e-04       1.511558014616e+03 
       3.862999239199e-04       1.626990837797e+03 
       4.171170630578e-04       1.751108028790e+03 
       4.503926444729e-04       1.884533382872e+03 
       4.863227907969e-04       2.027929378112e+03 
       5.251192703764e-04       2.181998448133e+03 
       5.670107454121e-04       2.347484102755e+03 
       6.122441196689e-04       2.525171871365e+03 
       6.610859936996e-04       2.715889983592e+03 
       7.138242361596e-04       2.920509688383e+03 
       7.707696804727e-04       3.139945100279e+03 
       8.322579568497e-04       3.375152337579e+03 
       8.986514704559e-04       3.627127831141e+03 
       9.703415373875e-04       3.896905453136e+03 
       1.047750691046e-03       4.185552174300e+03 
       1.131335172503e-03       4.494162430373e+03 
       1.221587619537e-03       4.823850706499e+03 
       1.319039970183e-03       5.175742742945e+03 
       1.424266597921e-03       5.551019596893e+03 
       1.537887696968e-03       5.950788340562e+03 
       1.660572937635e-03       6.376123051788e+03 
       1.793045413292e-03       6.828073901447e+03 
       1.936085902198e-03       7.307625381067e+03 
       2.090537469327e-03       7.815671865572e+03 
       2.257310435294e-03       8.352990375810e+03 
       2.437387741694e-03       8.920211064338e+03 
       2.631830744443e-03       9.517783069113e+03 
       2.841785469300e-03       1.014593704435e+04 
       3.068489366414e-03       1.080464502802e+04 
       3.313278603720e-03       1.149357460345e+04 
       3.577595942169e-03       1.221203621722e+04 
       3.862999239199e-03       1.295892539446e+04 
       4.171170630578e-03       1.373266011722e+04 
       4.503926444729e-03       1.453111835625e+04 
       4.863227907969e-03       1.535154985300e+04 
       5.251192703764e-03       1.619063614559e+04 
       5.670107454120e-03       1.704431257799e+04 
       6.122441196689e-03       1.790755939650e+04 
       6.610859936996e-03       1.877460423068e+04 
       7.138242361596e-03       1.963872430353e+04 
       7.707696804727e-03       2.049215714925e+04 
       8.322579568496e-03       2.132607231841e+04 
       8.986514704559e-03       2.213055037231e+04 
       9.703415373875e-03       2.289445472103e+04 
       1.047750691046e-02       2.360547758297e+04 
       1.131335172503e-02       2.425023373402e+04 
       1.221587619537e-02       2.481423923668e+04 
       1.319039970183e-02       2.528218613024e+04 
       1.424266597920e-02       2.563814964812e+04 
       1.537887696964e-02       2.586606669000e+04 
       1.660572937560e-02       2.595025662085e+04 
       1.793045412207e-02       2.587633373145e+04 
       1.936085889642e-02       2.563221824055e+04 
       2.090537351881e-02       2.520934679954e+04 
       2.257309534705e-02       2.460447380141e+04 
       2.437382002240e-02       2.382084052793e+04 
       2.631799943729e-02       2.287045768865e+04 
       2.841644544598e-02       2.177452265158e+04 
       3.067933354524e-02       2.056551930549e+04 
       3.311368469821e-02       1.928726753453e+04 
       3.571840442514e-02       1.799399900001e+04 
       3.847720347390e-02       1.674684322801e+04 
       4.135335537314e-02       1.560457024865e+04 
       4.429361666563e-02       1.461040956675e+04 
       4.724366437916e-02       1.378052861494e+04 
       5.016480834039e-02       1.310511739542e+04 
       5.303989618930e-02       1.255715671763e+04 
       5.586870668205e-02       1.210427257200e+04 
       5.866042679206e-02       1.171465565099e+04 
       6.142798931504e-02       1.136047686511e+04 
       6.418496438662e-02       1.101858641382e+04 
       6.694418832236e-02       1.067068394631e+04 
       6.971731104453e-02       1.030356198806e+04 
       7.251476154108e-02       9.908990446435e+03 
       7.534587669814e-02       9.483775764481e+03 
       7.821907664495e-02       9.029484470732e+03 
       8.114203771084e-02       8.552334304330e+03 
       8.412184533139e-02       8.061952377568e+03 
       8.716512277352e-02       7.570771741472e+03 
       9.027813693913e-02       7.092509891236e+03 
       9.346688429613e-02       6.640510794907e+03 
       9.673716026122e-02       6.226702735863e+03 
       1.000946150608e-01       5.859935062565e+03 
       1.035447986307e-01       5.545257142535e+03 
       1.070931966524e-01       5.283139977755e+03 
       1.107452594180e-01       5.069414186808e+03 
       1.145064248899e-01       4.895243333739e+03 
       1.183821370656e-01       4.747832726582e+03 
       1.223778605591e-01       4.611743728450e+03 
       1.264990921707e-01       4.470624893956e+03 
       1.307513701078e-01       4.310281542224e+03 
       1.351402814485e-01       4.121384091132e+03 
       1.396714683894e-01       3.902072175740e+03 
       1.443506337875e-01       3.658635312312e+03 
       1.491835464900e-01       3.404485084227e+03 
       1.541760469368e-01       3.156670945336e+03 
       1.593340535209e-01       2.931974156696e+03 
       1.646635701934e-01       2.742372709051e+03 
       1.701706958081e-01       2.592260330646e+03 
       1.758616357070e-01       2.477239692486e+03 
       1.817427160581e-01       2.385184542305e+03 
       1.878204014651e-01       2.300364001574e+03 
       1.941013163855e-01       2.205757523049e+03 
       2.005922709060e-01       2.090813461825e+03 
       2.073002914514e-01       1.956462955687e+03 
       2.142326570343e-01       1.814197000706e+03 
       2.213969417044e-01       1.679294311390e+03 
       2.288010639201e-01       1.563846333322e+03 
       2.364533436625e-01       1.472687349603e+03 
       2.443625682390e-01       1.401517914192e+03 
       2.525380678946e-01       1.338412500489e+03 
       2.609898025770e-01       1.270905162364e+03 
       2.697284614969e-01       1.193380778040e+03 
       2.787655775073e-01       1.109335219750e+03 
       2.881136588192e-01       1.028771255550e+03 
       2.977863412019e-01       9.604845947940e+02 
       3.077985646248e-01       9.050245452225e+02 
       3.181667793367e-01       8.561470008582e+02 
       3.289091877084e-01       8.061887454847e+02 
       3.400460298905e-01       7.523920773917e+02 
       3.515999235695e-01       6.989238667913e+02 
       3.635962710278e-01       6.510664549766e+02 
       3.760637505499e-01       6.101250971418e+02 
       3.890349143014e-01       5.721325938349e+02 
       4.025469215929e-01       5.337840268813e+02 
       4.166424455447e-01       4.956312435208e+02 
       4.313708034899e-01       4.604702530779e+02 
       4.467893781976e-01       4.287791639128e+02 
       4.629654198623e-01       3.987735224603e+02 
       4.799783500912e-01       3.692421327255e+02 
       4.979227318246e-01       3.412408962762e+02 
       5.169121269689e-01       3.154848374242e+02 
       5.370841403262e-01       2.908356428122e+02 
       5.586070463286e-01       2.671070109724e+02 
       5.816885093582e-01       2.448103500770e+02 
       6.065870143577e-01       2.235673628805e+02 
       6.336266466978e-01       2.032102319382e+02 
       6.632156057925e-01       1.838787694629e+02 
       6.958678637575e-01       1.653544288029e+02 
       7.322247983784e-01       1.476953290450e+02 
       7.730680193171e-01       1.308338428715e+02 
       8.193049551574e-01       1.148315739783e+02 
       8.718988013754e-01       9.976282975065e+01 
       9.317218028590e-01       8.577818544563e+01 
       9.993660906273e-01       7.305496338969e+01 
       1.075037109879e+00       6.173622048613e+01 
       1.158653485387e+00       5.187945976524e+01 
       1.250099156961e+00       4.344031356692e+01 
       1.349432400897e+00       3.628947970500e+01 
       1.456947456991e+00       3.026818387905e+01 
       1.573135110893e+00       2.521467795529e+01 
       1.698621895119e+00       2.098215315104e+01 
       1.834127512423e+00       1.744243646192e+01 
       1.980444933977e+00       1.448570855518e+01 
       2.138435191130e+00       1.201903815291e+01 
       2.309029198543e+00       9.963179305538e+00 
       2.493232376993e+00       8.251880866279e+00 
       2.692130394536e+00       6.828653573755e+00 
       2.906895533764e+00       5.646317170375e+00 
       3.138793596840e+00       4.664936197321e+00 
       3.389191365541e+00       3.851171470952e+00 
       3.659564656886e+00       3.176973923555e+00 
       3.951507021438e+00       2.618906925100e+00 
       4.266739135513e+00       2.157376698019e+00 
       4.607118942658e+00       1.775951224662e+00 
       4.974652604172e+00       1.460987545509e+00 
       5.371506323193e+00       1.201146913205e+00 
       5.800019112071e+00       9.868889694589e-01 
       6.262716578240e+00       8.103629427406e-01 
       6.762325809881e+00       6.650139725764e-01 
       7.301791449077e+00       5.454301890828e-01 
       7.884293047211e+00       4.471005831231e-01 
       8.513263804891e+00       3.663015010787e-01 
       9.192410806865e+00       2.999426115053e-01 
       9.925736871166e+00       2.454828901873e-01 
       1.071756414128e+01       2.008086209808e-01 
       1.157255956041e+01       1.641852787535e-01 
       1.249576237789e+01       1.341773615929e-01 
       1.349261385000e+01       1.096046722938e-01 
       1.456898931011e+01       8.948897618689e-02 
       1.573123279727e+01       7.303429736150e-02 
       1.698619444729e+01       5.957889297317e-02 
       1.834127086665e+01       4.858151720033e-02 
       1.980444872733e+01       3.959743316338e-02 
       2.138435183937e+01       3.226149785522e-02 
       2.309029197863e+01       2.627383605428e-02 
       2.493232376942e+01       2.138877425826e-02 
       2.692130394533e+01       1.740493826147e-02 
       2.906895533764e+01       1.415759791088e-02 
       3.138793596840e+01       1.151144512310e-02 
       3.389191365541e+01       9.356184732929e-03 
       3.659564656886e+01       7.601366106439e-03 
       3.951507021438e+01       6.173169342313e-03 
       4.266739135513e+01       5.011212938504e-03 
       4.607118942658e+01       4.066173710187e-03 
       4.974652604172e+01       3.298045831254e-03 
       5.371506323193e+01       2.673738479980e-03 
       5.800019112071e+01       2.166625883588e-03 
       6.262716578240e+01       1.754693233859e-03 
       6.762325809881e+01       1.420466972127e-03 
