# Matter power spectrum P(k) at redshift z=0
# for k=1.04775e-05 to 66.1767 h/Mpc,
# number of wavenumbers equal to 130
#    1:k (h/Mpc)              2:P (Mpc/h)^3        
       1.047750691046e-05       5.020964811308e+01 
       1.319039970183e-05       6.270562594768e+01 
       1.660572937635e-05       7.831147247912e+01 
       2.090537469327e-05       9.780108069295e+01 
       2.631830744443e-05       1.221408203809e+02 
       3.313278603720e-05       1.525374501932e+02 
       4.171170630578e-05       1.904975994010e+02 
       5.251192703764e-05       2.379022224249e+02 
       6.610859936996e-05       2.970989227881e+02 
       8.322579568497e-05       3.710167318945e+02 
       1.047750691046e-04       4.633080766742e+02 
       1.319039970183e-04       5.785234129330e+02 
       1.660572937635e-04       7.223242666092e+02 
       2.090537469327e-04       9.017396271824e+02 
       2.631830744443e-04       1.125468123750e+03 
       3.313278603720e-04       1.404223053681e+03 
       4.171170630578e-04       1.751108028790e+03 
       5.251192703764e-04       2.181998448133e+03 
       6.610859936996e-04       2.715889983592e+03 
       8.322579568497e-04       3.375152337133e+03 
       1.047750691046e-03       4.185552174307e+03 
       1.319039970183e-03       5.175742742518e+03 
       1.660572937635e-03       6.376123051777e+03 
       2.090537469327e-03       7.815671862219e+03 
       2.631830744443e-03       9.517783069112e+03 
       3.313278603720e-03       1.149357460344e+04 
       4.171170630578e-03       1.373266013163e+04 
       5.251192703764e-03       1.619063614555e+04 
       6.610859936996e-03       1.877460422703e+04 
       8.322579568497e-03       2.132607231916e+04 
       1.047750691046e-02       2.360548765785e+04 
       1.319039970183e-02       2.528218848958e+04 
       1.660572937633e-02       2.595027593314e+04 
       2.090537453514e-02       2.520933476068e+04 
       2.631818545635e-02       2.287032342880e+04 
       3.311571692125e-02       1.928626383146e+04 
       4.113809243311e-02       1.568425098346e+04 
       4.792590854610e-02       1.361065028175e+04 
       5.284436902701e-02       1.259130942606e+04 
       5.689644391095e-02       1.195555837104e+04 
       6.051252627066e-02       1.147549964454e+04 
       6.388413457411e-02       1.105589760170e+04 
       6.711249296401e-02       1.064899183516e+04 
       7.025823437965e-02       1.022924708305e+04 
       7.336115587705e-02       9.784498483767e+03 
       7.644928796912e-02       9.311683854683e+03 
       7.954353299775e-02       8.814533981804e+03 
       8.266024078725e-02       8.302141086328e+03 
       8.581273398637e-02       7.786942015563e+03 
       8.901225918437e-02       7.283159685685e+03 
       9.226860540985e-02       6.805163379084e+03 
       9.559052048996e-02       6.365635610411e+03 
       9.898599946599e-02       5.974403227273e+03 
       1.024624891378e-01       5.637321057271e+03 
       1.060270359164e-01       5.355776619082e+03 
       1.096863943056e-01       5.126222105517e+03 
       1.134471073830e-01       4.940470263356e+03 
       1.173155669539e-01       4.786163958373e+03 
       1.212980586983e-01       4.647945039004e+03 
       1.254007961065e-01       4.509134576343e+03 
       1.296299459934e-01       4.354543835797e+03 
       1.339916477160e-01       4.173218369163e+03 
       1.384920277736e-01       3.961163205651e+03 
       1.431372111762e-01       3.722689045353e+03 
       1.479333307714e-01       3.469528761901e+03 
       1.528865355934e-01       3.218339024189e+03 
       1.580029992204e-01       2.986295198233e+03 
       1.632889290723e-01       2.786965993247e+03 
       1.687505775527e-01       2.626831671057e+03 
       1.743942559171e-01       2.503751016290e+03 
       1.802263517371e-01       2.407341856029e+03 
       1.862533508214e-01       2.322253988093e+03 
       1.924818644494e-01       2.231555395934e+03 
       1.989186627765e-01       2.122192651977e+03 
       2.055707152847e-01       1.992023162732e+03 
       2.124452391818e-01       1.850319741368e+03 
       2.195497567139e-01       1.712180992775e+03 
       2.268921624510e-01       1.590987671954e+03 
       2.344808017550e-01       1.493665833609e+03 
       2.423245618548e-01       1.418310352019e+03 
       2.504329772620e-01       1.354467200446e+03 
       2.588163516754e-01       1.288936059695e+03 
       2.674858990930e-01       1.213940436766e+03 
       2.764539076010e-01       1.130692706432e+03 
       2.857339303080e-01       1.048099507260e+03 
       2.953410092148e-01       9.761792265022e+02 
       3.052919395542e-01       9.178104267246e+02 
       3.156055844677e-01       8.678967532456e+02 
       3.263032530092e-01       8.185253136083e+02 
       3.374091587054e-01       7.651495364901e+02 
       3.489509817175e-01       7.106715184937e+02 
       3.609605657343e-01       6.607873984058e+02 
       3.734747921333e-01       6.180854904595e+02 
       3.865366902904e-01       5.793104148212e+02 
       4.001968667448e-01       5.403894583191e+02 
       4.145153713076e-01       5.011507854944e+02 
       4.295641718077e-01       4.644997264057e+02 
       4.454304922144e-01       4.314089786600e+02 
       4.622214006969e-01       4.001130713343e+02 
       4.800702491654e-01       3.690895185940e+02 
       4.991459272112e-01       3.394762345609e+02 
       5.196665217302e-01       3.119853680108e+02 
       5.419201087032e-01       2.852473475521e+02 
       5.662975451962e-01       2.593302009199e+02 
       5.933463737275e-01       2.345481484100e+02 
       6.238638458458e-01       2.102305866654e+02 
       6.590669257916e-01       1.864326148984e+02 
       7.009246080454e-01       1.627252835971e+02 
       7.528593308799e-01       1.388182617246e+02 
       8.213469537518e-01       1.141882740587e+02 
       9.196980813302e-01       8.835963203999e+01 
       1.075112183810e+00       6.172612061887e+01 
       1.322697471132e+00       3.804256244033e+01 
       1.662328205042e+00       2.209791289943e+01 
       2.092692408506e+00       1.266911063020e+01 
       2.634543445090e+00       7.203308328389e+00 
       3.316693691389e+00       4.065123737500e+00 
       4.175469971226e+00       2.278604555183e+00 
       5.256605252960e+00       1.269350598348e+00 
       6.617673932723e+00       7.031380734592e-01 
       8.331157880872e+00       3.874734959972e-01 
       1.048830636590e+01       2.125092453857e-01 
       1.320399541071e+01       1.160360680615e-01 
       1.662284535976e+01       6.309840000526e-02 
       2.092692243973e+01       3.417914237614e-02 
       2.634543445002e+01       1.844584038468e-02 
       3.316693691389e+01       9.918933729125e-03 
       4.175469971226e+01       5.314355756786e-03 
       5.256605252960e+01       2.836475597828e-03 
       6.617673932723e+01       1.507497502194e-03 
