# Matter power spectrum P(k) at redshift z=0
# for k=1.04775e-05 to 66.1767 h/Mpc,
# number of wavenumbers equal to 130
#    1:k (h/Mpc)              2:P (Mpc/h)^3        
       1.047750691046e-05       5.020964811311e+01 
       1.319039970183e-05       6.270562594774e+01 
       1.660572937635e-05       7.831147247912e+01 
       2.090537469327e-05       9.780108069296e+01 
       2.631830744443e-05       1.221408203809e+02 
       3.313278603720e-05       1.525374501932e+02 
       4.171170630578e-05       1.904975994010e+02 
       5.251192703764e-05       2.379022224249e+02 
       6.610859936996e-05       2.970989227882e+02 
       8.322579568497e-05       3.710167318946e+02 
       1.047750691046e-04       4.633080766742e+02 
       1.319039970183e-04       5.785234129335e+02 
       1.660572937635e-04       7.223242666091e+02 
       2.090537469327e-04       9.017396271823e+02 
       2.631830744443e-04       1.125468123749e+03 
       3.313278603720e-04       1.404223053681e+03 
       4.171170630578e-04       1.751108028789e+03 
       5.251192703764e-04       2.181998448131e+03 
       6.610859936996e-04       2.715889983588e+03 
       8.322579568497e-04       3.375152337126e+03 
       1.047750691046e-03       4.185552174279e+03 
       1.319039970183e-03       5.175742744499e+03 
       1.660572937635e-03       6.376123051703e+03 
       2.090537469327e-03       7.815671868054e+03 
       2.631830744443e-03       9.517783068832e+03 
       3.313278603720e-03       1.149357460289e+04 
       4.171170630578e-03       1.373266013061e+04 
       5.251192703764e-03       1.619063584189e+04 
       6.610859936996e-03       1.877460423054e+04 
       8.322579568497e-03       2.132611379406e+04 
       1.047750691046e-02       2.360548699608e+04 
       1.319039970183e-02       2.528219647031e+04 
       1.660572937633e-02       2.595032695625e+04 
       2.090537453514e-02       2.520939038222e+04 
       2.631818545635e-02       2.287027433225e+04 
       3.311571692125e-02       1.928619286440e+04 
       4.113809243311e-02       1.568413845908e+04 
       4.792590854610e-02       1.361062726224e+04 
       5.284436902701e-02       1.259130460090e+04 
       5.689644391095e-02       1.195549652060e+04 
       6.051252627066e-02       1.147548202886e+04 
       6.388413457411e-02       1.105568508061e+04 
       6.711249296401e-02       1.064887671459e+04 
       7.025823437965e-02       1.022929306278e+04 
       7.336115587705e-02       9.784569767756e+03 
       7.644928796912e-02       9.311752145704e+03 
       7.954353299775e-02       8.814560208133e+03 
       8.266024078725e-02       8.302177891984e+03 
       8.581273398637e-02       7.786973646172e+03 
       8.901225918437e-02       7.283187478426e+03 
       9.226860540985e-02       6.805227175408e+03 
       9.559052048996e-02       6.365619932514e+03 
       9.898599946599e-02       5.974389444568e+03 
       1.024624891378e-01       5.637325491339e+03 
       1.060270359164e-01       5.355791522598e+03 
       1.096863943056e-01       5.126233856811e+03 
       1.134471073830e-01       4.940471436808e+03 
       1.173155669539e-01       4.786156944675e+03 
       1.212980586983e-01       4.647927683226e+03 
       1.254007961065e-01       4.509053608632e+03 
       1.296299459934e-01       4.354556684447e+03 
       1.339916477160e-01       4.173144589522e+03 
       1.384920277736e-01       3.961179378805e+03 
       1.431372111762e-01       3.722588631764e+03 
       1.479333307714e-01       3.469550508419e+03 
       1.528865355934e-01       3.218317603953e+03 
       1.580029992204e-01       2.986240666925e+03 
       1.632889290723e-01       2.786943495754e+03 
       1.687505775527e-01       2.626810015259e+03 
       1.743942559171e-01       2.503754443898e+03 
       1.802263517371e-01       2.407303341803e+03 
       1.862533508214e-01       2.322255174092e+03 
       1.924818644494e-01       2.231566157807e+03 
       1.989186627765e-01       2.122206648569e+03 
       2.055707152847e-01       1.992038096005e+03 
       2.124452391818e-01       1.850302570773e+03 
       2.195497567139e-01       1.712155928490e+03 
       2.268921624510e-01       1.590967458460e+03 
       2.344808017550e-01       1.493651242951e+03 
       2.423245618548e-01       1.418300298520e+03 
       2.504329772620e-01       1.354443583088e+03 
       2.588163516754e-01       1.288930401913e+03 
       2.674858990930e-01       1.213903338227e+03 
       2.764539076010e-01       1.130675550563e+03 
       2.857339303080e-01       1.048086640449e+03 
       2.953410092148e-01       9.761686237247e+02 
       3.052919395542e-01       9.177990018986e+02 
       3.156055844677e-01       8.678853803118e+02 
       3.263032530092e-01       8.185185684097e+02 
       3.374091587054e-01       7.651435242013e+02 
       3.489509817175e-01       7.106558692220e+02 
       3.609605657343e-01       6.607730642806e+02 
       3.734747921333e-01       6.180798436303e+02 
       3.865366902904e-01       5.792982944744e+02 
       4.001968667448e-01       5.403786696799e+02 
       4.145153713076e-01       5.011377710168e+02 
       4.295641718077e-01       4.644899409344e+02 
       4.454304922144e-01       4.313963608290e+02 
       4.622214006969e-01       4.001033807642e+02 
       4.800702491654e-01       3.690783029126e+02 
       4.991459272112e-01       3.394649320633e+02 
       5.196665217302e-01       3.119740052769e+02 
       5.419201087032e-01       2.852356841906e+02 
       5.662975451962e-01       2.593200936964e+02 
       5.933463737275e-01       2.345375542946e+02 
       6.238638458458e-01       2.102218184510e+02 
       6.590669257916e-01       1.864249545197e+02 
       7.009246080454e-01       1.627157331961e+02 
       7.528593308799e-01       1.388086110605e+02 
       8.213469537518e-01       1.141787642647e+02 
       9.196980813302e-01       8.834826195585e+01 
       1.075112183810e+00       6.171333138705e+01 
       1.322697471132e+00       3.802759725848e+01 
       1.662328205042e+00       2.207903552304e+01 
       2.092692408506e+00       1.264523077909e+01 
       2.634543445090e+00       7.173066736728e+00 
       3.316693691389e+00       4.026851390097e+00 
       4.175469971226e+00       2.230541982502e+00 
       5.256605252960e+00       1.209857795333e+00 
       6.617673932723e+00       6.313656691972e-01 
       8.331157880872e+00       3.046219035749e-01 
       1.048830636590e+01       1.238164732852e-01 
       1.320399541071e+01       3.276868424784e-02 
       1.662284535976e+01       1.311880055922e-03 
       2.092692243973e+01       5.004068105066e-03 
       2.634543445002e+01       1.311592010755e-02 
       3.316693691389e+01       6.080222235642e-03 
       4.175469971226e+01       1.536627340775e-05 
       5.256605252960e+01       1.535081278958e-03 
       6.617673932723e+01       1.526390521886e-07 
