# Matter power spectrum P(k) at redshift z=99
# for k=1.04775e-05 to 66.1767 h/Mpc,
# number of wavenumbers equal to 130
#    1:k (h/Mpc)              2:P (Mpc/h)^3        
       1.047750691046e-05       7.261927681557e-03 
       1.319039970183e-05       9.069258202717e-03 
       1.660572937635e-05       1.132639106834e-02 
       2.090537469327e-05       1.414527123535e-02 
       2.631830744443e-05       1.766569584227e-02 
       3.313278603720e-05       2.206225516154e-02 
       4.171170630578e-05       2.755297766540e-02 
       5.251192703764e-05       3.441013523277e-02 
       6.610859936996e-05       4.297372173188e-02 
       8.322579568497e-05       5.366826853456e-02 
       1.047750691046e-04       6.702379873413e-02 
       1.319039970183e-04       8.370193442082e-02 
       1.660572937635e-04       1.045283355483e-01 
       2.090537469327e-04       1.305329134227e-01 
       2.631830744443e-04       1.629994506757e-01 
       3.313278603720e-04       2.035264004787e-01 
       4.171170630578e-04       2.541004744468e-01 
       5.251192703764e-04       3.171839528825e-01 
       6.610859936996e-04       3.958147256823e-01 
       8.322579568497e-04       4.937136006617e-01 
       1.047750691046e-03       6.153841636360e-01 
       1.319039970183e-03       7.661720592568e-01 
       1.660572937635e-03       9.522588016267e-01 
       2.090537469327e-03       1.180312991564e+00 
       2.631830744443e-03       1.456802684308e+00 
       3.313278603720e-03       1.786503853153e+00 
       4.171170630578e-03       2.169896192904e+00 
       5.251192703764e-03       2.599430626714e+00 
       6.610859936996e-03       3.055668703720e+00 
       8.322579568497e-03       3.505725583148e+00 
       1.047750691046e-02       3.905491041443e+00 
       1.319039970183e-02       4.200915265521e+00 
       1.660572937633e-02       4.325061716545e+00 
       2.090537453514e-02       4.210203354181e+00 
       2.631818545635e-02       3.825151214978e+00 
       3.311571692125e-02       3.229059938746e+00 
       4.113809243311e-02       2.627726474196e+00 
       4.792590854610e-02       2.280792406109e+00 
       5.284436902701e-02       2.110080990887e+00 
       5.689644391095e-02       2.003533780906e+00 
       6.051252627066e-02       1.923057517892e+00 
       6.388413457411e-02       1.852734075854e+00 
       6.711249296401e-02       1.784562789315e+00 
       7.025823437965e-02       1.714275323624e+00 
       7.336115587705e-02       1.639811599336e+00 
       7.644928796912e-02       1.560661095723e+00 
       7.954353299775e-02       1.477457051234e+00 
       8.266024078725e-02       1.391695769204e+00 
       8.581273398637e-02       1.305459466180e+00 
       8.901225918437e-02       1.221122749003e+00 
       9.226860540985e-02       1.141076894229e+00 
       9.559052048996e-02       1.067449879111e+00 
       9.898599946599e-02       1.001883620672e+00 
       1.024624891378e-01       9.453774269370e-01 
       1.060270359164e-01       8.981483890713e-01 
       1.096863943056e-01       8.596100225873e-01 
       1.134471073830e-01       8.284033374653e-01 
       1.173155669539e-01       8.024630067629e-01 
       1.212980586983e-01       7.792254951515e-01 
       1.254007961065e-01       7.559145786611e-01 
       1.296299459934e-01       7.299783933069e-01 
       1.339916477160e-01       6.995917050795e-01 
       1.384920277736e-01       6.640772981211e-01 
       1.431372111762e-01       6.241443963931e-01 
       1.479333307714e-01       5.817611963276e-01 
       1.528865355934e-01       5.396873190440e-01 
       1.580029992204e-01       5.008103088016e-01 
       1.632889290723e-01       4.673952325462e-01 
       1.687505775527e-01       4.405311464980e-01 
       1.743942559171e-01       4.198612560065e-01 
       1.802263517371e-01       4.036557809567e-01 
       1.862533508214e-01       3.893581299822e-01 
       1.924818644494e-01       3.741346656718e-01 
       1.989186627765e-01       3.558023196953e-01 
       2.055707152847e-01       3.339969175901e-01 
       2.124452391818e-01       3.102606469883e-01 
       2.195497567139e-01       2.871174393572e-01 
       2.268921624510e-01       2.668029536229e-01 
       2.344808017550e-01       2.504775339811e-01 
       2.423245618548e-01       2.378274713549e-01 
       2.504329772620e-01       2.271058925301e-01 
       2.588163516754e-01       2.161132173366e-01 
       2.674858990930e-01       2.035405391508e-01 
       2.764539076010e-01       1.895908179392e-01 
       2.857339303080e-01       1.757501031427e-01 
       2.953410092148e-01       1.636918257056e-01 
       3.052919395542e-01       1.538987676850e-01 
       3.156055844677e-01       1.455233812984e-01 
       3.263032530092e-01       1.372423454025e-01 
       3.374091587054e-01       1.282936882099e-01 
       3.489509817175e-01       1.191632708161e-01 
       3.609605657343e-01       1.107987542780e-01 
       3.734747921333e-01       1.036364816369e-01 
       3.865366902904e-01       9.713207008700e-02 
       4.001968667448e-01       9.060598919274e-02 
       4.145153713076e-01       8.402760775359e-02 
       4.295641718077e-01       7.788137609546e-02 
       4.454304922144e-01       7.233165732891e-02 
       4.622214006969e-01       6.708312089989e-02 
       4.800702491654e-01       6.188096734435e-02 
       4.991459272112e-01       5.691515989274e-02 
       5.196665217302e-01       5.230472535801e-02 
       5.419201087032e-01       4.782067136215e-02 
       5.662975451962e-01       4.347442868960e-02 
       5.933463737275e-01       3.931817594129e-02 
       6.238638458458e-01       3.524000717957e-02 
       6.590669257916e-01       3.124881318310e-02 
       7.009246080454e-01       2.727254594089e-02 
       7.528593308799e-01       2.326271233942e-02 
       8.213469537518e-01       1.913135256897e-02 
       9.196980813302e-01       1.479844458943e-02 
       1.075112183810e+00       1.032966848259e-02 
       1.322697471132e+00       6.353876207415e-03 
       1.662328205042e+00       3.674306458500e-03 
       2.092692408506e+00       2.085984668801e-03 
       2.634543445090e+00       1.160876734896e-03 
       3.316693691389e+00       6.251165013937e-04 
       4.175469971226e+00       3.162594119543e-04 
       5.256605252960e+00       1.405990952613e-04 
       6.617673932723e+00       4.644990607269e-05 
       8.331157880872e+00       6.180853122466e-06 
       1.048830636590e+01       8.648148465749e-07 
       1.320399541071e+01       7.935056093459e-06 
       1.662284535976e+01       6.514845697528e-06 
       2.092692243973e+01       3.750239487374e-07 
       2.634543445002e+01       6.552251845134e-07 
       3.316693691389e+01       8.258087485272e-08 
       4.175469971226e+01       3.417428287472e-08 
       5.256605252960e+01       1.171451908064e-09 
       6.617673932723e+01       4.445837536581e-11 
