# Matter power spectrum P(k) at redshift z=0
# for k=1.04775e-05 to 66.1767 h/Mpc,
# number of wavenumbers equal to 130
#    1:k (h/Mpc)              2:P (Mpc/h)^3        
       1.047750691046e-05       5.020964811314e+01 
       1.319039970183e-05       6.270562594769e+01 
       1.660572937635e-05       7.831147247912e+01 
       2.090537469327e-05       9.780108069296e+01 
       2.631830744443e-05       1.221408203809e+02 
       3.313278603720e-05       1.525374501932e+02 
       4.171170630578e-05       1.904975994010e+02 
       5.251192703764e-05       2.379022224249e+02 
       6.610859936996e-05       2.970989227881e+02 
       8.322579568497e-05       3.710167318946e+02 
       1.047750691046e-04       4.633080766742e+02 
       1.319039970183e-04       5.785234129336e+02 
       1.660572937635e-04       7.223242666092e+02 
       2.090537469327e-04       9.017396271824e+02 
       2.631830744443e-04       1.125468123750e+03 
       3.313278603720e-04       1.404223053681e+03 
       4.171170630578e-04       1.751108028790e+03 
       5.251192703764e-04       2.181998448133e+03 
       6.610859936996e-04       2.715889983592e+03 
       8.322579568497e-04       3.375152337134e+03 
       1.047750691046e-03       4.185552174306e+03 
       1.319039970183e-03       5.175742742589e+03 
       1.660572937635e-03       6.376123051776e+03 
       2.090537469327e-03       7.815671866197e+03 
       2.631830744443e-03       9.517783069112e+03 
       3.313278603720e-03       1.149357460382e+04 
       4.171170630578e-03       1.373266007769e+04 
       5.251192703764e-03       1.619063614542e+04 
       6.610859936996e-03       1.877460365458e+04 
       8.322579568497e-03       2.132607231911e+04 
       1.047750691046e-02       2.360548140301e+04 
       1.319039970183e-02       2.528218781624e+04 
       1.660572937633e-02       2.595027591804e+04 
       2.090537453514e-02       2.520939562672e+04 
       2.631818545635e-02       2.287033974813e+04 
       3.311571692125e-02       1.928621023116e+04 
       4.113809243311e-02       1.568429568703e+04 
       4.792590854610e-02       1.361062415793e+04 
       5.284436902701e-02       1.259131602374e+04 
       5.689644391095e-02       1.195554216298e+04 
       6.051252627066e-02       1.147548493186e+04 
       6.388413457411e-02       1.105589035600e+04 
       6.711249296401e-02       1.064900890561e+04 
       7.025823437965e-02       1.022929671248e+04 
       7.336115587705e-02       9.784507011672e+03 
       7.644928796912e-02       9.311644941591e+03 
       7.954353299775e-02       8.814505803238e+03 
       8.266024078725e-02       8.302128060511e+03 
       8.581273398637e-02       7.786950935069e+03 
       8.901225918437e-02       7.283185801320e+03 
       9.226860540985e-02       6.805142781947e+03 
       9.559052048996e-02       6.365602493964e+03 
       9.898599946599e-02       5.974361963642e+03 
       1.024624891378e-01       5.637308081356e+03 
       1.060270359164e-01       5.355773392046e+03 
       1.096863943056e-01       5.126231272955e+03 
       1.134471073830e-01       4.940484634426e+03 
       1.173155669539e-01       4.786159573923e+03 
       1.212980586983e-01       4.647945067556e+03 
       1.254007961065e-01       4.509146766617e+03 
       1.296299459934e-01       4.354550408142e+03 
       1.339916477160e-01       4.173222373844e+03 
       1.384920277736e-01       3.961161783017e+03 
       1.431372111762e-01       3.722686620296e+03 
       1.479333307714e-01       3.469544762083e+03 
       1.528865355934e-01       3.218330340539e+03 
       1.580029992204e-01       2.986290461305e+03 
       1.632889290723e-01       2.786965775892e+03 
       1.687505775527e-01       2.626826858484e+03 
       1.743942559171e-01       2.503759471349e+03 
       1.802263517371e-01       2.407343061911e+03 
       1.862533508214e-01       2.322253016781e+03 
       1.924818644494e-01       2.231552936916e+03 
       1.989186627765e-01       2.122184644529e+03 
       2.055707152847e-01       1.992029132770e+03 
       2.124452391818e-01       1.850322378759e+03 
       2.195497567139e-01       1.712183127075e+03 
       2.268921624510e-01       1.590990376745e+03 
       2.344808017550e-01       1.493666941201e+03 
       2.423245618548e-01       1.418307018207e+03 
       2.504329772620e-01       1.354465778035e+03 
       2.588163516754e-01       1.288932792511e+03 
       2.674858990930e-01       1.213937073280e+03 
       2.764539076010e-01       1.130688037939e+03 
       2.857339303080e-01       1.048096169062e+03 
       2.953410092148e-01       9.761829376053e+02 
       3.052919395542e-01       9.178098178155e+02 
       3.156055844677e-01       8.678997262371e+02 
       3.263032530092e-01       8.185270080013e+02 
       3.374091587054e-01       7.651431129166e+02 
       3.489509817175e-01       7.106705289540e+02 
       3.609605657343e-01       6.607849066967e+02 
       3.734747921333e-01       6.180841878759e+02 
       3.865366902904e-01       5.793092794200e+02 
       4.001968667448e-01       5.403897889911e+02 
       4.145153713076e-01       5.011499298550e+02 
       4.295641718077e-01       4.644974192809e+02 
       4.454304922144e-01       4.314068307273e+02 
       4.622214006969e-01       4.001133190583e+02 
       4.800702491654e-01       3.690888193651e+02 
       4.991459272112e-01       3.394752420469e+02 
       5.196665217302e-01       3.119850094971e+02 
       5.419201087032e-01       2.852461444781e+02 
       5.662975451962e-01       2.593304327785e+02 
       5.933463737275e-01       2.345465517084e+02 
       6.238638458458e-01       2.102302023857e+02 
       6.590669257916e-01       1.864327318253e+02 
       7.009246080454e-01       1.627243388359e+02 
       7.528593308799e-01       1.388178796989e+02 
       8.213469537518e-01       1.141877140265e+02 
       9.196980813302e-01       8.835880417680e+01 
       1.075112183810e+00       6.172616389324e+01 
       1.322697471132e+00       3.804269490425e+01 
       1.662328205042e+00       2.209780952807e+01 
       2.092692408506e+00       1.266910439206e+01 
       2.634543445090e+00       7.203265832365e+00 
       3.316693691389e+00       4.065112734706e+00 
       4.175469971226e+00       2.278606334084e+00 
       5.256605252960e+00       1.269330963818e+00 
       6.617673932723e+00       7.031344942581e-01 
       8.331157880872e+00       3.874762181322e-01 
       1.048830636590e+01       2.125073926215e-01 
       1.320399541071e+01       1.160352066905e-01 
       1.662284535976e+01       6.309686278383e-02 
       2.092692243973e+01       3.417782985970e-02 
       2.634543445002e+01       1.844427360950e-02 
       3.316693691389e+01       9.917207043216e-03 
       4.175469971226e+01       5.312631495370e-03 
       5.256605252960e+01       2.834497831739e-03 
       6.617673932723e+01       1.505266857767e-03 
