# Matter power spectrum P(k) at redshift z=99
# for k=1.04775e-05 to 66.1767 h/Mpc,
# number of wavenumbers equal to 130
#    1:k (h/Mpc)              2:P (Mpc/h)^3        
       1.047750691046e-05       7.261927680868e-03 
       1.319039970183e-05       9.069258201856e-03 
       1.660572937635e-05       1.132639106726e-02 
       2.090537469327e-05       1.414527123400e-02 
       2.631830744443e-05       1.766569584060e-02 
       3.313278603720e-05       2.206225515944e-02 
       4.171170630578e-05       2.755297766279e-02 
       5.251192703764e-05       3.441013522950e-02 
       6.610859936996e-05       4.297372172781e-02 
       8.322579568497e-05       5.366826852949e-02 
       1.047750691046e-04       6.702379872780e-02 
       1.319039970183e-04       8.370193441293e-02 
       1.660572937635e-04       1.045283355385e-01 
       2.090537469327e-04       1.305329134105e-01 
       2.631830744443e-04       1.629994506607e-01 
       3.313278603720e-04       2.035264004603e-01 
       4.171170630578e-04       2.541004744245e-01 
       5.251192703764e-04       3.171839528559e-01 
       6.610859936996e-04       3.958147256516e-01 
       8.322579568497e-04       4.937136006271e-01 
       1.047750691046e-03       6.153841636044e-01 
       1.319039970183e-03       7.661720592544e-01 
       1.660572937635e-03       9.522588016472e-01 
       2.090537469327e-03       1.180312991699e+00 
       2.631830744443e-03       1.456802684682e+00 
       3.313278603720e-03       1.786503854028e+00 
       4.171170630578e-03       2.169896193833e+00 
       5.251192703764e-03       2.599430630686e+00 
       6.610859936996e-03       3.055668703182e+00 
       8.322579568497e-03       3.505725275218e+00 
       1.047750691046e-02       3.905491063407e+00 
       1.319039970183e-02       4.200915358202e+00 
       1.660572937633e-02       4.325062474666e+00 
       2.090537453514e-02       4.210200689242e+00 
       2.631818545635e-02       3.825157118794e+00 
       3.311571692125e-02       3.229063303838e+00 
       4.113809243311e-02       2.627736828039e+00 
       4.792590854610e-02       2.280790544460e+00 
       5.284436902701e-02       2.110085934667e+00 
       5.689644391095e-02       2.003537944714e+00 
       6.051252627066e-02       1.923056620637e+00 
       6.388413457411e-02       1.852731996184e+00 
       6.711249296401e-02       1.784565134224e+00 
       7.025823437965e-02       1.714280085958e+00 
       7.336115587705e-02       1.639813427946e+00 
       7.644928796912e-02       1.560661741070e+00 
       7.954353299775e-02       1.477456939759e+00 
       8.266024078725e-02       1.391696719141e+00 
       8.581273398637e-02       1.305460940438e+00 
       8.901225918437e-02       1.221127715049e+00 
       9.226860540985e-02       1.141081471321e+00 
       9.559052048996e-02       1.067450012449e+00 
       9.898599946599e-02       1.001888866769e+00 
       1.024624891378e-01       9.453838039201e-01 
       1.060270359164e-01       8.981490896411e-01 
       1.096863943056e-01       8.596130446166e-01 
       1.134471073830e-01       8.284062658839e-01 
       1.173155669539e-01       8.024655886397e-01 
       1.212980586983e-01       7.792287615820e-01 
       1.254007961065e-01       7.559188471603e-01 
       1.296299459934e-01       7.299827253119e-01 
       1.339916477160e-01       6.995934451503e-01 
       1.384920277736e-01       6.640786537801e-01 
       1.431372111762e-01       6.241486949420e-01 
       1.479333307714e-01       5.817652358687e-01 
       1.528865355934e-01       5.396900052970e-01 
       1.580029992204e-01       5.008133162433e-01 
       1.632889290723e-01       4.673985815750e-01 
       1.687505775527e-01       4.405334805860e-01 
       1.743942559171e-01       4.198657340073e-01 
       1.802263517371e-01       4.036594876973e-01 
       1.862533508214e-01       3.893621632882e-01 
       1.924818644494e-01       3.741390586460e-01 
       1.989186627765e-01       3.558060457930e-01 
       2.055707152847e-01       3.340036994235e-01 
       2.124452391818e-01       3.102658922325e-01 
       2.195497567139e-01       2.871223515844e-01 
       2.268921624510e-01       2.668085398513e-01 
       2.344808017550e-01       2.504830635512e-01 
       2.423245618548e-01       2.378339253208e-01 
       2.504329772620e-01       2.271113561185e-01 
       2.588163516754e-01       2.161196297678e-01 
       2.674858990930e-01       2.035471531710e-01 
       2.764539076010e-01       1.895979360381e-01 
       2.857339303080e-01       1.757568905925e-01 
       2.953410092148e-01       1.636990189084e-01 
       3.052919395542e-01       1.539058851758e-01 
       3.156055844677e-01       1.455306408583e-01 
       3.263032530092e-01       1.372500761103e-01 
       3.374091587054e-01       1.283017647016e-01 
       3.489509817175e-01       1.191712984980e-01 
       3.609605657343e-01       1.108070657707e-01 
       3.734747921333e-01       1.036449417064e-01 
       3.865366902904e-01       9.714104977837e-02 
       4.001968667448e-01       9.061556436125e-02 
       4.145153713076e-01       8.403684179044e-02 
       4.295641718077e-01       7.789100838956e-02 
       4.454304922144e-01       7.234151570474e-02 
       4.622214006969e-01       6.709374292767e-02 
       4.800702491654e-01       6.189175606199e-02 
       4.991459272112e-01       5.692635961961e-02 
       5.196665217302e-01       5.231616075439e-02 
       5.419201087032e-01       4.783261069570e-02 
       5.662975451962e-01       4.348678879750e-02 
       5.933463737275e-01       3.933091481456e-02 
       6.238638458458e-01       3.525342809325e-02 
       6.590669257916e-01       3.126288486577e-02 
       7.009246080454e-01       2.728723627382e-02 
       7.528593308799e-01       2.327842391338e-02 
       8.213469537518e-01       1.914816208858e-02 
       9.196980813302e-01       1.481696814816e-02 
       1.075112183810e+00       1.035087131500e-02 
       1.322697471132e+00       6.379379687897e-03 
       1.662328205042e+00       3.705582580188e-03 
       2.092692408506e+00       2.124475072722e-03 
       2.634543445090e+00       1.207894416462e-03 
       3.316693691389e+00       6.816452644606e-04 
       4.175469971226e+00       3.820558672308e-04 
       5.256605252960e+00       2.128101623923e-04 
       6.617673932723e+00       1.178620663985e-04 
       8.331157880872e+00       6.493033255001e-05 
       1.048830636590e+01       3.559186134292e-05 
       1.320399541071e+01       1.941640823079e-05 
       1.662284535976e+01       1.054200320669e-05 
       2.092692243973e+01       5.695271934266e-06 
       2.634543445002e+01       3.059780672749e-06 
       3.316693691389e+01       1.632808522372e-06 
       4.175469971226e+01       8.635492519658e-07 
       5.256605252960e+01       4.508736822404e-07 
       6.617673932723e+01       2.308417781988e-07 
