# Matter power spectrum P(k) at redshift z=0
# for k=1.04775e-05 to 66.1767 h/Mpc,
# number of wavenumbers equal to 130
#    1:k (h/Mpc)              2:P (Mpc/h)^3        
       1.047750691046e-05       5.020964811314e+01 
       1.319039970183e-05       6.270562594780e+01 
       1.660572937635e-05       7.831147247912e+01 
       2.090537469327e-05       9.780108069295e+01 
       2.631830744443e-05       1.221408203809e+02 
       3.313278603720e-05       1.525374501932e+02 
       4.171170630578e-05       1.904975994010e+02 
       5.251192703764e-05       2.379022224249e+02 
       6.610859936996e-05       2.970989227881e+02 
       8.322579568497e-05       3.710167318946e+02 
       1.047750691046e-04       4.633080766742e+02 
       1.319039970183e-04       5.785234129340e+02 
       1.660572937635e-04       7.223242666092e+02 
       2.090537469327e-04       9.017396271824e+02 
       2.631830744443e-04       1.125468123750e+03 
       3.313278603720e-04       1.404223053681e+03 
       4.171170630578e-04       1.751108028790e+03 
       5.251192703764e-04       2.181998448133e+03 
       6.610859936996e-04       2.715889983592e+03 
       8.322579568497e-04       3.375152337134e+03 
       1.047750691046e-03       4.185552174308e+03 
       1.319039970183e-03       5.175742744059e+03 
       1.660572937635e-03       6.376123051776e+03 
       2.090537469327e-03       7.815671904544e+03 
       2.631830744443e-03       9.517783069112e+03 
       3.313278603720e-03       1.149357460341e+04 
       4.171170630578e-03       1.373266010874e+04 
       5.251192703764e-03       1.619063614560e+04 
       6.610859936996e-03       1.877460415130e+04 
       8.322579568497e-03       2.132607231798e+04 
       1.047750691046e-02       2.360549062616e+04 
       1.319039970183e-02       2.528218651470e+04 
       1.660572937633e-02       2.595027273944e+04 
       2.090537453514e-02       2.520936627246e+04 
       2.631818545635e-02       2.287034935238e+04 
       3.311571692125e-02       1.928622583720e+04 
       4.113809243311e-02       1.568424482667e+04 
       4.792590854610e-02       1.361062599139e+04 
       5.284436902701e-02       1.259128011744e+04 
       5.689644391095e-02       1.195557726781e+04 
       6.051252627066e-02       1.147546630097e+04 
       6.388413457411e-02       1.105588131496e+04 
       6.711249296401e-02       1.064900350536e+04 
       7.025823437965e-02       1.022928052190e+04 
       7.336115587705e-02       9.784534954017e+03 
       7.644928796912e-02       9.311656699014e+03 
       7.954353299775e-02       8.814529849249e+03 
       8.266024078725e-02       8.302115191072e+03 
       8.581273398637e-02       7.786948930895e+03 
       8.901225918437e-02       7.283165848687e+03 
       9.226860540985e-02       6.805162586810e+03 
       9.559052048996e-02       6.365625945396e+03 
       9.898599946599e-02       5.974399015876e+03 
       1.024624891378e-01       5.637320597339e+03 
       1.060270359164e-01       5.355803686525e+03 
       1.096863943056e-01       5.126241804572e+03 
       1.134471073830e-01       4.940485322992e+03 
       1.173155669539e-01       4.786160617685e+03 
       1.212980586983e-01       4.647938441443e+03 
       1.254007961065e-01       4.509156254353e+03 
       1.296299459934e-01       4.354568611514e+03 
       1.339916477160e-01       4.173207352461e+03 
       1.384920277736e-01       3.961165431818e+03 
       1.431372111762e-01       3.722687853544e+03 
       1.479333307714e-01       3.469549812587e+03 
       1.528865355934e-01       3.218336602270e+03 
       1.580029992204e-01       2.986287378143e+03 
       1.632889290723e-01       2.786964313697e+03 
       1.687505775527e-01       2.626827750514e+03 
       1.743942559171e-01       2.503759080548e+03 
       1.802263517371e-01       2.407341312322e+03 
       1.862533508214e-01       2.322254012864e+03 
       1.924818644494e-01       2.231556407276e+03 
       1.989186627765e-01       2.122190161145e+03 
       2.055707152847e-01       1.992027890025e+03 
       2.124452391818e-01       1.850324964545e+03 
       2.195497567139e-01       1.712185068696e+03 
       2.268921624510e-01       1.590988748996e+03 
       2.344808017550e-01       1.493670348419e+03 
       2.423245618548e-01       1.418310906011e+03 
       2.504329772620e-01       1.354464013752e+03 
       2.588163516754e-01       1.288936491899e+03 
       2.674858990930e-01       1.213937452347e+03 
       2.764539076010e-01       1.130692908089e+03 
       2.857339303080e-01       1.048103309807e+03 
       2.953410092148e-01       9.761841284696e+02 
       3.052919395542e-01       9.178105611689e+02 
       3.156055844677e-01       8.678992233109e+02 
       3.263032530092e-01       8.185256367793e+02 
       3.374091587054e-01       7.651477076688e+02 
       3.489509817175e-01       7.106691857527e+02 
       3.609605657343e-01       6.607851354607e+02 
       3.734747921333e-01       6.180849302281e+02 
       3.865366902904e-01       5.793112819181e+02 
       4.001968667448e-01       5.403924355364e+02 
       4.145153713076e-01       5.011514079541e+02 
       4.295641718077e-01       4.644989004262e+02 
       4.454304922144e-01       4.314091743556e+02 
       4.622214006969e-01       4.001134506736e+02 
       4.800702491654e-01       3.690901711276e+02 
       4.991459272112e-01       3.394766394147e+02 
       5.196665217302e-01       3.119861039276e+02 
       5.419201087032e-01       2.852474292470e+02 
       5.662975451962e-01       2.593309713191e+02 
       5.933463737275e-01       2.345473481055e+02 
       6.238638458458e-01       2.102313774883e+02 
       6.590669257916e-01       1.864333823964e+02 
       7.009246080454e-01       1.627257289111e+02 
       7.528593308799e-01       1.388181204253e+02 
       8.213469537518e-01       1.141882067371e+02 
       9.196980813302e-01       8.835942477222e+01 
       1.075112183810e+00       6.172617608273e+01 
       1.322697471132e+00       3.804272815093e+01 
       1.662328205042e+00       2.209801780559e+01 
       2.092692408506e+00       1.266923573631e+01 
       2.634543445090e+00       7.203336697927e+00 
       3.316693691389e+00       4.065172516005e+00 
       4.175469971226e+00       2.278612416404e+00 
       5.256605252960e+00       1.269351148209e+00 
       6.617673932723e+00       7.031384817451e-01 
       8.331157880872e+00       3.874805466695e-01 
       1.048830636590e+01       2.125112000109e-01 
       1.320399541071e+01       1.160374102396e-01 
       1.662284535976e+01       6.309879201467e-02 
       2.092692243973e+01       3.417965010301e-02 
       2.634543445002e+01       1.844607394506e-02 
       3.316693691389e+01       9.919173028122e-03 
       4.175469971226e+01       5.314598477337e-03 
       5.256605252960e+01       2.836703622663e-03 
       6.617673932723e+01       1.507707008080e-03 
