# Matter power spectrum P(k) at redshift z=0
# for k=1.04775e-05 to 66.1767 h/Mpc,
# number of wavenumbers equal to 130
#    1:k (h/Mpc)              2:P (Mpc/h)^3        
       1.047750691046e-05       5.020964811307e+01 
       1.319039970183e-05       6.270562594775e+01 
       1.660572937635e-05       7.831147247912e+01 
       2.090537469327e-05       9.780108069297e+01 
       2.631830744443e-05       1.221408203809e+02 
       3.313278603720e-05       1.525374501932e+02 
       4.171170630578e-05       1.904975994010e+02 
       5.251192703764e-05       2.379022224249e+02 
       6.610859936996e-05       2.970989227882e+02 
       8.322579568497e-05       3.710167318946e+02 
       1.047750691046e-04       4.633080766742e+02 
       1.319039970183e-04       5.785234129332e+02 
       1.660572937635e-04       7.223242666092e+02 
       2.090537469327e-04       9.017396271824e+02 
       2.631830744443e-04       1.125468123750e+03 
       3.313278603720e-04       1.404223053681e+03 
       4.171170630578e-04       1.751108028790e+03 
       5.251192703764e-04       2.181998448133e+03 
       6.610859936996e-04       2.715889983592e+03 
       8.322579568497e-04       3.375152337133e+03 
       1.047750691046e-03       4.185552174308e+03 
       1.319039970183e-03       5.175742741330e+03 
       1.660572937635e-03       6.376123051777e+03 
       2.090537469327e-03       7.815671913766e+03 
       2.631830744443e-03       9.517783069112e+03 
       3.313278603720e-03       1.149357460346e+04 
       4.171170630578e-03       1.373266011103e+04 
       5.251192703764e-03       1.619063614556e+04 
       6.610859936996e-03       1.877460425607e+04 
       8.322579568497e-03       2.132607231931e+04 
       1.047750691046e-02       2.360547647339e+04 
       1.319039970183e-02       2.528218552671e+04 
       1.660572937633e-02       2.595026696023e+04 
       2.090537453514e-02       2.520933522860e+04 
       2.631818545635e-02       2.287038328042e+04 
       3.311571692125e-02       1.928625062648e+04 
       4.113809243311e-02       1.568430999182e+04 
       4.792590854610e-02       1.361062190883e+04 
       5.284436902701e-02       1.259132896566e+04 
       5.689644391095e-02       1.195555745515e+04 
       6.051252627066e-02       1.147549150230e+04 
       6.388413457411e-02       1.105589915171e+04 
       6.711249296401e-02       1.064896795887e+04 
       7.025823437965e-02       1.022929283818e+04 
       7.336115587705e-02       9.784528235596e+03 
       7.644928796912e-02       9.311668004616e+03 
       7.954353299775e-02       8.814544918309e+03 
       8.266024078725e-02       8.302115527378e+03 
       8.581273398637e-02       7.786959181995e+03 
       8.901225918437e-02       7.283136392696e+03 
       9.226860540985e-02       6.805153129359e+03 
       9.559052048996e-02       6.365634371169e+03 
       9.898599946599e-02       5.974407518621e+03 
       1.024624891378e-01       5.637330775833e+03 
       1.060270359164e-01       5.355771893774e+03 
       1.096863943056e-01       5.126231198698e+03 
       1.134471073830e-01       4.940481825189e+03 
       1.173155669539e-01       4.786168103629e+03 
       1.212980586983e-01       4.647933916622e+03 
       1.254007961065e-01       4.509127792861e+03 
       1.296299459934e-01       4.354541526916e+03 
       1.339916477160e-01       4.173206591325e+03 
       1.384920277736e-01       3.961170427991e+03 
       1.431372111762e-01       3.722688956711e+03 
       1.479333307714e-01       3.469529155868e+03 
       1.528865355934e-01       3.218343021900e+03 
       1.580029992204e-01       2.986298300159e+03 
       1.632889290723e-01       2.786966131762e+03 
       1.687505775527e-01       2.626826603896e+03 
       1.743942559171e-01       2.503753960141e+03 
       1.802263517371e-01       2.407341644587e+03 
       1.862533508214e-01       2.322252877135e+03 
       1.924818644494e-01       2.231556812935e+03 
       1.989186627765e-01       2.122188024447e+03 
       2.055707152847e-01       1.992019166551e+03 
       2.124452391818e-01       1.850322608631e+03 
       2.195497567139e-01       1.712183428177e+03 
       2.268921624510e-01       1.590989913911e+03 
       2.344808017550e-01       1.493665478422e+03 
       2.423245618548e-01       1.418310847970e+03 
       2.504329772620e-01       1.354465867458e+03 
       2.588163516754e-01       1.288934138683e+03 
       2.674858990930e-01       1.213935224722e+03 
       2.764539076010e-01       1.130689887923e+03 
       2.857339303080e-01       1.048101396989e+03 
       2.953410092148e-01       9.761847593583e+02 
       3.052919395542e-01       9.178092772692e+02 
       3.156055844677e-01       8.678984640325e+02 
       3.263032530092e-01       8.185252228066e+02 
       3.374091587054e-01       7.651448179321e+02 
       3.489509817175e-01       7.106723262637e+02 
       3.609605657343e-01       6.607863667492e+02 
       3.734747921333e-01       6.180864341175e+02 
       3.865366902904e-01       5.793105483871e+02 
       4.001968667448e-01       5.403896181412e+02 
       4.145153713076e-01       5.011494979756e+02 
       4.295641718077e-01       4.644993952885e+02 
       4.454304922144e-01       4.314074824523e+02 
       4.622214006969e-01       4.001134370812e+02 
       4.800702491654e-01       3.690901771160e+02 
       4.991459272112e-01       3.394755587237e+02 
       5.196665217302e-01       3.119851893171e+02 
       5.419201087032e-01       2.852469065377e+02 
       5.662975451962e-01       2.593310709384e+02 
       5.933463737275e-01       2.345479285948e+02 
       6.238638458458e-01       2.102301208821e+02 
       6.590669257916e-01       1.864333145113e+02 
       7.009246080454e-01       1.627248290268e+02 
       7.528593308799e-01       1.388177618292e+02 
       8.213469537518e-01       1.141877210406e+02 
       9.196980813302e-01       8.835849177003e+01 
       1.075112183810e+00       6.172514327235e+01 
       1.322697471132e+00       3.804173150896e+01 
       1.662328205042e+00       2.209660049656e+01 
       2.092692408506e+00       1.266746503438e+01 
       2.634543445090e+00       7.201181854326e+00 
       3.316693691389e+00       4.062524195220e+00 
       4.175469971226e+00       2.275481453728e+00 
       5.256605252960e+00       1.265647406575e+00 
       6.617673932723e+00       6.988294206236e-01 
       8.331157880872e+00       3.825324423046e-01 
       1.048830636590e+01       2.069401999616e-01 
       1.320399541071e+01       1.098999233727e-01 
       1.662284535976e+01       5.653538113082e-02 
       2.092692243973e+01       2.744150957443e-02 
       2.634543445002e+01       1.192705396522e-02 
       3.316693691389e+01       4.144713127628e-03 
       4.175469971226e+01       8.402061748428e-04 
       5.256605252960e+01       7.641159051972e-06 
       6.617673932723e+01       1.703554717333e-04 
