# Matter power spectrum P(k) at redshift z=99
# for k=1.04775e-05 to 66.1767 h/Mpc,
# number of wavenumbers equal to 130
#    1:k (h/Mpc)              2:P (Mpc/h)^3        
       1.047750691046e-05       7.261927680862e-03 
       1.319039970183e-05       9.069258201849e-03 
       1.660572937635e-05       1.132639106725e-02 
       2.090537469327e-05       1.414527123399e-02 
       2.631830744443e-05       1.766569584058e-02 
       3.313278603720e-05       2.206225515942e-02 
       4.171170630578e-05       2.755297766277e-02 
       5.251192703764e-05       3.441013522947e-02 
       6.610859936996e-05       4.297372172778e-02 
       8.322579568497e-05       5.366826852944e-02 
       1.047750691046e-04       6.702379872774e-02 
       1.319039970183e-04       8.370193441286e-02 
       1.660572937635e-04       1.045283355384e-01 
       2.090537469327e-04       1.305329134104e-01 
       2.631830744443e-04       1.629994506605e-01 
       3.313278603720e-04       2.035264004601e-01 
       4.171170630578e-04       2.541004744243e-01 
       5.251192703764e-04       3.171839528557e-01 
       6.610859936996e-04       3.958147256513e-01 
       8.322579568497e-04       4.937136006267e-01 
       1.047750691046e-03       6.153841636042e-01 
       1.319039970183e-03       7.661720592708e-01 
       1.660572937635e-03       9.522588016483e-01 
       2.090537469327e-03       1.180312991699e+00 
       2.631830744443e-03       1.456802684686e+00 
       3.313278603720e-03       1.786503854043e+00 
       4.171170630578e-03       2.169896195066e+00 
       5.251192703764e-03       2.599430630721e+00 
       6.610859936996e-03       3.055668713047e+00 
       8.322579568497e-03       3.505725129755e+00 
       1.047750691046e-02       3.905490468101e+00 
       1.319039970183e-02       4.200915400311e+00 
       1.660572937633e-02       4.325060989218e+00 
       2.090537453514e-02       4.210201203813e+00 
       2.631818545635e-02       3.825151418559e+00 
       3.311571692125e-02       3.229056433508e+00 
       4.113809243311e-02       2.627728467395e+00 
       4.792590854610e-02       2.280791833375e+00 
       5.284436902701e-02       2.110085927026e+00 
       5.689644391095e-02       2.003538393280e+00 
       6.051252627066e-02       1.923055855273e+00 
       6.388413457411e-02       1.852732666184e+00 
       6.711249296401e-02       1.784562054028e+00 
       7.025823437965e-02       1.714275550224e+00 
       7.336115587705e-02       1.639814596745e+00 
       7.644928796912e-02       1.560667528377e+00 
       7.954353299775e-02       1.477454115216e+00 
       8.266024078725e-02       1.391701398313e+00 
       8.581273398637e-02       1.305462820447e+00 
       8.901225918437e-02       1.221127178878e+00 
       9.226860540985e-02       1.141080160552e+00 
       9.559052048996e-02       1.067451669945e+00 
       9.898599946599e-02       1.001891149905e+00 
       1.024624891378e-01       9.453827460433e-01 
       1.060270359164e-01       8.981482719629e-01 
       1.096863943056e-01       8.596116728855e-01 
       1.134471073830e-01       8.284060373150e-01 
       1.173155669539e-01       8.024668215560e-01 
       1.212980586983e-01       7.792286754492e-01 
       1.254007961065e-01       7.559175001889e-01 
       1.296299459934e-01       7.299833272762e-01 
       1.339916477160e-01       6.995928513069e-01 
       1.384920277736e-01       6.640795857496e-01 
       1.431372111762e-01       6.241443040801e-01 
       1.479333307714e-01       5.817651813497e-01 
       1.528865355934e-01       5.396933090708e-01 
       1.580029992204e-01       5.008133274077e-01 
       1.632889290723e-01       4.673969556462e-01 
       1.687505775527e-01       4.405342194983e-01 
       1.743942559171e-01       4.198662895425e-01 
       1.802263517371e-01       4.036595496316e-01 
       1.862533508214e-01       3.893592156926e-01 
       1.924818644494e-01       3.741348924320e-01 
       1.989186627765e-01       3.558025974390e-01 
       2.055707152847e-01       3.340001107005e-01 
       2.124452391818e-01       3.102655398699e-01 
       2.195497567139e-01       2.871224664453e-01 
       2.268921624510e-01       2.668079021450e-01 
       2.344808017550e-01       2.504830706147e-01 
       2.423245618548e-01       2.378330673473e-01 
       2.504329772620e-01       2.271120092329e-01 
       2.588163516754e-01       2.161179629372e-01 
       2.674858990930e-01       2.035453069366e-01 
       2.764539076010e-01       1.895976418558e-01 
       2.857339303080e-01       1.757567406329e-01 
       2.953410092148e-01       1.636996451164e-01 
       3.052919395542e-01       1.539062102448e-01 
       3.156055844677e-01       1.455311245704e-01 
       3.263032530092e-01       1.372506395636e-01 
       3.374091587054e-01       1.283025974359e-01 
       3.489509817175e-01       1.191714399739e-01 
       3.609605657343e-01       1.108076417313e-01 
       3.734747921333e-01       1.036450754009e-01 
       3.865366902904e-01       9.714169101472e-02 
       4.001968667448e-01       9.061561917410e-02 
       4.145153713076e-01       8.403703506391e-02 
       4.295641718077e-01       7.789112925155e-02 
       4.454304922144e-01       7.234162965235e-02 
       4.622214006969e-01       6.709384461406e-02 
       4.800702491654e-01       6.189190478911e-02 
       4.991459272112e-01       5.692630004389e-02 
       5.196665217302e-01       5.231617495514e-02 
       5.419201087032e-01       4.783261842965e-02 
       5.662975451962e-01       4.348696487424e-02 
       5.933463737275e-01       3.933105699228e-02 
       6.238638458458e-01       3.525343547538e-02 
       6.590669257916e-01       3.126301327414e-02 
       7.009246080454e-01       2.728729585017e-02 
       7.528593308799e-01       2.327838413463e-02 
       8.213469537518e-01       1.914825088008e-02 
       9.196980813302e-01       1.481703983121e-02 
       1.075112183810e+00       1.035094558108e-02 
       1.322697471132e+00       6.379463189187e-03 
       1.662328205042e+00       3.705660274042e-03 
       2.092692408506e+00       2.124535764235e-03 
       2.634543445090e+00       1.207957781676e-03 
       3.316693691389e+00       6.817075218303e-04 
       4.175469971226e+00       3.821196839550e-04 
       5.256605252960e+00       2.128729327338e-04 
       6.617673932723e+00       1.179205604263e-04 
       8.331157880872e+00       6.498556368812e-05 
       1.048830636590e+01       3.564317303661e-05 
       1.320399541071e+01       1.946435350882e-05 
       1.662284535976e+01       1.058602116346e-05 
       2.092692243973e+01       5.735625464194e-06 
       2.634543445002e+01       3.096513980680e-06 
       3.316693691389e+01       1.666032311949e-06 
       4.175469971226e+01       8.933875842134e-07 
       5.256605252960e+01       4.774420616723e-07 
       6.617673932723e+01       2.542336817094e-07 
