# Matter power spectrum P(k) at redshift z=0
# for k=1.04775e-05 to 66.1767 h/Mpc,
# number of wavenumbers equal to 130
#    1:k (h/Mpc)              2:P (Mpc/h)^3        
       1.047750691046e-05       5.020964811314e+01 
       1.319039970183e-05       6.270562594783e+01 
       1.660572937635e-05       7.831147247912e+01 
       2.090537469327e-05       9.780108069295e+01 
       2.631830744443e-05       1.221408203809e+02 
       3.313278603720e-05       1.525374501932e+02 
       4.171170630578e-05       1.904975994009e+02 
       5.251192703764e-05       2.379022224249e+02 
       6.610859936996e-05       2.970989227882e+02 
       8.322579568497e-05       3.710167318946e+02 
       1.047750691046e-04       4.633080766742e+02 
       1.319039970183e-04       5.785234129339e+02 
       1.660572937635e-04       7.223242666092e+02 
       2.090537469327e-04       9.017396271824e+02 
       2.631830744443e-04       1.125468123750e+03 
       3.313278603720e-04       1.404223053681e+03 
       4.171170630578e-04       1.751108028790e+03 
       5.251192703764e-04       2.181998448133e+03 
       6.610859936996e-04       2.715889983592e+03 
       8.322579568497e-04       3.375152337134e+03 
       1.047750691046e-03       4.185552174308e+03 
       1.319039970183e-03       5.175742740904e+03 
       1.660572937635e-03       6.376123051778e+03 
       2.090537469327e-03       7.815671866240e+03 
       2.631830744443e-03       9.517783069112e+03 
       3.313278603720e-03       1.149357460343e+04 
       4.171170630578e-03       1.373266013921e+04 
       5.251192703764e-03       1.619063614559e+04 
       6.610859936996e-03       1.877460424921e+04 
       8.322579568497e-03       2.132607231706e+04 
       1.047750691046e-02       2.360548674483e+04 
       1.319039970183e-02       2.528218714578e+04 
       1.660572937633e-02       2.595025747662e+04 
       2.090537453514e-02       2.520937220385e+04 
       2.631818545635e-02       2.287033082907e+04 
       3.311571692125e-02       1.928623728111e+04 
       4.113809243311e-02       1.568426549049e+04 
       4.792590854610e-02       1.361063339511e+04 
       5.284436902701e-02       1.259129369579e+04 
       5.689644391095e-02       1.195554821208e+04 
       6.051252627066e-02       1.147549473865e+04 
       6.388413457411e-02       1.105590735557e+04 
       6.711249296401e-02       1.064900637428e+04 
       7.025823437965e-02       1.022931063467e+04 
       7.336115587705e-02       9.784504521391e+03 
       7.644928796912e-02       9.311667289092e+03 
       7.954353299775e-02       8.814548469562e+03 
       8.266024078725e-02       8.302141660133e+03 
       8.581273398637e-02       7.786949775666e+03 
       8.901225918437e-02       7.283177668475e+03 
       9.226860540985e-02       6.805153879639e+03 
       9.559052048996e-02       6.365625757823e+03 
       9.898599946599e-02       5.974403583260e+03 
       1.024624891378e-01       5.637315385206e+03 
       1.060270359164e-01       5.355757082766e+03 
       1.096863943056e-01       5.126234913758e+03 
       1.134471073830e-01       4.940470711445e+03 
       1.173155669539e-01       4.786160925850e+03 
       1.212980586983e-01       4.647936980543e+03 
       1.254007961065e-01       4.509152097776e+03 
       1.296299459934e-01       4.354550483020e+03 
       1.339916477160e-01       4.173213048749e+03 
       1.384920277736e-01       3.961165318002e+03 
       1.431372111762e-01       3.722691380801e+03 
       1.479333307714e-01       3.469553028884e+03 
       1.528865355934e-01       3.218342153290e+03 
       1.580029992204e-01       2.986298292246e+03 
       1.632889290723e-01       2.786963588587e+03 
       1.687505775527e-01       2.626827539255e+03 
       1.743942559171e-01       2.503757729947e+03 
       1.802263517371e-01       2.407340183028e+03 
       1.862533508214e-01       2.322249532899e+03 
       1.924818644494e-01       2.231551365768e+03 
       1.989186627765e-01       2.122189769097e+03 
       2.055707152847e-01       1.992029545555e+03 
       2.124452391818e-01       1.850323343498e+03 
       2.195497567139e-01       1.712182455309e+03 
       2.268921624510e-01       1.590989550794e+03 
       2.344808017550e-01       1.493665495677e+03 
       2.423245618548e-01       1.418309247956e+03 
       2.504329772620e-01       1.354466636828e+03 
       2.588163516754e-01       1.288934964404e+03 
       2.674858990930e-01       1.213934552405e+03 
       2.764539076010e-01       1.130692121316e+03 
       2.857339303080e-01       1.048100053499e+03 
       2.953410092148e-01       9.761838963442e+02 
       3.052919395542e-01       9.178082039445e+02 
       3.156055844677e-01       8.678982226109e+02 
       3.263032530092e-01       8.185268533317e+02 
       3.374091587054e-01       7.651455100270e+02 
       3.489509817175e-01       7.106712440345e+02 
       3.609605657343e-01       6.607857823471e+02 
       3.734747921333e-01       6.180859018698e+02 
       3.865366902904e-01       5.793117154244e+02 
       4.001968667448e-01       5.403908223732e+02 
       4.145153713076e-01       5.011503612107e+02 
       4.295641718077e-01       4.644985902236e+02 
       4.454304922144e-01       4.314068542833e+02 
       4.622214006969e-01       4.001138915010e+02 
       4.800702491654e-01       3.690886985495e+02 
       4.991459272112e-01       3.394780076772e+02 
       5.196665217302e-01       3.119851332182e+02 
       5.419201087032e-01       2.852462598301e+02 
       5.662975451962e-01       2.593317981384e+02 
       5.933463737275e-01       2.345477354587e+02 
       6.238638458458e-01       2.102301533048e+02 
       6.590669257916e-01       1.864328333203e+02 
       7.009246080454e-01       1.627254582444e+02 
       7.528593308799e-01       1.388182099639e+02 
       8.213469537518e-01       1.141881478775e+02 
       9.196980813302e-01       8.835948566911e+01 
       1.075112183810e+00       6.172598783062e+01 
       1.322697471132e+00       3.804271615895e+01 
       1.662328205042e+00       2.209792642908e+01 
       2.092692408506e+00       1.266921539214e+01 
       2.634543445090e+00       7.203329423282e+00 
       3.316693691389e+00       4.065152461527e+00 
       4.175469971226e+00       2.278618582902e+00 
       5.256605252960e+00       1.269348017490e+00 
       6.617673932723e+00       7.031326902964e-01 
       8.331157880872e+00       3.874756563414e-01 
       1.048830636590e+01       2.125096642473e-01 
       1.320399541071e+01       1.160352727313e-01 
       1.662284535976e+01       6.309846577251e-02 
       2.092692243973e+01       3.417944836479e-02 
       2.634543445002e+01       1.844595900003e-02 
       3.316693691389e+01       9.919186594517e-03 
       4.175469971226e+01       5.314579673509e-03 
       5.256605252960e+01       2.836671099317e-03 
       6.617673932723e+01       1.507678614749e-03 
