# Matter power spectrum P(k) at redshift z=0
# for k=1.04775e-05 to 66.1767 h/Mpc,
# number of wavenumbers equal to 130
#    1:k (h/Mpc)              2:P (Mpc/h)^3        
       1.047750691046e-05       5.020964811308e+01 
       1.319039970183e-05       6.270562594777e+01 
       1.660572937635e-05       7.831147247912e+01 
       2.090537469327e-05       9.780108069295e+01 
       2.631830744443e-05       1.221408203809e+02 
       3.313278603720e-05       1.525374501932e+02 
       4.171170630578e-05       1.904975994010e+02 
       5.251192703764e-05       2.379022224249e+02 
       6.610859936996e-05       2.970989227881e+02 
       8.322579568497e-05       3.710167318946e+02 
       1.047750691046e-04       4.633080766742e+02 
       1.319039970183e-04       5.785234129341e+02 
       1.660572937635e-04       7.223242666092e+02 
       2.090537469327e-04       9.017396271824e+02 
       2.631830744443e-04       1.125468123750e+03 
       3.313278603720e-04       1.404223053681e+03 
       4.171170630578e-04       1.751108028790e+03 
       5.251192703764e-04       2.181998448133e+03 
       6.610859936996e-04       2.715889983592e+03 
       8.322579568497e-04       3.375152337134e+03 
       1.047750691046e-03       4.185552174297e+03 
       1.319039970183e-03       5.175742738758e+03 
       1.660572937635e-03       6.376123051791e+03 
       2.090537469327e-03       7.815671866758e+03 
       2.631830744443e-03       9.517783069092e+03 
       3.313278603720e-03       1.149357460341e+04 
       4.171170630578e-03       1.373266009777e+04 
       5.251192703764e-03       1.619063612367e+04 
       6.610859936996e-03       1.877460422477e+04 
       8.322579568497e-03       2.132607249284e+04 
       1.047750691046e-02       2.360548594837e+04 
       1.319039970183e-02       2.528218744841e+04 
       1.660572937633e-02       2.595024815245e+04 
       2.090537453514e-02       2.520942614119e+04 
       2.631818545635e-02       2.287034288204e+04 
       3.311571692125e-02       1.928627378220e+04 
       4.113809243311e-02       1.568420295225e+04 
       4.792590854610e-02       1.361065145435e+04 
       5.284436902701e-02       1.259128900690e+04 
       5.689644391095e-02       1.195558354230e+04 
       6.051252627066e-02       1.147552789859e+04 
       6.388413457411e-02       1.105595378157e+04 
       6.711249296401e-02       1.064904719202e+04 
       7.025823437965e-02       1.022931290799e+04 
       7.336115587705e-02       9.784533616253e+03 
       7.644928796912e-02       9.311691641734e+03 
       7.954353299775e-02       8.814563911837e+03 
       8.266024078725e-02       8.302197545970e+03 
       8.581273398637e-02       7.786981441740e+03 
       8.901225918437e-02       7.283250393759e+03 
       9.226860540985e-02       6.805203988437e+03 
       9.559052048996e-02       6.365641251630e+03 
       9.898599946599e-02       5.974407873742e+03 
       1.024624891378e-01       5.637357297298e+03 
       1.060270359164e-01       5.355794477826e+03 
       1.096863943056e-01       5.126226374238e+03 
       1.134471073830e-01       4.940503024595e+03 
       1.173155669539e-01       4.786177393355e+03 
       1.212980586983e-01       4.647944762248e+03 
       1.254007961065e-01       4.509088249572e+03 
       1.296299459934e-01       4.354499927797e+03 
       1.339916477160e-01       4.173220309464e+03 
       1.384920277736e-01       3.961177234883e+03 
       1.431372111762e-01       3.722610710537e+03 
       1.479333307714e-01       3.469564104794e+03 
       1.528865355934e-01       3.218322853137e+03 
       1.580029992204e-01       2.986267586997e+03 
       1.632889290723e-01       2.786955314950e+03 
       1.687505775527e-01       2.626808873125e+03 
       1.743942559171e-01       2.503754170988e+03 
       1.802263517371e-01       2.407304241538e+03 
       1.862533508214e-01       2.322258861334e+03 
       1.924818644494e-01       2.231514786312e+03 
       1.989186627765e-01       2.122192110088e+03 
       2.055707152847e-01       1.992038926925e+03 
       2.124452391818e-01       1.850314983370e+03 
       2.195497567139e-01       1.712165003209e+03 
       2.268921624510e-01       1.590976154099e+03 
       2.344808017550e-01       1.493653854536e+03 
       2.423245618548e-01       1.418302818317e+03 
       2.504329772620e-01       1.354446045647e+03 
       2.588163516754e-01       1.288933197674e+03 
       2.674858990930e-01       1.213905028457e+03 
       2.764539076010e-01       1.130685781109e+03 
       2.857339303080e-01       1.048084418313e+03 
       2.953410092148e-01       9.761733197218e+02 
       3.052919395542e-01       9.178010184111e+02 
       3.156055844677e-01       8.678829397937e+02 
       3.263032530092e-01       8.185236940163e+02 
       3.374091587054e-01       7.651398749630e+02 
       3.489509817175e-01       7.106589662421e+02 
       3.609605657343e-01       6.607749608316e+02 
       3.734747921333e-01       6.180811681349e+02 
       3.865366902904e-01       5.793013156294e+02 
       4.001968667448e-01       5.403820752416e+02 
       4.145153713076e-01       5.011423756599e+02 
       4.295641718077e-01       4.644926345269e+02 
       4.454304922144e-01       4.314006084549e+02 
       4.622214006969e-01       4.001086784092e+02 
       4.800702491654e-01       3.690834217716e+02 
       4.991459272112e-01       3.394704856278e+02 
       5.196665217302e-01       3.119804724517e+02 
       5.419201087032e-01       2.852419025790e+02 
       5.662975451962e-01       2.593272303003e+02 
       5.933463737275e-01       2.345440678857e+02 
       6.238638458458e-01       2.102289210647e+02 
       6.590669257916e-01       1.864321474652e+02 
       7.009246080454e-01       1.627240227976e+02 
       7.528593308799e-01       1.388175003962e+02 
       8.213469537518e-01       1.141876899482e+02 
       9.196980813302e-01       8.835854155950e+01 
       1.075112183810e+00       6.172540787938e+01 
       1.322697471132e+00       3.804270141505e+01 
       1.662328205042e+00       2.209761395209e+01 
       2.092692408506e+00       1.266879837816e+01 
       2.634543445090e+00       7.202947291461e+00 
       3.316693691389e+00       4.064861513304e+00 
       4.175469971226e+00       2.278365135801e+00 
       5.256605252960e+00       1.269107187797e+00 
       6.617673932723e+00       7.028989182079e-01 
       8.331157880872e+00       3.872644716083e-01 
       1.048830636590e+01       2.123089332497e-01 
       1.320399541071e+01       1.158493019263e-01 
       1.662284535976e+01       6.292700302429e-02 
       2.092692243973e+01       3.402219916093e-02 
       2.634543445002e+01       1.830252751070e-02 
       3.316693691389e+01       9.789267850372e-03 
       4.175469971226e+01       5.197953973525e-03 
       5.256605252960e+01       2.732628400874e-03 
       6.617673932723e+01       1.415822862769e-03 
