# Matter power spectrum P(k) at redshift z=99
# for k=1.04775e-05 to 66.1767 h/Mpc,
# number of wavenumbers equal to 130
#    1:k (h/Mpc)              2:P (Mpc/h)^3        
       1.047750691046e-05       7.261927680948e-03 
       1.319039970183e-05       9.069258201956e-03 
       1.660572937635e-05       1.132639106739e-02 
       2.090537469327e-05       1.414527123416e-02 
       2.631830744443e-05       1.766569584079e-02 
       3.313278603720e-05       2.206225515969e-02 
       4.171170630578e-05       2.755297766309e-02 
       5.251192703764e-05       3.441013522988e-02 
       6.610859936996e-05       4.297372172828e-02 
       8.322579568497e-05       5.366826853008e-02 
       1.047750691046e-04       6.702379872854e-02 
       1.319039970183e-04       8.370193441384e-02 
       1.660572937635e-04       1.045283355396e-01 
       2.090537469327e-04       1.305329134119e-01 
       2.631830744443e-04       1.629994506624e-01 
       3.313278603720e-04       2.035264004624e-01 
       4.171170630578e-04       2.541004744271e-01 
       5.251192703764e-04       3.171839528590e-01 
       6.610859936996e-04       3.958147256552e-01 
       8.322579568497e-04       4.937136006314e-01 
       1.047750691046e-03       6.153841636081e-01 
       1.319039970183e-03       7.661720592808e-01 
       1.660572937635e-03       9.522588016430e-01 
       2.090537469327e-03       1.180312991683e+00 
       2.631830744443e-03       1.456802684639e+00 
       3.313278603720e-03       1.786503853934e+00 
       4.171170630578e-03       2.169896197892e+00 
       5.251192703764e-03       2.599430630225e+00 
       6.610859936996e-03       3.055668704399e+00 
       8.322579568497e-03       3.505725596471e+00 
       1.047750691046e-02       3.905491117755e+00 
       1.319039970183e-02       4.200915415278e+00 
       1.660572937633e-02       4.325056367887e+00 
       2.090537453514e-02       4.210203338802e+00 
       2.631818545635e-02       3.825153062689e+00 
       3.311571692125e-02       3.229062362666e+00 
       4.113809243311e-02       2.627740328790e+00 
       4.792590854610e-02       2.280793460905e+00 
       5.284436902701e-02       2.110087488125e+00 
       5.689644391095e-02       2.003540333384e+00 
       6.051252627066e-02       1.923052716031e+00 
       6.388413457411e-02       1.852734750193e+00 
       6.711249296401e-02       1.784564198708e+00 
       7.025823437965e-02       1.714276889795e+00 
       7.336115587705e-02       1.639817103907e+00 
       7.644928796912e-02       1.560660971539e+00 
       7.954353299775e-02       1.477458162363e+00 
       8.266024078725e-02       1.391696333839e+00 
       8.581273398637e-02       1.305457318621e+00 
       8.901225918437e-02       1.221125940078e+00 
       9.226860540985e-02       1.141079502598e+00 
       9.559052048996e-02       1.067452800182e+00 
       9.898599946599e-02       1.001890051151e+00 
       1.024624891378e-01       9.453817743829e-01 
       1.060270359164e-01       8.981491925164e-01 
       1.096863943056e-01       8.596145074535e-01 
       1.134471073830e-01       8.284060233955e-01 
       1.173155669539e-01       8.024660208701e-01 
       1.212980586983e-01       7.792289660067e-01 
       1.254007961065e-01       7.559180455500e-01 
       1.296299459934e-01       7.299835820123e-01 
       1.339916477160e-01       6.995940166903e-01 
       1.384920277736e-01       6.640801984496e-01 
       1.431372111762e-01       6.241475991052e-01 
       1.479333307714e-01       5.817650445501e-01 
       1.528865355934e-01       5.396906490754e-01 
       1.580029992204e-01       5.008128551855e-01 
       1.632889290723e-01       4.673980509147e-01 
       1.687505775527e-01       4.405338915118e-01 
       1.743942559171e-01       4.198646240081e-01 
       1.802263517371e-01       4.036586258386e-01 
       1.862533508214e-01       3.893621244562e-01 
       1.924818644494e-01       3.741400697669e-01 
       1.989186627765e-01       3.558061958753e-01 
       2.055707152847e-01       3.340023563870e-01 
       2.124452391818e-01       3.102648877583e-01 
       2.195497567139e-01       2.871216399896e-01 
       2.268921624510e-01       2.668084696428e-01 
       2.344808017550e-01       2.504830036274e-01 
       2.423245618548e-01       2.378331894255e-01 
       2.504329772620e-01       2.271112984695e-01 
       2.588163516754e-01       2.161193994162e-01 
       2.674858990930e-01       2.035467377354e-01 
       2.764539076010e-01       1.895965815517e-01 
       2.857339303080e-01       1.757561624179e-01 
       2.953410092148e-01       1.636986045956e-01 
       3.052919395542e-01       1.539056964358e-01 
       3.156055844677e-01       1.455296958031e-01 
       3.263032530092e-01       1.372493969224e-01 
       3.374091587054e-01       1.283013097177e-01 
       3.489509817175e-01       1.191703391753e-01 
       3.609605657343e-01       1.108063917857e-01 
       3.734747921333e-01       1.036444787357e-01 
       3.865366902904e-01       9.714058758559e-02 
       4.001968667448e-01       9.061478084265e-02 
       4.145153713076e-01       8.403646303441e-02 
       4.295641718077e-01       7.789034615410e-02 
       4.454304922144e-01       7.234098747009e-02 
       4.622214006969e-01       6.709290736920e-02 
       4.800702491654e-01       6.189101437166e-02 
       4.991459272112e-01       5.692542778532e-02 
       5.196665217302e-01       5.231524422019e-02 
       5.419201087032e-01       4.783186894517e-02 
       5.662975451962e-01       4.348593990871e-02 
       5.933463737275e-01       3.933029313636e-02 
       6.238638458458e-01       3.525253840387e-02 
       6.590669257916e-01       3.126192528084e-02 
       7.009246080454e-01       2.728641546013e-02 
       7.528593308799e-01       2.327755579950e-02 
       8.213469537518e-01       1.914729042966e-02 
       9.196980813302e-01       1.481608055006e-02 
       1.075112183810e+00       1.034995083989e-02 
       1.322697471132e+00       6.378475000321e-03 
       1.662328205042e+00       3.704666991253e-03 
       2.092692408506e+00       2.123551473664e-03 
       2.634543445090e+00       1.206981899004e-03 
       3.316693691389e+00       6.807497021409e-04 
       4.175469971226e+00       3.811867683536e-04 
       5.256605252960e+00       2.119710668244e-04 
       6.617673932723e+00       1.170549483196e-04 
       8.331157880872e+00       6.415527239817e-05 
       1.048830636590e+01       3.484823265659e-05 
       1.320399541071e+01       1.870229347794e-05 
       1.662284535976e+01       9.855936182401e-06 
       2.092692243973e+01       5.038356513914e-06 
       2.634543445002e+01       2.438444904230e-06 
       3.316693691389e+01       1.063637997530e-06 
       4.175469971226e+01       3.763244534211e-07 
       5.256605252960e+01       8.313148475983e-08 
       6.617673932723e+01       3.716664247487e-09 
