# Matter power spectrum P(k) at redshift z=99
# for k=1.04775e-05 to 66.1767 h/Mpc,
# number of wavenumbers equal to 130
#    1:k (h/Mpc)              2:P (Mpc/h)^3        
       1.047750691046e-05       7.261927681443e-03 
       1.319039970183e-05       9.069258202575e-03 
       1.660572937635e-05       1.132639106816e-02 
       2.090537469327e-05       1.414527123512e-02 
       2.631830744443e-05       1.766569584200e-02 
       3.313278603720e-05       2.206225516119e-02 
       4.171170630578e-05       2.755297766497e-02 
       5.251192703764e-05       3.441013523223e-02 
       6.610859936996e-05       4.297372173121e-02 
       8.322579568497e-05       5.366826853372e-02 
       1.047750691046e-04       6.702379873309e-02 
       1.319039970183e-04       8.370193441951e-02 
       1.660572937635e-04       1.045283355467e-01 
       2.090537469327e-04       1.305329134206e-01 
       2.631830744443e-04       1.629994506732e-01 
       3.313278603720e-04       2.035264004757e-01 
       4.171170630578e-04       2.541004744431e-01 
       5.251192703764e-04       3.171839528781e-01 
       6.610859936996e-04       3.958147256772e-01 
       8.322579568497e-04       4.937136006557e-01 
       1.047750691046e-03       6.153841636307e-01 
       1.319039970183e-03       7.661720592662e-01 
       1.660572937635e-03       9.522588016214e-01 
       2.090537469327e-03       1.180312991587e+00 
       2.631830744443e-03       1.456802684370e+00 
       3.313278603720e-03       1.786503853294e+00 
       4.171170630578e-03       2.169896195757e+00 
       5.251192703764e-03       2.599430627370e+00 
       6.610859936996e-03       3.055668699006e+00 
       8.322579568497e-03       3.505725585516e+00 
       1.047750691046e-02       3.905489742583e+00 
       1.319039970183e-02       4.200915347261e+00 
       1.660572937633e-02       4.325059268223e+00 
       2.090537453514e-02       4.210204794029e+00 
       2.631818545635e-02       3.825150053595e+00 
       3.311571692125e-02       3.229067700342e+00 
       4.113809243311e-02       2.627735075180e+00 
       4.792590854610e-02       2.280792014177e+00 
       5.284436902701e-02       2.110088914429e+00 
       5.689644391095e-02       2.003539429295e+00 
       6.051252627066e-02       1.923055031741e+00 
       6.388413457411e-02       1.852731543587e+00 
       6.711249296401e-02       1.784563980455e+00 
       7.025823437965e-02       1.714275236335e+00 
       7.336115587705e-02       1.639815419611e+00 
       7.644928796912e-02       1.560661540106e+00 
       7.954353299775e-02       1.477453915567e+00 
       8.266024078725e-02       1.391695831101e+00 
       8.581273398637e-02       1.305461396340e+00 
       8.901225918437e-02       1.221122842384e+00 
       9.226860540985e-02       1.141073003971e+00 
       9.559052048996e-02       1.067445940479e+00 
       9.898599946599e-02       1.001886109628e+00 
       1.024624891378e-01       9.453810810235e-01 
       1.060270359164e-01       8.981491669710e-01 
       1.096863943056e-01       8.596095467787e-01 
       1.134471073830e-01       8.284047117828e-01 
       1.173155669539e-01       8.024650999805e-01 
       1.212980586983e-01       7.792264834403e-01 
       1.254007961065e-01       7.559161155046e-01 
       1.296299459934e-01       7.299806699337e-01 
       1.339916477160e-01       6.995913060544e-01 
       1.384920277736e-01       6.640779721853e-01 
       1.431372111762e-01       6.241452850304e-01 
       1.479333307714e-01       5.817627342642e-01 
       1.528865355934e-01       5.396868377282e-01 
       1.580029992204e-01       5.008107959428e-01 
       1.632889290723e-01       4.673952946510e-01 
       1.687505775527e-01       4.405305189323e-01 
       1.743942559171e-01       4.198622372355e-01 
       1.802263517371e-01       4.036563490793e-01 
       1.862533508214e-01       3.893583449125e-01 
       1.924818644494e-01       3.741357606073e-01 
       1.989186627765e-01       3.558028801213e-01 
       2.055707152847e-01       3.339990925503e-01 
       2.124452391818e-01       3.102610923873e-01 
       2.195497567139e-01       2.871182793352e-01 
       2.268921624510e-01       2.668041197932e-01 
       2.344808017550e-01       2.504796079036e-01 
       2.423245618548e-01       2.378292065000e-01 
       2.504329772620e-01       2.271078167662e-01 
       2.588163516754e-01       2.161144284079e-01 
       2.674858990930e-01       2.035425026629e-01 
       2.764539076010e-01       1.895926275241e-01 
       2.857339303080e-01       1.757516290969e-01 
       2.953410092148e-01       1.636939414068e-01 
       3.052919395542e-01       1.539007520602e-01 
       3.156055844677e-01       1.455250373950e-01 
       3.263032530092e-01       1.372446253829e-01 
       3.374091587054e-01       1.282956361648e-01 
       3.489509817175e-01       1.191650114580e-01 
       3.609605657343e-01       1.108010500961e-01 
       3.734747921333e-01       1.036387456157e-01 
       3.865366902904e-01       9.713458677680e-02 
       4.001968667448e-01       9.060900225073e-02 
       4.145153713076e-01       8.403000812527e-02 
       4.295641718077e-01       7.788410926205e-02 
       4.454304922144e-01       7.233452556288e-02 
       4.622214006969e-01       6.708640690606e-02 
       4.800702491654e-01       6.188410121339e-02 
       4.991459272112e-01       5.691837490192e-02 
       5.196665217302e-01       5.230817044694e-02 
       5.419201087032e-01       4.782420503529e-02 
       5.662975451962e-01       4.347828573643e-02 
       5.933463737275e-01       3.932216710138e-02 
       6.238638458458e-01       3.524426078217e-02 
       6.590669257916e-01       3.125343510208e-02 
       7.009246080454e-01       2.727739364933e-02 
       7.528593308799e-01       2.326803926759e-02 
       8.213469537518e-01       1.913716340360e-02 
       9.196980813302e-01       1.480497645565e-02 
       1.075112183810e+00       1.033744938209e-02 
       1.322697471132e+00       6.363686375209e-03 
       1.662328205042e+00       3.686821018133e-03 
       2.092692408506e+00       2.101872974808e-03 
       2.634543445090e+00       1.180620035840e-03 
       3.316693691389e+00       6.489226321002e-04 
       4.175469971226e+00       3.434428405266e-04 
       5.256605252960e+00       1.688349680631e-04 
       6.617673932723e+00       7.098242626788e-05 
       8.331157880872e+00       2.053668060674e-05 
       1.048830636590e+01       1.528929337692e-06 
       1.320399541071e+01       1.482109486519e-06 
       1.662284535976e+01       5.281504102829e-06 
       2.092692243973e+01       2.768602997404e-06 
       2.634543445002e+01       7.852711061209e-09 
       3.316693691389e+01       3.455342153597e-07 
       4.175469971226e+01       1.041496965397e-09 
       5.256605252960e+01       3.042400382981e-09 
       6.617673932723e+01       1.191964634403e-12 
