# Matter power spectrum P(k) at redshift z=0
# for k=1.04775e-05 to 67.6233 h/Mpc,
# number of wavenumbers equal to 246
#    1:k (h/Mpc)              2:P (Mpc/h)^3        
       1.047750691046e-05       5.020964811308e+01 
       1.131335172503e-05       5.407050701927e+01 
       1.221587619537e-05       5.822819068983e+01 
       1.319039970183e-05       6.270562594777e+01 
       1.424266597921e-05       6.752732240880e+01 
       1.537887696968e-05       7.271977206173e+01 
       1.660572937635e-05       7.831147247912e+01 
       1.793045413292e-05       8.433311821988e+01 
       1.936085902198e-05       9.081778249833e+01 
       2.090537469327e-05       9.780108069297e+01 
       2.257310435294e-05       1.053213197893e+02 
       2.437387741694e-05       1.134197377890e+02 
       2.631830744443e-05       1.221408203809e+02 
       2.841785469300e-05       1.315324642460e+02 
       3.068489366414e-05       1.416462094882e+02 
       3.313278603720e-05       1.525374501932e+02 
       3.577595942169e-05       1.642660688414e+02 
       3.862999239199e-05       1.768963506307e+02 
       4.171170630578e-05       1.904975994010e+02 
       4.503926444729e-05       2.051444491973e+02 
       4.863227907969e-05       2.209171465548e+02 
       5.251192703764e-05       2.379022224247e+02 
       5.670107454120e-05       2.561927927722e+02 
       6.122441196689e-05       2.758890444039e+02 
       6.610859936996e-05       2.970989227882e+02 
       7.138242361596e-05       3.199385560801e+02 
       7.707696804727e-05       3.445329783677e+02 
       8.322579568497e-05       3.710167318945e+02 
       8.986514704559e-05       3.995346444202e+02 
       9.703415373875e-05       4.302425407381e+02 
       1.047750691046e-04       4.633080766740e+02 
       1.131335172503e-04       4.989116271562e+02 
       1.221587619537e-04       5.372471950926e+02 
       1.319039970183e-04       5.785234129334e+02 
       1.424266597921e-04       6.229645936040e+02 
       1.537887696968e-04       6.708118490398e+02 
       1.660572937635e-04       7.223242666084e+02 
       1.793045413292e-04       7.777801560800e+02 
       1.936085902198e-04       8.374783614127e+02 
       2.090537469327e-04       9.017396271807e+02 
       2.257310435294e-04       9.709080268020e+02 
       2.437387741694e-04       1.045352449490e+03 
       2.631830744443e-04       1.125468123747e+03 
       2.841785469300e-04       1.211678180490e+03 
       3.068489366414e-04       1.304435250145e+03 
       3.313278603720e-04       1.404223053674e+03 
       3.577595942169e-04       1.511558014608e+03 
       3.862999239199e-04       1.626990837708e+03 
       4.171170630578e-04       1.751108028778e+03 
       4.503926444729e-04       1.884533382856e+03 
       4.863227907969e-04       2.027929378092e+03 
       5.251192703764e-04       2.181998448107e+03 
       5.670107454121e-04       2.347484102722e+03 
       6.122441196689e-04       2.525171871324e+03 
       6.610859936996e-04       2.715889983540e+03 
       7.138242361596e-04       2.920509688314e+03 
       7.707696804727e-04       3.139945100198e+03 
       8.322579568497e-04       3.375152337477e+03 
       8.986514704559e-04       3.627127831012e+03 
       9.703415373875e-04       3.896905452975e+03 
       1.047750691046e-03       4.185552174125e+03 
       1.131335172503e-03       4.494162430119e+03 
       1.221587619537e-03       4.823850706181e+03 
       1.319039970183e-03       5.175742738386e+03 
       1.424266597921e-03       5.551019596428e+03 
       1.537887696968e-03       5.950788339887e+03 
       1.660572937635e-03       6.376123050885e+03 
       1.793045413292e-03       6.828073900351e+03 
       1.936085902198e-03       7.307625379648e+03 
       2.090537469327e-03       7.815671911850e+03 
       2.257310435294e-03       8.352990373496e+03 
       2.437387741694e-03       8.920211061399e+03 
       2.631830744443e-03       9.517783065348e+03 
       2.841785469300e-03       1.014593703958e+04 
       3.068489366414e-03       1.080464502180e+04 
       3.313278603720e-03       1.149357459574e+04 
       3.577595942169e-03       1.221203620756e+04 
       3.862999239199e-03       1.295892538228e+04 
       4.171170630578e-03       1.373266009900e+04 
       4.503926444729e-03       1.453111833703e+04 
       4.863227907969e-03       1.535154915975e+04 
       5.251192703764e-03       1.619063187042e+04 
       5.670107454120e-03       1.704431215191e+04 
       6.122441196689e-03       1.790756152068e+04 
       6.610859936996e-03       1.877460465132e+04 
       7.138242361596e-03       1.963872839888e+04 
       7.707696804727e-03       2.049215393446e+04 
       8.322579568496e-03       2.132609619391e+04 
       8.986514704559e-03       2.213055143251e+04 
       9.703415373875e-03       2.289442112824e+04 
       1.047750691046e-02       2.360545612896e+04 
       1.131335172503e-02       2.425022413311e+04 
       1.221587619537e-02       2.481419451351e+04 
       1.319039970183e-02       2.528228850292e+04 
       1.424266597920e-02       2.563800899316e+04 
       1.537887696964e-02       2.586600895165e+04 
       1.660572937560e-02       2.595024218250e+04 
       1.793045412207e-02       2.587608740687e+04 
       1.936085889642e-02       2.563226422461e+04 
       2.090537351881e-02       2.520930615573e+04 
       2.257309534705e-02       2.460431716484e+04 
       2.437382002240e-02       2.382081983138e+04 
       2.631799943729e-02       2.287028567566e+04 
       2.841644544598e-02       2.177437931817e+04 
       3.067933354524e-02       2.056533803310e+04 
       3.311368469821e-02       1.928722145971e+04 
       3.571840442514e-02       1.799389926093e+04 
       3.847720347390e-02       1.674670242948e+04 
       4.135335537314e-02       1.560444213795e+04 
       4.429361666563e-02       1.461026675831e+04 
       4.724366437916e-02       1.378042660209e+04 
       5.016480834039e-02       1.310495770998e+04 
       5.303989618930e-02       1.255715275252e+04 
       5.586870668205e-02       1.210422505710e+04 
       5.866042679206e-02       1.171466176019e+04 
       6.142798931504e-02       1.136012857961e+04 
       6.418496438662e-02       1.101861512625e+04 
       6.694418832236e-02       1.067067766054e+04 
       6.971731104453e-02       1.030362521679e+04 
       7.251476154108e-02       9.909057266338e+03 
       7.534587669814e-02       9.483596023675e+03 
       7.821907664495e-02       9.029303334941e+03 
       8.114203771084e-02       8.552134049257e+03 
       8.412184533139e-02       8.061918623611e+03 
       8.716512277352e-02       7.570746097766e+03 
       9.027813693913e-02       7.092463067616e+03 
       9.346688429613e-02       6.640508724289e+03 
       9.673716026122e-02       6.226708086875e+03 
       1.000946150608e-01       5.859923147739e+03 
       1.035447986307e-01       5.545240535255e+03 
       1.070931966524e-01       5.283143087406e+03 
       1.107452594180e-01       5.069436945759e+03 
       1.145064248899e-01       4.895261892182e+03 
       1.183821370656e-01       4.747823069032e+03 
       1.223778605591e-01       4.611715269942e+03 
       1.264990921707e-01       4.470597344865e+03 
       1.307513701078e-01       4.310269247815e+03 
       1.351402814485e-01       4.121377083086e+03 
       1.396714683894e-01       3.902030739029e+03 
       1.443506337875e-01       3.658627009538e+03 
       1.491835464900e-01       3.404448262270e+03 
       1.541760469368e-01       3.156618745281e+03 
       1.593340535209e-01       2.931909916597e+03 
       1.646635701934e-01       2.742328087305e+03 
       1.701706958081e-01       2.592211299968e+03 
       1.758616357070e-01       2.477191554990e+03 
       1.817427160581e-01       2.385134681408e+03 
       1.878204014651e-01       2.300312731615e+03 
       1.941013163855e-01       2.205745152503e+03 
       2.005922709060e-01       2.090808358043e+03 
       2.073002914514e-01       1.956429649000e+03 
       2.142326570343e-01       1.814143877986e+03 
       2.213969417044e-01       1.679239811812e+03 
       2.288010639201e-01       1.563810403421e+03 
       2.364533436625e-01       1.472635881530e+03 
       2.443625682390e-01       1.401473398785e+03 
       2.525380678946e-01       1.338379399394e+03 
       2.609898025770e-01       1.270853179606e+03 
       2.697284614969e-01       1.193313267699e+03 
       2.787655775073e-01       1.109282402929e+03 
       2.881136588192e-01       1.028715954959e+03 
       2.977863412019e-01       9.604250614682e+02 
       3.077985646248e-01       9.049660432471e+02 
       3.181667793367e-01       8.560853165688e+02 
       3.289091877084e-01       8.061271714901e+02 
       3.400460298905e-01       7.523269216524e+02 
       3.515999235695e-01       6.988594529775e+02 
       3.635962710278e-01       6.509974731905e+02 
       3.760637505499e-01       6.100572437758e+02 
       3.890349143014e-01       5.720642563330e+02 
       4.025469215929e-01       5.337125441819e+02 
       4.166424455447e-01       4.955565186298e+02 
       4.313708034899e-01       4.603972629999e+02 
       4.467893781976e-01       4.287002294340e+02 
       4.629654198623e-01       3.986950332776e+02 
       4.799783500912e-01       3.691611643919e+02 
       4.979227318246e-01       3.411591878207e+02 
       5.169121269689e-01       3.153971171620e+02 
       5.370841403262e-01       2.907466873670e+02 
       5.586070463286e-01       2.670147862201e+02 
       5.816885093582e-01       2.447163435899e+02 
       6.065870143577e-01       2.234727619756e+02 
       6.336266466978e-01       2.031123326045e+02 
       6.632156057925e-01       1.837771697373e+02 
       6.958678637575e-01       1.652484886259e+02 
       7.322247983784e-01       1.475849981942e+02 
       7.730680193171e-01       1.307176788402e+02 
       8.193049551574e-01       1.147091844964e+02 
       8.718988013754e-01       9.963344546590e+01 
       9.317218028590e-01       8.564064143892e+01 
       9.993660906273e-01       7.290851501449e+01 
       1.075037109879e+00       6.157961781652e+01 
       1.158653485387e+00       5.171167330967e+01 
       1.250099156961e+00       4.326076045558e+01 
       1.349432400897e+00       3.609668975616e+01 
       1.456947456991e+00       3.006112838453e+01 
       1.573135110893e+00       2.499244280275e+01 
       1.698621895119e+00       2.074342026270e+01 
       1.834127512423e+00       1.718620910896e+01 
       1.980444933977e+00       1.421079657184e+01 
       2.138435191130e+00       1.172428458964e+01 
       2.309029198543e+00       9.647577670629e+00 
       2.493232376993e+00       7.914426240843e+00 
       2.692130394536e+00       6.468526553535e+00 
       2.906895533764e+00       5.262980836608e+00 
       3.138793596840e+00       4.258132762087e+00 
       3.389191365541e+00       3.421059611910e+00 
       3.659564656886e+00       2.724352316719e+00 
       3.951507021438e+00       2.145200020820e+00 
       4.266739135513e+00       1.664910876022e+00 
       4.607118942658e+00       1.268131441903e+00 
       4.974652604172e+00       9.424608440271e-01 
       5.371506323193e+00       6.778760528009e-01 
       5.800019112071e+00       4.663297965517e-01 
       6.262716578240e+00       3.013421661300e-01 
       6.762325809881e+00       1.775358616433e-01 
       7.301791449077e+00       9.020395092162e-02 
       7.884293047211e+00       3.482418481556e-02 
       8.513263804891e+00       6.621128152458e-03 
       9.192410806865e+00       1.873173002018e-04 
       9.925736871166e+00       9.294275695392e-03 
       1.071756414128e+01       2.699830653677e-02 
       1.157255956041e+01       4.614922509475e-02 
       1.249576237789e+01       6.032361089203e-02 
       1.349261385000e+01       6.504528418472e-02 
       1.456898931011e+01       5.892188247204e-02 
       1.573123279727e+01       4.416298136505e-02 
       1.698619444729e+01       2.591588343337e-02 
       1.834127086665e+01       1.027480463402e-02 
       1.980444872733e+01       1.558442754843e-03 
       2.138435183937e+01       2.389612918142e-04 
       2.309029197863e+01       3.013604276007e-03 
       2.493232376942e+01       5.348143242838e-03 
       2.692130394533e+01       4.801245780402e-03 
       2.906895533764e+01       2.331566766204e-03 
       3.138793596840e+01       3.928869918858e-04 
       3.389191365541e+01       2.332287793690e-05 
       3.659564656886e+01       3.029522056943e-04 
       3.951507021438e+01       2.693639715206e-04 
       4.266739135513e+01       5.540108413254e-05 
       4.607118942658e+01       8.809328341554e-07 
       4.974652604172e+01       1.155799656320e-05 
       5.371506323193e+01       1.304192472256e-06 
       5.800019112071e+01       9.134816173033e-07 
       6.262716578240e+01       1.629072333528e-07 
       6.762325809881e+01       6.845613618993e-07 
