# Matter power spectrum P(k) at redshift z=0
# for k=1.04775e-05 to 67.6233 h/Mpc,
# number of wavenumbers equal to 246
#    1:k (h/Mpc)              2:P (Mpc/h)^3        
       1.047750691338e-05       5.020964806750e+01 
       1.131335172818e-05       5.407048206553e+01 
       1.221587619877e-05       5.822819063696e+01 
       1.319039970550e-05       6.270562589679e+01 
       1.424266598317e-05       6.752731788102e+01 
       1.537887697396e-05       7.271977200257e+01 
       1.660572938097e-05       7.831147241542e+01 
       1.793045413791e-05       8.433311815128e+01 
       1.936085902737e-05       9.081778242446e+01 
       2.090537469909e-05       9.780108061341e+01 
       2.257310435923e-05       1.053213197032e+02 
       2.437387742372e-05       1.134197377001e+02 
       2.631830745176e-05       1.221408202816e+02 
       2.841785470091e-05       1.315324720916e+02 
       3.068489367268e-05       1.416462093730e+02 
       3.313278604643e-05       1.525374500691e+02 
       3.577595943165e-05       1.642660687078e+02 
       3.862999240274e-05       1.768963504868e+02 
       4.171170631739e-05       1.904975992460e+02 
       4.503926445983e-05       2.051444490305e+02 
       4.863227909323e-05       2.209171463752e+02 
       5.251192705226e-05       2.379022222314e+02 
       5.670107455699e-05       2.561927925848e+02 
       6.122441198393e-05       2.758890441791e+02 
       6.610859938837e-05       2.970989225466e+02 
       7.138242363583e-05       3.199385558200e+02 
       7.707696806873e-05       3.445329780878e+02 
       8.322579570814e-05       3.710167315928e+02 
       8.986514707061e-05       3.995346440954e+02 
       9.703415376577e-05       4.302425403884e+02 
       1.047750691338e-04       4.633080762974e+02 
       1.131335172818e-04       4.989116267507e+02 
       1.221587619877e-04       5.372471946561e+02 
       1.319039970550e-04       5.785234124630e+02 
       1.424266598317e-04       6.229645930980e+02 
       1.537887697396e-04       6.708118484951e+02 
       1.660572938097e-04       7.223242660220e+02 
       1.793045413791e-04       7.777801552649e+02 
       1.936085902737e-04       8.374783607333e+02 
       2.090537469909e-04       9.017396264495e+02 
       2.257310435923e-04       9.709080260152e+02 
       2.437387742372e-04       1.045352448644e+03 
       2.631830745176e-04       1.125468122836e+03 
       2.841785470091e-04       1.211678179511e+03 
       3.068489367268e-04       1.304435249091e+03 
       3.313278604643e-04       1.404223052541e+03 
       3.577595943165e-04       1.511558013390e+03 
       3.862999240274e-04       1.626990836425e+03 
       4.171170631739e-04       1.751108027370e+03 
       4.503926445983e-04       1.884533381345e+03 
       4.863227909323e-04       2.027929376469e+03 
       5.251192705226e-04       2.181998446367e+03 
       5.670107455699e-04       2.347484100857e+03 
       6.122441198393e-04       2.525171869336e+03 
       6.610859938837e-04       2.715889981401e+03 
       7.138242363583e-04       2.920509686093e+03 
       7.707696806873e-04       3.139945097710e+03 
       8.322579570814e-04       3.375152334396e+03 
       8.986514707061e-04       3.627127828230e+03 
       9.703415376577e-04       3.896905450015e+03 
       1.047750691338e-03       4.185552170965e+03 
       1.131335172818e-03       4.494162426789e+03 
       1.221587619877e-03       4.823850702674e+03 
       1.319039970550e-03       5.175742739736e+03 
       1.424266598317e-03       5.551019592513e+03 
       1.537887697396e-03       5.950788335882e+03 
       1.660572938097e-03       6.376123046792e+03 
       1.793045413791e-03       6.828073896108e+03 
       1.936085902737e-03       7.307625375377e+03 
       2.090537469909e-03       7.815671859799e+03 
       2.257310435923e-03       8.352990369372e+03 
       2.437387742372e-03       8.920211057525e+03 
       2.631830745176e-03       9.517783061865e+03 
       2.841785470091e-03       1.014593703668e+04 
       3.068489367268e-03       1.080464505727e+04 
       3.313278604643e-03       1.149357459539e+04 
       3.577595943165e-03       1.221203620820e+04 
       3.862999240274e-03       1.295892538497e+04 
       4.171170631739e-03       1.373266002351e+04 
       4.503926445983e-03       1.453111834583e+04 
       4.863227909323e-03       1.535154983777e+04 
       5.251192705226e-03       1.619063610772e+04 
       5.670107455699e-03       1.704431256468e+04 
       6.122441198393e-03       1.790755940003e+04 
       6.610859938837e-03       1.877460420531e+04 
       7.138242363583e-03       1.963872434184e+04 
       7.707696806873e-03       2.049215713093e+04 
       8.322579570814e-03       2.132607251634e+04 
       8.986514707061e-03       2.213055060581e+04 
       9.703415376577e-03       2.289445490925e+04 
       1.047750691338e-02       2.360548845862e+04 
       1.131335172818e-02       2.425022816103e+04 
       1.221587619877e-02       2.481423928899e+04 
       1.319039970550e-02       2.528218767304e+04 
       1.424266598317e-02       2.563814866913e+04 
       1.537887697392e-02       2.586606362071e+04 
       1.660572938023e-02       2.595026413292e+04 
       1.793045412706e-02       2.587634254843e+04 
       1.936085890181e-02       2.563217340619e+04 
       2.090537352463e-02       2.520935437698e+04 
       2.257309535333e-02       2.460446434948e+04 
       2.437382002918e-02       2.382088932277e+04 
       2.631799944462e-02       2.287043093890e+04 
       2.841644545389e-02       2.177446619818e+04 
       3.067933355377e-02       2.056552792248e+04 
       3.311368470740e-02       1.928725317043e+04 
       3.571840443502e-02       1.799403384686e+04 
       3.847720348444e-02       1.674680640285e+04 
       4.135335538431e-02       1.560460057804e+04 
       4.429361667738e-02       1.461037158031e+04 
       4.724366439141e-02       1.378044966342e+04 
       5.016480835311e-02       1.310498053852e+04 
       5.303989620246e-02       1.255717619874e+04 
       5.586870669566e-02       1.210427394356e+04 
       5.866042680613e-02       1.171468655322e+04 
       6.142798932958e-02       1.136053224911e+04 
       6.418496440164e-02       1.101861756971e+04 
       6.694418833788e-02       1.067071022156e+04 
       6.971731106057e-02       1.030362022008e+04 
       7.251476155766e-02       9.909060841667e+03 
       7.534587671527e-02       9.483785476564e+03 
       7.821907666265e-02       9.029521871797e+03 
       8.114203772912e-02       8.552355418964e+03 
       8.412184535029e-02       8.061971223199e+03 
       8.716512279304e-02       7.570799985855e+03 
       9.027813695930e-02       7.092488742097e+03 
       9.346688431697e-02       6.640538587621e+03 
       9.673716028276e-02       6.226734867340e+03 
       1.000946150830e-01       5.859980736448e+03 
       1.035447986537e-01       5.545310724635e+03 
       1.070931966762e-01       5.283156649606e+03 
       1.107452594425e-01       5.069426956675e+03 
       1.145064249153e-01       4.895255834108e+03 
       1.183821370918e-01       4.747851103404e+03 
       1.223778605862e-01       4.611737013319e+03 
       1.264990921987e-01       4.470613368536e+03 
       1.307513701367e-01       4.310259476191e+03 
       1.351402814784e-01       4.121355797553e+03 
       1.396714684203e-01       3.901979480698e+03 
       1.443506338194e-01       3.658673771525e+03 
       1.491835465229e-01       3.404481752267e+03 
       1.541760469708e-01       3.156666029974e+03 
       1.593340535561e-01       2.931933852700e+03 
       1.646635702297e-01       2.742357551385e+03 
       1.701706958456e-01       2.592242085161e+03 
       1.758616357459e-01       2.477222293694e+03 
       1.817427160982e-01       2.385166154400e+03 
       1.878204015065e-01       2.300358768625e+03 
       1.941013164283e-01       2.205769797879e+03 
       2.005922709503e-01       2.090823905869e+03 
       2.073002914972e-01       1.956469557341e+03 
       2.142326570816e-01       1.814176256250e+03 
       2.213969417533e-01       1.679272274698e+03 
       2.288010639706e-01       1.563834514504e+03 
       2.364533437147e-01       1.472671132790e+03 
       2.443625682930e-01       1.401505303695e+03 
       2.525380679504e-01       1.338420445097e+03 
       2.609898026346e-01       1.270898917677e+03 
       2.697284615565e-01       1.193364264169e+03 
       2.787655775689e-01       1.109335476431e+03 
       2.881136588829e-01       1.028763201261e+03 
       2.977863412677e-01       9.604748963304e+02 
       3.077985646929e-01       9.050179834248e+02 
       3.181667794071e-01       8.561387551765e+02 
       3.289091877812e-01       8.061834368265e+02 
       3.400460299658e-01       7.523827696554e+02 
       3.515999236474e-01       6.989135605670e+02 
       3.635962711085e-01       6.510558642935e+02 
       3.760637506334e-01       6.101176207313e+02 
       3.890349143879e-01       5.721293592556e+02 
       4.025469216825e-01       5.337767460153e+02 
       4.166424456376e-01       4.956234546023e+02 
       4.313708035863e-01       4.604648818502e+02 
       4.467893782977e-01       4.287709992341e+02 
       4.629654199664e-01       3.987704431100e+02 
       4.799783501994e-01       3.692348881805e+02 
       4.979227319373e-01       3.412366023526e+02 
       5.169121270864e-01       3.154783052720e+02 
       5.370841404489e-01       2.908309603643e+02 
       5.586070464571e-01       2.671027547069e+02 
       5.816885094930e-01       2.448054124912e+02 
       6.065870144995e-01       2.235655765826e+02 
       6.336266468475e-01       2.032087582609e+02 
       6.632156059511e-01       1.838766745623e+02 
       6.958678639263e-01       1.653528168741e+02 
       7.322247985589e-01       1.476943579548e+02 
       7.730680195114e-01       1.308326515854e+02 
       8.193049553677e-01       1.148295754759e+02 
       8.718988016039e-01       9.976121136282e+01 
       9.317218031082e-01       8.577605809884e+01 
       9.993660908989e-01       7.305317790512e+01 
       1.075037110174e+00       6.173444025302e+01 
       1.158653485707e+00       5.187713819719e+01 
       1.250099157308e+00       4.343841137069e+01 
       1.349432401273e+00       3.628729881450e+01 
       1.456947457397e+00       3.026580679483e+01 
       1.573135111331e+00       2.521205490444e+01 
       1.698621895592e+00       2.097923775360e+01 
       1.834127512934e+00       1.743935723360e+01 
       1.980444934528e+00       1.448254290673e+01 
       2.138435191726e+00       1.201550033629e+01 
       2.309029199186e+00       9.959371049255e+00 
       2.493232377687e+00       8.247717355937e+00 
       2.692130395285e+00       6.824117751451e+00 
       2.906895534573e+00       5.641374647826e+00 
       3.138793597714e+00       4.659567726961e+00 
       3.389191366484e+00       3.845292640607e+00 
       3.659564657905e+00       3.170598483646e+00 
       3.951507022538e+00       2.611961397675e+00 
       4.266739136701e+00       2.149822548126e+00 
       4.607118943941e+00       1.767770562748e+00 
       4.974652605557e+00       1.452119387470e+00 
       5.371506324689e+00       1.191512535071e+00 
       5.800019113685e+00       9.764519389300e-01 
       6.262716579983e+00       7.990629641927e-01 
       6.762325811764e+00       6.528163562406e-01 
       7.301791451110e+00       5.322777951642e-01 
       7.884293049406e+00       4.329423793143e-01 
       8.513263807261e+00       3.511045386783e-01 
       9.192410809424e+00       2.836841804118e-01 
       9.925736873929e+00       2.281435392831e-01 
       1.071756414427e+01       1.823927075088e-01 
       1.157255956364e+01       1.447182745813e-01 
       1.249576238137e+01       1.137140070179e-01 
       1.349261385375e+01       8.823555408207e-02 
       1.456898931416e+01       6.735230455352e-02 
       1.573123280165e+01       5.031517462239e-02 
       1.698619445202e+01       3.652460455907e-02 
       1.834127087176e+01       2.549957134654e-02 
       1.980444873285e+01       1.686141771447e-02 
       2.138435184532e+01       1.030148314056e-02 
       2.309029198506e+01       5.564646675820e-03 
       2.493232377636e+01       2.422562373634e-03 
       2.692130395282e+01       6.521318473540e-04 
       2.906895534573e+01       1.467588944700e-05 
       3.138793597714e+01       2.405414378391e-04 
       3.389191366484e+01       1.024047670130e-03 
       3.659564657905e+01       2.034117236891e-03 
       3.951507022538e+01       2.943692031081e-03 
       4.266739136701e+01       3.478969784653e-03 
       4.607118943941e+01       3.477953294752e-03 
       4.974652605557e+01       2.938752268638e-03 
       5.371506324689e+01       2.032934779089e-03 
       5.800019113685e+01       1.056684284794e-03 
       6.262716579983e+01       3.206055253117e-04 
       6.762325811764e+01       1.010831201658e-05 
