# Matter power spectrum P(k) at redshift z=0
# for k=1.04775e-05 to 66.1767 h/Mpc,
# number of wavenumbers equal to 130
#    1:k (h/Mpc)              2:P (Mpc/h)^3        
       1.047750691046e-05       5.020964811307e+01 
       1.319039970183e-05       6.270562594778e+01 
       1.660572937635e-05       7.831147247911e+01 
       2.090537469327e-05       9.780108069294e+01 
       2.631830744443e-05       1.221408203809e+02 
       3.313278603720e-05       1.525374501932e+02 
       4.171170630578e-05       1.904975994010e+02 
       5.251192703764e-05       2.379022224249e+02 
       6.610859936996e-05       2.970989227881e+02 
       8.322579568497e-05       3.710167318946e+02 
       1.047750691046e-04       4.633080766742e+02 
       1.319039970183e-04       5.785234129333e+02 
       1.660572937635e-04       7.223242666092e+02 
       2.090537469327e-04       9.017396271824e+02 
       2.631830744443e-04       1.125468123750e+03 
       3.313278603720e-04       1.404223053681e+03 
       4.171170630578e-04       1.751108028790e+03 
       5.251192703764e-04       2.181998448133e+03 
       6.610859936996e-04       2.715889983591e+03 
       8.322579568497e-04       3.375152337134e+03 
       1.047750691046e-03       4.185552174306e+03 
       1.319039970183e-03       5.175742737486e+03 
       1.660572937635e-03       6.376123051775e+03 
       2.090537469327e-03       7.815671862068e+03 
       2.631830744443e-03       9.517783069112e+03 
       3.313278603720e-03       1.149357460342e+04 
       4.171170630578e-03       1.373266009932e+04 
       5.251192703764e-03       1.619063614559e+04 
       6.610859936996e-03       1.877460421209e+04 
       8.322579568497e-03       2.132606805381e+04 
       1.047750691046e-02       2.360548929837e+04 
       1.319039970183e-02       2.528218808840e+04 
       1.660572937633e-02       2.595027372025e+04 
       2.090537453514e-02       2.520936294665e+04 
       2.631818545635e-02       2.287032756317e+04 
       3.311571692125e-02       1.928626529996e+04 
       4.113809243311e-02       1.568425348241e+04 
       4.792590854610e-02       1.361064292598e+04 
       5.284436902701e-02       1.259127958115e+04 
       5.689644391095e-02       1.195552958293e+04 
       6.051252627066e-02       1.147545058200e+04 
       6.388413457411e-02       1.105590148993e+04 
       6.711249296401e-02       1.064902014033e+04 
       7.025823437965e-02       1.022931442797e+04 
       7.336115587705e-02       9.784530405903e+03 
       7.644928796912e-02       9.311650626004e+03 
       7.954353299775e-02       8.814548810996e+03 
       8.266024078725e-02       8.302134371630e+03 
       8.581273398637e-02       7.786942820513e+03 
       8.901225918437e-02       7.283189644696e+03 
       9.226860540985e-02       6.805157713486e+03 
       9.559052048996e-02       6.365627094937e+03 
       9.898599946599e-02       5.974399021303e+03 
       1.024624891378e-01       5.637324461444e+03 
       1.060270359164e-01       5.355767880194e+03 
       1.096863943056e-01       5.126254438062e+03 
       1.134471073830e-01       4.940480500382e+03 
       1.173155669539e-01       4.786167020025e+03 
       1.212980586983e-01       4.647947343430e+03 
       1.254007961065e-01       4.509150508294e+03 
       1.296299459934e-01       4.354552757580e+03 
       1.339916477160e-01       4.173214002696e+03 
       1.384920277736e-01       3.961159883623e+03 
       1.431372111762e-01       3.722679775129e+03 
       1.479333307714e-01       3.469554993117e+03 
       1.528865355934e-01       3.218342497455e+03 
       1.580029992204e-01       2.986291800742e+03 
       1.632889290723e-01       2.786963643900e+03 
       1.687505775527e-01       2.626828843503e+03 
       1.743942559171e-01       2.503753342075e+03 
       1.802263517371e-01       2.407340714452e+03 
       1.862533508214e-01       2.322256063697e+03 
       1.924818644494e-01       2.231555326512e+03 
       1.989186627765e-01       2.122189281972e+03 
       2.055707152847e-01       1.992028971479e+03 
       2.124452391818e-01       1.850322416238e+03 
       2.195497567139e-01       1.712182730035e+03 
       2.268921624510e-01       1.590987227368e+03 
       2.344808017550e-01       1.493670506908e+03 
       2.423245618548e-01       1.418309427327e+03 
       2.504329772620e-01       1.354461304447e+03 
       2.588163516754e-01       1.288936984455e+03 
       2.674858990930e-01       1.213934002955e+03 
       2.764539076010e-01       1.130692221737e+03 
       2.857339303080e-01       1.048098623159e+03 
       2.953410092148e-01       9.761815428799e+02 
       3.052919395542e-01       9.178105530148e+02 
       3.156055844677e-01       8.679001564498e+02 
       3.263032530092e-01       8.185277224887e+02 
       3.374091587054e-01       7.651458599828e+02 
       3.489509817175e-01       7.106727987695e+02 
       3.609605657343e-01       6.607865796445e+02 
       3.734747921333e-01       6.180860610675e+02 
       3.865366902904e-01       5.793101716815e+02 
       4.001968667448e-01       5.403916977017e+02 
       4.145153713076e-01       5.011520264111e+02 
       4.295641718077e-01       4.645001371271e+02 
       4.454304922144e-01       4.314080530005e+02 
       4.622214006969e-01       4.001122836101e+02 
       4.800702491654e-01       3.690891275909e+02 
       4.991459272112e-01       3.394757705609e+02 
       5.196665217302e-01       3.119857739327e+02 
       5.419201087032e-01       2.852461483730e+02 
       5.662975451962e-01       2.593314635638e+02 
       5.933463737275e-01       2.345490108937e+02 
       6.238638458458e-01       2.102300376459e+02 
       6.590669257916e-01       1.864337306410e+02 
       7.009246080454e-01       1.627255110971e+02 
       7.528593308799e-01       1.388189341540e+02 
       8.213469537518e-01       1.141880862518e+02 
       9.196980813302e-01       8.835911343158e+01 
       1.075112183810e+00       6.172632053699e+01 
       1.322697471132e+00       3.804268834295e+01 
       1.662328205042e+00       2.209795158553e+01 
       2.092692408506e+00       1.266925926667e+01 
       2.634543445090e+00       7.203330189656e+00 
       3.316693691389e+00       4.065153670468e+00 
       4.175469971226e+00       2.278612259009e+00 
       5.256605252960e+00       1.269345655046e+00 
       6.617673932723e+00       7.031345507652e-01 
       8.331157880872e+00       3.874757572971e-01 
       1.048830636590e+01       2.125100753384e-01 
       1.320399541071e+01       1.160361416903e-01 
       1.662284535976e+01       6.309878279026e-02 
       2.092692243973e+01       3.417942414494e-02 
       2.634543445002e+01       1.844600942659e-02 
       3.316693691389e+01       9.919127203767e-03 
       4.175469971226e+01       5.314585011499e-03 
       5.256605252960e+01       2.836673922657e-03 
       6.617673932723e+01       1.507671125840e-03 
