# Matter power spectrum P(k) at redshift z=0
# for k=1.04775e-05 to 67.6233 h/Mpc,
# number of wavenumbers equal to 246
#    1:k (h/Mpc)              2:P (Mpc/h)^3        
       1.047750691046e-05       5.020964811308e+01 
       1.131335172503e-05       5.407050701928e+01 
       1.221587619537e-05       5.822819068923e+01 
       1.319039970183e-05       6.270562594789e+01 
       1.424266597921e-05       6.752732240880e+01 
       1.537887696968e-05       7.271977206173e+01 
       1.660572937635e-05       7.831147247912e+01 
       1.793045413292e-05       8.433311821988e+01 
       1.936085902198e-05       9.081778249833e+01 
       2.090537469327e-05       9.780108069296e+01 
       2.257310435294e-05       1.053213197893e+02 
       2.437387741694e-05       1.134197377890e+02 
       2.631830744443e-05       1.221408203809e+02 
       2.841785469300e-05       1.315324642468e+02 
       3.068489366414e-05       1.416462094882e+02 
       3.313278603720e-05       1.525374501932e+02 
       3.577595942169e-05       1.642660688414e+02 
       3.862999239199e-05       1.768963506307e+02 
       4.171170630578e-05       1.904975994010e+02 
       4.503926444729e-05       2.051444491974e+02 
       4.863227907969e-05       2.209171465549e+02 
       5.251192703764e-05       2.379022224249e+02 
       5.670107454120e-05       2.561927927559e+02 
       6.122441196689e-05       2.758890444041e+02 
       6.610859936996e-05       2.970989227881e+02 
       7.138242361596e-05       3.199385560802e+02 
       7.707696804727e-05       3.445329783680e+02 
       8.322579568497e-05       3.710167318945e+02 
       8.986514704559e-05       3.995346444203e+02 
       9.703415373875e-05       4.302425407383e+02 
       1.047750691046e-04       4.633080766742e+02 
       1.131335172503e-04       4.989116271565e+02 
       1.221587619537e-04       5.372471950929e+02 
       1.319039970183e-04       5.785234129332e+02 
       1.424266597921e-04       6.229645936045e+02 
       1.537887696968e-04       6.708118490405e+02 
       1.660572937635e-04       7.223242666092e+02 
       1.793045413292e-04       7.777801559134e+02 
       1.936085902198e-04       8.374783614141e+02 
       2.090537469327e-04       9.017396271824e+02 
       2.257310435294e-04       9.709080268041e+02 
       2.437387741694e-04       1.045352449493e+03 
       2.631830744443e-04       1.125468123750e+03 
       2.841785469300e-04       1.211678180495e+03 
       3.068489366414e-04       1.304435250150e+03 
       3.313278603720e-04       1.404223053681e+03 
       3.577595942169e-04       1.511558014616e+03 
       3.862999239199e-04       1.626990837788e+03 
       4.171170630578e-04       1.751108028790e+03 
       4.503926444729e-04       1.884533382872e+03 
       4.863227907969e-04       2.027929378112e+03 
       5.251192703764e-04       2.181998448133e+03 
       5.670107454121e-04       2.347484102755e+03 
       6.122441196689e-04       2.525171871366e+03 
       6.610859936996e-04       2.715889983593e+03 
       7.138242361596e-04       2.920509688380e+03 
       7.707696804727e-04       3.139945100279e+03 
       8.322579568497e-04       3.375152337585e+03 
       8.986514704559e-04       3.627127831141e+03 
       9.703415373875e-04       3.896905453136e+03 
       1.047750691046e-03       4.185552174302e+03 
       1.131335172503e-03       4.494162430373e+03 
       1.221587619537e-03       4.823850706495e+03 
       1.319039970183e-03       5.175742742740e+03 
       1.424266597921e-03       5.551019596901e+03 
       1.537887696968e-03       5.950788340556e+03 
       1.660572937635e-03       6.376123051784e+03 
       1.793045413292e-03       6.828073901447e+03 
       1.936085902198e-03       7.307625381066e+03 
       2.090537469327e-03       7.815671868442e+03 
       2.257310435294e-03       8.352990375816e+03 
       2.437387741694e-03       8.920211064346e+03 
       2.631830744443e-03       9.517783069111e+03 
       2.841785469300e-03       1.014593704435e+04 
       3.068489366414e-03       1.080464502786e+04 
       3.313278603720e-03       1.149357460341e+04 
       3.577595942169e-03       1.221203621722e+04 
       3.862999239199e-03       1.295892539445e+04 
       4.171170630578e-03       1.373266009126e+04 
       4.503926444729e-03       1.453111835624e+04 
       4.863227907969e-03       1.535154985280e+04 
       5.251192703764e-03       1.619063614439e+04 
       5.670107454120e-03       1.704431257730e+04 
       6.122441196689e-03       1.790755939722e+04 
       6.610859936996e-03       1.877460425020e+04 
       7.138242361596e-03       1.963872430587e+04 
       7.707696804727e-03       2.049215714824e+04 
       8.322579568496e-03       2.132606855023e+04 
       8.986514704559e-03       2.213054626084e+04 
       9.703415373875e-03       2.289445473042e+04 
       1.047750691046e-02       2.360547295401e+04 
       1.131335172503e-02       2.425022960835e+04 
       1.221587619537e-02       2.481423922027e+04 
       1.319039970183e-02       2.528218855640e+04 
       1.424266597920e-02       2.563814330126e+04 
       1.537887696964e-02       2.586606730165e+04 
       1.660572937560e-02       2.595026110718e+04 
       1.793045412207e-02       2.587635735609e+04 
       1.936085889642e-02       2.563219999818e+04 
       2.090537351881e-02       2.520932451374e+04 
       2.257309534705e-02       2.460447148184e+04 
       2.437382002240e-02       2.382089374691e+04 
       2.631799943729e-02       2.287043055954e+04 
       2.841644544598e-02       2.177449939754e+04 
       3.067933354524e-02       2.056555128990e+04 
       3.311368469821e-02       1.928730545110e+04 
       3.571840442514e-02       1.799400233234e+04 
       3.847720347390e-02       1.674681691216e+04 
       4.135335537314e-02       1.560462303816e+04 
       4.429361666563e-02       1.461040551938e+04 
       4.724366437916e-02       1.378052061206e+04 
       5.016480834039e-02       1.310510160468e+04 
       5.303989618930e-02       1.255715097641e+04 
       5.586870668205e-02       1.210425590369e+04 
       5.866042679206e-02       1.171463463720e+04 
       6.142798931504e-02       1.136045262485e+04 
       6.418496438662e-02       1.101855439961e+04 
       6.694418832236e-02       1.067065245210e+04 
       6.971731104453e-02       1.030354505689e+04 
       7.251476154108e-02       9.909017046661e+03 
       7.534587669814e-02       9.483689204979e+03 
       7.821907664495e-02       9.029486677330e+03 
       8.114203771084e-02       8.552312600460e+03 
       8.412184533139e-02       8.061965621023e+03 
       8.716512277352e-02       7.570790574391e+03 
       9.027813693913e-02       7.092480053441e+03 
       9.346688429613e-02       6.640478392454e+03 
       9.673716026122e-02       6.226713332216e+03 
       1.000946150608e-01       5.859947889254e+03 
       1.035447986307e-01       5.545264231718e+03 
       1.070931966524e-01       5.283159869161e+03 
       1.107452594180e-01       5.069434237327e+03 
       1.145064248899e-01       4.895245271603e+03 
       1.183821370656e-01       4.747839151309e+03 
       1.223778605591e-01       4.611735369514e+03 
       1.264990921707e-01       4.470609904712e+03 
       1.307513701078e-01       4.310266804731e+03 
       1.351402814485e-01       4.121366004002e+03 
       1.396714683894e-01       3.902042970745e+03 
       1.443506337875e-01       3.658651034862e+03 
       1.491835464900e-01       3.404479925455e+03 
       1.541760469368e-01       3.156690174766e+03 
       1.593340535209e-01       2.931964692365e+03 
       1.646635701934e-01       2.742373812593e+03 
       1.701706958081e-01       2.592250416918e+03 
       1.758616357070e-01       2.477244159917e+03 
       1.817427160581e-01       2.385183374758e+03 
       1.878204014651e-01       2.300340719440e+03 
       1.941013163855e-01       2.205755889448e+03 
       2.005922709060e-01       2.090814065362e+03 
       2.073002914514e-01       1.956460476732e+03 
       2.142326570343e-01       1.814190210778e+03 
       2.213969417044e-01       1.679283941009e+03 
       2.288010639201e-01       1.563840941877e+03 
       2.364533436625e-01       1.472683527983e+03 
       2.443625682390e-01       1.401518541981e+03 
       2.525380678946e-01       1.338410044154e+03 
       2.609898025770e-01       1.270899097750e+03 
       2.697284614969e-01       1.193381475837e+03 
       2.787655775073e-01       1.109338568357e+03 
       2.881136588192e-01       1.028771771870e+03 
       2.977863412019e-01       9.604755864173e+02 
       3.077985646248e-01       9.050197810102e+02 
       3.181667793367e-01       8.561443720473e+02 
       3.289091877084e-01       8.061863425214e+02 
       3.400460298905e-01       7.523922878750e+02 
       3.515999235695e-01       6.989176681326e+02 
       3.635962710278e-01       6.510599839404e+02 
       3.760637505499e-01       6.101192657679e+02 
       3.890349143014e-01       5.721282211617e+02 
       4.025469215929e-01       5.337800602841e+02 
       4.166424455447e-01       4.956293414577e+02 
       4.313708034899e-01       4.604666026951e+02 
       4.467893781976e-01       4.287766890675e+02 
       4.629654198623e-01       3.987704226431e+02 
       4.799783500912e-01       3.692394160121e+02 
       4.979227318246e-01       3.412372021803e+02 
       5.169121269689e-01       3.154794805829e+02 
       5.370841403262e-01       2.908323648813e+02 
       5.586070463286e-01       2.671031852717e+02 
       5.816885093582e-01       2.448087445278e+02 
       6.065870143577e-01       2.235662335739e+02 
       6.336266466978e-01       2.032092505639e+02 
       6.632156057925e-01       1.838770274211e+02 
       6.958678637575e-01       1.653539977910e+02 
       7.322247983784e-01       1.476947750046e+02 
       7.730680193171e-01       1.308333545818e+02 
       8.193049551574e-01       1.148311709946e+02 
       8.718988013754e-01       9.976253201354e+01 
       9.317218028590e-01       8.577759649221e+01 
       9.993660906273e-01       7.305451419919e+01 
       1.075037109879e+00       6.173564991234e+01 
       1.158653485387e+00       5.187893917523e+01 
       1.250099156961e+00       4.344001618166e+01 
       1.349432400897e+00       3.628888963727e+01 
       1.456947456991e+00       3.026794412140e+01 
       1.573135110893e+00       2.521450378597e+01 
       1.698621895119e+00       2.098193719819e+01 
       1.834127512423e+00       1.744237310828e+01 
       1.980444933977e+00       1.448562934375e+01 
       2.138435191130e+00       1.201884544087e+01 
       2.309029198543e+00       9.963167895141e+00 
       2.493232376993e+00       8.251772802216e+00 
       2.692130394536e+00       6.828538359636e+00 
       2.906895533764e+00       5.646213927665e+00 
       3.138793596840e+00       4.664831792187e+00 
       3.389191365541e+00       3.851091725649e+00 
       3.659564656886e+00       3.176935816832e+00 
       3.951507021438e+00       2.618871051983e+00 
       4.266739135513e+00       2.157336230624e+00 
       4.607118942658e+00       1.775906031390e+00 
       4.974652604172e+00       1.460972137826e+00 
       5.371506323193e+00       1.201111996172e+00 
       5.800019112071e+00       9.868636927097e-01 
       6.262716578240e+00       8.103388154827e-01 
       6.762325809881e+00       6.649926024982e-01 
       7.301791449077e+00       5.454130001519e-01 
       7.884293047211e+00       4.470857179416e-01 
       8.513263804891e+00       3.662864922501e-01 
       9.192410806865e+00       2.999279064430e-01 
       9.925736871166e+00       2.454676920151e-01 
       1.071756414128e+01       2.007971846953e-01 
       1.157255956041e+01       1.641748566735e-01 
       1.249576237789e+01       1.341666581589e-01 
       1.349261385000e+01       1.095934139404e-01 
       1.456898931011e+01       8.947936008519e-02 
       1.573123279727e+01       7.302424860728e-02 
       1.698619444729e+01       5.956860333641e-02 
       1.834127086665e+01       4.857173811985e-02 
       1.980444872733e+01       3.958809675540e-02 
       2.138435183937e+01       3.225255633230e-02 
       2.309029197863e+01       2.626515354809e-02 
       2.493232376942e+01       2.138046542196e-02 
       2.692130394533e+01       1.739694474379e-02 
       2.906895533764e+01       1.415003735734e-02 
       3.138793596840e+01       1.150411085704e-02 
       3.389191365541e+01       9.349011043596e-03 
       3.659564656886e+01       7.594411289497e-03 
       3.951507021438e+01       6.166479659449e-03 
       4.266739135513e+01       5.004768560042e-03 
       4.607118942658e+01       4.060050626490e-03 
       4.974652604172e+01       3.292084109985e-03 
       5.371506323193e+01       2.668049044915e-03 
       5.800019112071e+01       2.161098483134e-03 
       6.262716578240e+01       1.749458266584e-03 
       6.762325809881e+01       1.415369379757e-03 
