# Matter power spectrum P(k) at redshift z=0
# for k=1.04775e-05 to 66.1767 h/Mpc,
# number of wavenumbers equal to 130
#    1:k (h/Mpc)              2:P (Mpc/h)^3        
       1.047750691046e-05       5.020964811308e+01 
       1.319039970183e-05       6.270562594771e+01 
       1.660572937635e-05       7.831147247912e+01 
       2.090537469327e-05       9.780108069294e+01 
       2.631830744443e-05       1.221408203809e+02 
       3.313278603720e-05       1.525374501932e+02 
       4.171170630578e-05       1.904975994010e+02 
       5.251192703764e-05       2.379022224249e+02 
       6.610859936996e-05       2.970989227881e+02 
       8.322579568497e-05       3.710167318946e+02 
       1.047750691046e-04       4.633080766742e+02 
       1.319039970183e-04       5.785234129343e+02 
       1.660572937635e-04       7.223242666092e+02 
       2.090537469327e-04       9.017396271824e+02 
       2.631830744443e-04       1.125468123750e+03 
       3.313278603720e-04       1.404223053681e+03 
       4.171170630578e-04       1.751108028790e+03 
       5.251192703764e-04       2.181998448133e+03 
       6.610859936996e-04       2.715889983591e+03 
       8.322579568497e-04       3.375152337135e+03 
       1.047750691046e-03       4.185552174301e+03 
       1.319039970183e-03       5.175742739110e+03 
       1.660572937635e-03       6.376123051775e+03 
       2.090537469327e-03       7.815671905112e+03 
       2.631830744443e-03       9.517783069109e+03 
       3.313278603720e-03       1.149357460345e+04 
       4.171170630578e-03       1.373266010150e+04 
       5.251192703764e-03       1.619063614143e+04 
       6.610859936996e-03       1.877460415035e+04 
       8.322579568497e-03       2.132607235119e+04 
       1.047750691046e-02       2.360549210937e+04 
       1.319039970183e-02       2.528218884865e+04 
       1.660572937633e-02       2.595027197460e+04 
       2.090537453514e-02       2.520937191371e+04 
       2.631818545635e-02       2.287031809857e+04 
       3.311571692125e-02       1.928626513460e+04 
       4.113809243311e-02       1.568428980888e+04 
       4.792590854610e-02       1.361064853695e+04 
       5.284436902701e-02       1.259129766823e+04 
       5.689644391095e-02       1.195554866757e+04 
       6.051252627066e-02       1.147548078904e+04 
       6.388413457411e-02       1.105594863323e+04 
       6.711249296401e-02       1.064905197383e+04 
       7.025823437965e-02       1.022936747664e+04 
       7.336115587705e-02       9.784576622070e+03 
       7.644928796912e-02       9.311722431041e+03 
       7.954353299775e-02       8.814604903172e+03 
       8.266024078725e-02       8.302186390038e+03 
       8.581273398637e-02       7.786957290228e+03 
       8.901225918437e-02       7.283245251032e+03 
       9.226860540985e-02       6.805240097951e+03 
       9.559052048996e-02       6.365667549505e+03 
       9.898599946599e-02       5.974432982894e+03 
       1.024624891378e-01       5.637356857426e+03 
       1.060270359164e-01       5.355801712144e+03 
       1.096863943056e-01       5.126273109130e+03 
       1.134471073830e-01       4.940495578537e+03 
       1.173155669539e-01       4.786178070027e+03 
       1.212980586983e-01       4.647959420992e+03 
       1.254007961065e-01       4.509162469494e+03 
       1.296299459934e-01       4.354562426519e+03 
       1.339916477160e-01       4.173233669151e+03 
       1.384920277736e-01       3.961185933332e+03 
       1.431372111762e-01       3.722701310429e+03 
       1.479333307714e-01       3.469546885608e+03 
       1.528865355934e-01       3.218348130157e+03 
       1.580029992204e-01       2.986267703277e+03 
       1.632889290723e-01       2.786966132186e+03 
       1.687505775527e-01       2.626814285920e+03 
       1.743942559171e-01       2.503777953890e+03 
       1.802263517371e-01       2.407317680021e+03 
       1.862533508214e-01       2.322227771217e+03 
       1.924818644494e-01       2.231534773547e+03 
       1.989186627765e-01       2.122170054650e+03 
       2.055707152847e-01       1.992019534395e+03 
       2.124452391818e-01       1.850321961655e+03 
       2.195497567139e-01       1.712158550617e+03 
       2.268921624510e-01       1.590976486493e+03 
       2.344808017550e-01       1.493662458545e+03 
       2.423245618548e-01       1.418309030565e+03 
       2.504329772620e-01       1.354458856549e+03 
       2.588163516754e-01       1.288937991485e+03 
       2.674858990930e-01       1.213929742423e+03 
       2.764539076010e-01       1.130690557837e+03 
       2.857339303080e-01       1.048095329294e+03 
       2.953410092148e-01       9.761703464017e+02 
       3.052919395542e-01       9.177996037964e+02 
       3.156055844677e-01       8.678871626202e+02 
       3.263032530092e-01       8.185162896022e+02 
       3.374091587054e-01       7.651372173972e+02 
       3.489509817175e-01       7.106686942812e+02 
       3.609605657343e-01       6.607769434549e+02 
       3.734747921333e-01       6.180805230125e+02 
       3.865366902904e-01       5.793050353387e+02 
       4.001968667448e-01       5.403842028846e+02 
       4.145153713076e-01       5.011429476298e+02 
       4.295641718077e-01       4.644973490558e+02 
       4.454304922144e-01       4.314007462365e+02 
       4.622214006969e-01       4.001085197448e+02 
       4.800702491654e-01       3.690835306437e+02 
       4.991459272112e-01       3.394718031779e+02 
       5.196665217302e-01       3.119809497348e+02 
       5.419201087032e-01       2.852424304611e+02 
       5.662975451962e-01       2.593269412840e+02 
       5.933463737275e-01       2.345440517146e+02 
       6.238638458458e-01       2.102287468182e+02 
       6.590669257916e-01       1.864318227153e+02 
       7.009246080454e-01       1.627242308541e+02 
       7.528593308799e-01       1.388176508156e+02 
       8.213469537518e-01       1.141879410078e+02 
       9.196980813302e-01       8.835853929944e+01 
       1.075112183810e+00       6.172565784439e+01 
       1.322697471132e+00       3.804287086098e+01 
       1.662328205042e+00       2.209779665040e+01 
       2.092692408506e+00       1.266901507760e+01 
       2.634543445090e+00       7.203170498292e+00 
       3.316693691389e+00       4.065047912274e+00 
       4.175469971226e+00       2.278559938279e+00 
       5.256605252960e+00       1.269299249947e+00 
       6.617673932723e+00       7.030852205681e-01 
       8.331157880872e+00       3.874355927322e-01 
       1.048830636590e+01       2.124715001962e-01 
       1.320399541071e+01       1.160014454231e-01 
       1.662284535976e+01       6.306619314625e-02 
       2.092692243973e+01       3.414961447995e-02 
       2.634543445002e+01       1.841871753363e-02 
       3.316693691389e+01       9.894409765975e-03 
       4.175469971226e+01       5.292270850867e-03 
       5.256605252960e+01       2.816601802806e-03 
       6.617673932723e+01       1.489792106075e-03 
