# Matter power spectrum P(k) at redshift z=99
# for k=1.04775e-05 to 67.6233 h/Mpc,
# number of wavenumbers equal to 246
#    1:k (h/Mpc)              2:P (Mpc/h)^3        
       1.047750691046e-05       7.261927680861e-03 
       1.131335172503e-05       7.820331652431e-03 
       1.221587619537e-05       8.421675995453e-03 
       1.319039970183e-05       9.069258201848e-03 
       1.424266597921e-05       9.766638412133e-03 
       1.537887696968e-05       1.051764070801e-02 
       1.660572937635e-05       1.132639106725e-02 
       1.793045413292e-05       1.219733232715e-02 
       1.936085902198e-05       1.313524225779e-02 
       2.090537469327e-05       1.414527123399e-02 
       2.257310435294e-05       1.523296273823e-02 
       2.437387741694e-05       1.640429446288e-02 
       2.631830744443e-05       1.766569584058e-02 
       2.841785469300e-05       1.902408737005e-02 
       3.068489366414e-05       2.048692972772e-02 
       3.313278603720e-05       2.206225515942e-02 
       3.577595942169e-05       2.375870707438e-02 
       3.862999239199e-05       2.558560730202e-02 
       4.171170630578e-05       2.755297766277e-02 
       4.503926444729e-05       2.967161930473e-02 
       4.863227907969e-05       3.195316454233e-02 
       5.251192703764e-05       3.441013522947e-02 
       5.670107454120e-05       3.705601726469e-02 
       6.122441196689e-05       3.990533417795e-02 
       6.610859936996e-05       4.297372172777e-02 
       7.138242361596e-05       4.627802146614e-02 
       7.707696804727e-05       4.983636199464e-02 
       8.322579568497e-05       5.366826852944e-02 
       8.986514704559e-05       5.779476400721e-02 
       9.703415373875e-05       6.223848250510e-02 
       1.047750691046e-04       6.702379872774e-02 
       1.131335172503e-04       7.217695161063e-02 
       1.221587619537e-04       7.772619081844e-02 
       1.319039970183e-04       8.370193441286e-02 
       1.424266597921e-04       9.013692517141e-02 
       1.537887696968e-04       9.706641252902e-02 
       1.660572937635e-04       1.045283355384e-01 
       1.793045413292e-04       1.125635350266e-01 
       1.936085902198e-04       1.212159616259e-01 
       2.090537469327e-04       1.305329134104e-01 
       2.257310435294e-04       1.405652847711e-01 
       2.437387741694e-04       1.513678304151e-01 
       2.631830744443e-04       1.629994506605e-01 
       2.841785469300e-04       1.755234923092e-01 
       3.068489366414e-04       1.890080672425e-01 
       3.313278603720e-04       2.035264004601e-01 
       3.577595942169e-04       2.191571806013e-01 
       3.862999239199e-04       2.359849440103e-01 
       4.171170630578e-04       2.541004744243e-01 
       4.503926444729e-04       2.736012083189e-01 
       4.863227907969e-04       2.945916794099e-01 
       5.251192703764e-04       3.171839528557e-01 
       5.670107454121e-04       3.414980767635e-01 
       6.122441196689e-04       3.676625417011e-01 
       6.610859936996e-04       3.958147256513e-01 
       7.138242361596e-04       4.261013289362e-01 
       7.707696804727e-04       4.586787797352e-01 
       8.322579568497e-04       4.937136006294e-01 
       8.986514704559e-04       5.313826807049e-01 
       9.703415373875e-04       5.718734978233e-01 
       1.047750691046e-03       6.153841636040e-01 
       1.131335172503e-03       6.621233246495e-01 
       1.221587619537e-03       7.123098227991e-01 
       1.319039970183e-03       7.661720592425e-01 
       1.424266597921e-03       8.239546306465e-01 
       1.537887696968e-03       8.859011182851e-01 
       1.660572937635e-03       9.522588016483e-01 
       1.793045413292e-03       1.023280100902e+00 
       1.936085902198e-03       1.099216305740e+00 
       2.090537469327e-03       1.180312991699e+00 
       2.257310435294e-03       1.266804117181e+00 
       2.437387741694e-03       1.358904854832e+00 
       2.631830744443e-03       1.456802684686e+00 
       2.841785469300e-03       1.560646892157e+00 
       3.068489366414e-03       1.670536064245e+00 
       3.313278603720e-03       1.786503854043e+00 
       3.577595942169e-03       1.908502932769e+00 
       3.862999239199e-03       2.036387732816e+00 
       4.171170630578e-03       2.169896191420e+00 
       4.503926444729e-03       2.308631881359e+00 
       4.863227907969e-03       2.452047293460e+00 
       5.251192703764e-03       2.599430630722e+00 
       5.670107454120e-03       2.749896934606e+00 
       6.122441196689e-03       2.902386516276e+00 
       6.610859936996e-03       3.055668700710e+00 
       7.138242361596e-03       3.208356464659e+00 
       7.707696804727e-03       3.358923896284e+00 
       8.322579568496e-03       3.505724928962e+00 
       8.986514704559e-03       3.647009613199e+00 
       9.703415373875e-03       3.780923307770e+00 
       1.047750691046e-02       3.905490803643e+00 
       1.131335172503e-02       4.018588485050e+00 
       1.221587619537e-02       4.117901587904e+00 
       1.319039970183e-02       4.200915380758e+00 
       1.424266597920e-02       4.264942358393e+00 
       1.537887696964e-02       4.307216711825e+00 
       1.660572937560e-02       4.325060646817e+00 
       1.793045412207e-02       4.316058514797e+00 
       1.936085889642e-02       4.278233017052e+00 
       2.090537351881e-02       4.210205754318e+00 
       2.257309534705e-02       4.111418266273e+00 
       2.437382002240e-02       3.982421095633e+00 
       2.631799943729e-02       3.825171511902e+00 
       2.841644544598e-02       3.643279719969e+00 
       3.067933354524e-02       3.442195063302e+00 
       3.311368469821e-02       3.229238561078e+00 
       3.571840442514e-02       3.013509909777e+00 
       3.847720347390e-02       2.805285513313e+00 
       4.135335537314e-02       2.614409527696e+00 
       4.429361666563e-02       2.448134958450e+00 
       4.724366437916e-02       2.309235007647e+00 
       5.016480834039e-02       2.196116254391e+00 
       5.303989618930e-02       2.104370535595e+00 
       5.586870668205e-02       2.028465182386e+00 
       5.866042679206e-02       1.963151328616e+00 
       6.142798931504e-02       1.903781297159e+00 
       6.418496438662e-02       1.846477583921e+00 
       6.694418832236e-02       1.788199493764e+00 
       6.971731104453e-02       1.726717706005e+00 
       7.251476154108e-02       1.660654139861e+00 
       7.534587669814e-02       1.589469926596e+00 
       7.821907664495e-02       1.513440377152e+00 
       8.114203771084e-02       1.433570937376e+00 
       8.412184533139e-02       1.351495389190e+00 
       8.716512277352e-02       1.269272440732e+00 
       9.027813693913e-02       1.189192671251e+00 
       9.346688429613e-02       1.113499547467e+00 
       9.673716026122e-02       1.044176332136e+00 
       1.000946150608e-01       9.827067479361e-01 
       1.035447986307e-01       9.299383072356e-01 
       1.070931966524e-01       8.859594881308e-01 
       1.107452594180e-01       8.500701748897e-01 
       1.145064248899e-01       8.208030611544e-01 
       1.183821370656e-01       7.960242821996e-01 
       1.223778605591e-01       7.731452544325e-01 
       1.264990921707e-01       7.494522164617e-01 
       1.307513701078e-01       7.225578559045e-01 
       1.351402814485e-01       6.909091648819e-01 
       1.396714683894e-01       6.541815138452e-01 
       1.443506337875e-01       6.134289247244e-01 
       1.491835464900e-01       5.708685726306e-01 
       1.541760469368e-01       5.293641958234e-01 
       1.593340535209e-01       4.917113990611e-01 
       1.646635701934e-01       4.599204508420e-01 
       1.701706958081e-01       4.347281157398e-01 
       1.758616357070e-01       4.154084469759e-01 
       1.817427160581e-01       3.999376431009e-01 
       1.878204014651e-01       3.856825952865e-01 
       1.941013163855e-01       3.698100288787e-01 
       2.005922709060e-01       3.505466903829e-01 
       2.073002914514e-01       3.280428374315e-01 
       2.142326570343e-01       3.042138406956e-01 
       2.213969417044e-01       2.816122783037e-01 
       2.288010639201e-01       2.622568276931e-01 
       2.364533436625e-01       2.469622749745e-01 
       2.443625682390e-01       2.350128459526e-01 
       2.525380678946e-01       2.244175003420e-01 
       2.609898025770e-01       2.130941140817e-01 
       2.697284614969e-01       2.001016762220e-01 
       2.787655775073e-01       1.860193132146e-01 
       2.881136588192e-01       1.725174128507e-01 
       2.977863412019e-01       1.610661442096e-01 
       3.077985646248e-01       1.517611628531e-01 
       3.181667793367e-01       1.435593126010e-01 
       3.289091877084e-01       1.351811792582e-01 
       3.400460298905e-01       1.261644982595e-01 
       3.515999235695e-01       1.172016402416e-01 
       3.635962710278e-01       1.091770530385e-01 
       3.760637505499e-01       1.023094925902e-01 
       3.890349143014e-01       9.593784143762e-02 
       4.025469215929e-01       8.950761791381e-02 
       4.166424455447e-01       8.311167575723e-02 
       4.313708034899e-01       7.721547888985e-02 
       4.467893781976e-01       7.190068445805e-02 
       4.629654198623e-01       6.686920463786e-02 
       4.799783500912e-01       6.191752646915e-02 
       4.979227318246e-01       5.722237018297e-02 
       5.169121269689e-01       5.290287970822e-02 
       5.370841403262e-01       4.876978454662e-02 
       5.586070463286e-01       4.479095629268e-02 
       5.816885093582e-01       4.105190141565e-02 
       6.065870143577e-01       3.748997241650e-02 
       6.336266466978e-01       3.407632958575e-02 
       6.632156057925e-01       3.083463790067e-02 
       6.958678637575e-01       2.772823466015e-02 
       7.322247983784e-01       2.476710311231e-02 
       7.730680193171e-01       2.193959349266e-02 
       8.193049551574e-01       1.925618148014e-02 
       8.718988013754e-01       1.672923497926e-02 
       9.317218028590e-01       1.438419671689e-02 
       9.993660906273e-01       1.225069628165e-02 
       1.075037109879e+00       1.035262381301e-02 
       1.158653485387e+00       8.699746783112e-03 
       1.250099156961e+00       7.284572112376e-03 
       1.349432400897e+00       6.085478252665e-03 
       1.456947456991e+00       5.075721463806e-03 
       1.573135110893e+00       4.228321911464e-03 
       1.698621895119e+00       3.518556256579e-03 
       1.834127512423e+00       2.924972801535e-03 
       1.980444933977e+00       2.429161799342e-03 
       2.138435191130e+00       2.015504629450e-03 
       2.309029198543e+00       1.670772700817e-03 
       2.493232376993e+00       1.383791264604e-03 
       2.692130394536e+00       1.145130918571e-03 
       2.906895533764e+00       9.468539118716e-04 
       3.138793596840e+00       7.822939009329e-04 
       3.389191365541e+00       6.458230860034e-04 
       3.659564656886e+00       5.327691126187e-04 
       3.951507021438e+00       4.391868767542e-04 
       4.266739135513e+00       3.617891164388e-04 
       4.607118942658e+00       2.978272838633e-04 
       4.974652604172e+00       2.450136045676e-04 
       5.371506323193e+00       2.014356499163e-04 
       5.800019112071e+00       1.655070651937e-04 
       6.262716578240e+00       1.359032765247e-04 
       6.762325809881e+00       1.115289647805e-04 
       7.301791449077e+00       9.147554473133e-05 
       7.884293047211e+00       7.498515190798e-05 
       8.513263804891e+00       6.143540793403e-05 
       9.192410806865e+00       5.030729443724e-05 
       9.925736871166e+00       4.117417357675e-05 
       1.071756414128e+01       3.368239726797e-05 
       1.157255956041e+01       2.754009871133e-05 
       1.249576237789e+01       2.250774146683e-05 
       1.349261385000e+01       1.838621367981e-05 
       1.456898931011e+01       1.501278135387e-05 
       1.573123279727e+01       1.225290211068e-05 
       1.698619444729e+01       9.995999572214e-06 
       1.834127086665e+01       8.151449784827e-06 
       1.980444872733e+01       6.644443315176e-06 
       2.138435183937e+01       5.413854700643e-06 
       2.309029197863e+01       4.409326429642e-06 
       2.493232376942e+01       3.589809076189e-06 
       2.692130394533e+01       2.921356249451e-06 
       2.906895533764e+01       2.376424572250e-06 
       3.138793596840e+01       1.932315433797e-06 
       3.389191365541e+01       1.570538991475e-06 
       3.659564656886e+01       1.275913219564e-06 
       3.951507021438e+01       1.036061065850e-06 
       4.266739135513e+01       8.408692912843e-07 
       4.607118942658e+01       6.820737795381e-07 
       4.974652604172e+01       5.529166305537e-07 
       5.371506323193e+01       4.479003023988e-07 
       5.800019112071e+01       3.625364999458e-07 
       6.262716578240e+01       2.931644949863e-07 
       6.762325809881e+01       2.367996263481e-07 
