# Matter power spectrum P(k) at redshift z=99
# for k=1.04775e-05 to 66.1767 h/Mpc,
# number of wavenumbers equal to 130
#    1:k (h/Mpc)              2:P (Mpc/h)^3        
       1.047750691046e-05       7.261927699638e-03 
       1.319039970183e-05       9.069258225303e-03 
       1.660572937635e-05       1.132639109650e-02 
       2.090537469327e-05       1.414527127056e-02 
       2.631830744443e-05       1.766569573728e-02 
       3.313278603720e-05       2.206225521640e-02 
       4.171170630578e-05       2.755297773399e-02 
       5.251192703764e-05       3.441013531839e-02 
       6.610859936996e-05       4.297372183868e-02 
       8.322579568497e-05       5.366826866774e-02 
       1.047750691046e-04       6.702379890027e-02 
       1.319039970183e-04       8.370193463010e-02 
       1.660572937635e-04       1.045283358055e-01 
       2.090537469327e-04       1.305329137417e-01 
       2.631830744443e-04       1.629994510701e-01 
       3.313278603720e-04       2.035264009623e-01 
       4.171170630578e-04       2.541004750337e-01 
       5.251192703764e-04       3.171839535789e-01 
       6.610859936996e-04       3.958147264887e-01 
       8.322579568497e-04       4.937136015389e-01 
       1.047750691046e-03       6.153841644674e-01 
       1.319039970183e-03       7.661720597691e-01 
       1.660572937635e-03       9.522588009920e-01 
       2.090537469327e-03       1.180312987787e+00 
       2.631830744443e-03       1.456802671602e+00 
       3.313278603720e-03       1.786503811282e+00 
       4.171170630578e-03       2.169896002731e+00 
       5.251192703764e-03       2.599429960724e+00 
       6.610859936996e-03       3.055665590709e+00 
       8.322579568497e-03       3.505715049947e+00 
       1.047750691046e-02       3.905459427925e+00 
       1.319039970183e-02       4.200833627191e+00 
       1.660572937633e-02       4.324860172944e+00 
       2.090537453514e-02       4.209732126211e+00 
       2.631818545635e-02       3.824124140448e+00 
       3.311571692125e-02       3.227008461291e+00 
       4.113809243311e-02       2.624056854191e+00 
       4.792590854610e-02       2.275473336645e+00 
       5.284436902701e-02       2.103392660810e+00 
       5.689644391095e-02       1.995580137424e+00 
       6.051252627066e-02       1.913856824630e+00 
       6.388413457411e-02       1.842284296710e+00 
       6.711249296401e-02       1.772836542580e+00 
       7.025823437965e-02       1.701226339136e+00 
       7.336115587705e-02       1.625396188272e+00 
       7.644928796912e-02       1.544836658767e+00 
       7.954353299775e-02       1.460186061858e+00 
       8.266024078725e-02       1.372953570351e+00 
       8.581273398637e-02       1.285214899363e+00 
       8.901225918437e-02       1.199359504500e+00 
       9.226860540985e-02       1.117762875207e+00 
       9.559052048996e-02       1.042550786398e+00 
       9.898599946599e-02       9.753540659131e-01 
       1.024624891378e-01       9.171277603728e-01 
       1.060270359164e-01       8.680831816290e-01 
       1.096863943056e-01       8.276042936503e-01 
       1.134471073830e-01       7.943129984806e-01 
       1.173155669539e-01       7.661419681459e-01 
       1.212980586983e-01       7.405364937705e-01 
       1.254007961065e-01       7.147460868538e-01 
       1.296299459934e-01       6.862643875441e-01 
       1.339916477160e-01       6.533065326362e-01 
       1.384920277736e-01       6.152480350539e-01 
       1.431372111762e-01       5.728271846372e-01 
       1.479333307714e-01       5.280224136307e-01 
       1.528865355934e-01       4.835615505735e-01 
       1.580029992204e-01       4.422484128105e-01 
       1.632889290723e-01       4.062539094287e-01 
       1.687505775527e-01       3.765626322031e-01 
       1.743942559171e-01       3.527736836240e-01 
       1.802263517371e-01       3.331785526552e-01 
       1.862533508214e-01       3.153765122118e-01 
       1.924818644494e-01       2.967296676527e-01 
       1.989186627765e-01       2.752842889946e-01 
       2.055707152847e-01       2.508044805197e-01 
       2.124452391818e-01       2.247832793460e-01 
       2.195497567139e-01       1.995468042492e-01 
       2.268921624510e-01       1.770678731501e-01 
       2.344808017550e-01       1.582922117578e-01 
       2.423245618548e-01       1.428663600937e-01 
       2.504329772620e-01       1.293104018031e-01 
       2.588163516754e-01       1.158777994654e-01 
       2.674858990930e-01       1.016302478673e-01 
       2.764539076010e-01       8.684309936072e-02 
       2.857339303080e-01       7.270250615817e-02 
       2.953410092148e-01       6.039538794741e-02 
       3.052919395542e-01       5.017831235146e-02 
       3.156055844677e-01       4.145927551895e-02 
       3.263032530092e-01       3.345685936953e-02 
       3.374091587054e-01       2.582980870694e-02 
       3.489509817175e-01       1.891434787107e-02 
       3.609605657343e-01       1.317297755097e-02 
       3.734747921333e-01       8.722375056690e-03 
       3.865366902904e-01       5.303662106838e-03 
       4.001968667448e-01       2.707954001177e-03 
       4.145153713076e-01       9.559761297397e-04 
       4.295641718077e-01       1.077811463934e-04 
       4.454304922144e-01       8.106856695469e-05 
       4.622214006969e-01       7.562994871587e-04 
       4.800702491654e-01       2.066278337875e-03 
       4.991459272112e-01       3.883816156719e-03 
       5.196665217302e-01       5.998787060347e-03 
       5.419201087032e-01       8.264791776697e-03 
       5.662975451962e-01       1.045246579920e-02 
       5.933463737275e-01       1.223579851419e-02 
       6.238638458458e-01       1.331701854341e-02 
       6.590669257916e-01       1.329353508136e-02 
       7.009246080454e-01       1.179311827527e-02 
       7.528593308799e-01       8.570865338187e-03 
       8.213469537518e-01       4.014704208406e-03 
       9.196980813302e-01       2.993349007188e-04 
       1.075112183810e+00       1.236619587526e-03 
       1.322697471132e+00       1.223250484261e-03 
       1.662328205042e+00       2.826412599674e-04 
       2.092692408506e+00       8.271304373496e-07 
       2.634543445090e+00       6.406389168524e-06 
       3.316693691389e+00       7.316370065473e-08 
       4.175469971226e+00       7.074870726651e-07 
       5.256605252960e+00       2.898599639527e-09 
       6.617673932723e+00       1.568404061011e-10 
       8.331157880872e+00       9.930367262673e-11 
       1.048830636590e+01       2.452816350160e-13 
       1.320399541071e+01       4.125882693314e-14 
       1.662284535976e+01       6.943588844426e-15 
       2.092692243973e+01       7.822249985889e-16 
       2.634543445002e+01       2.777981143874e-17 
       3.316693691389e+01       1.391363474548e-19 
       4.175469971226e+01       8.926165901222e-20 
       5.256605252960e+01       3.187535928833e-21 
       6.617673932723e+01       7.136053400924e-23 
