# Matter power spectrum P(k) at redshift z=99
# for k=1.04775e-05 to 67.6233 h/Mpc,
# number of wavenumbers equal to 246
#    1:k (h/Mpc)              2:P (Mpc/h)^3        
       1.047750691338e-05       7.261927673119e-03 
       1.131335172818e-05       7.820331745737e-03 
       1.221587619877e-05       8.421675986489e-03 
       1.319039970550e-05       9.069258192194e-03 
       1.424266598317e-05       9.766638404421e-03 
       1.537887697396e-05       1.051764069682e-02 
       1.660572938097e-05       1.132639105520e-02 
       1.793045413791e-05       1.219733231416e-02 
       1.936085902737e-05       1.313524224380e-02 
       2.090537469909e-05       1.414527121893e-02 
       2.257310435923e-05       1.523296272192e-02 
       2.437387742372e-05       1.640429444530e-02 
       2.631830745176e-05       1.766569582178e-02 
       2.841785470091e-05       1.902408601793e-02 
       3.068489367268e-05       2.048692970591e-02 
       3.313278604643e-05       2.206225513594e-02 
       3.577595943165e-05       2.375870704909e-02 
       3.862999240274e-05       2.558560727479e-02 
       4.171170631739e-05       2.755297763344e-02 
       4.503926445983e-05       2.967161927315e-02 
       4.863227909323e-05       3.195316450832e-02 
       5.251192705226e-05       3.441013519284e-02 
       5.670107455699e-05       3.705601722527e-02 
       6.122441198393e-05       3.990533413560e-02 
       6.610859938837e-05       4.297372168203e-02 
       7.138242363583e-05       4.627802141688e-02 
       7.707696806873e-05       4.983636194159e-02 
       8.322579570814e-05       5.366826847231e-02 
       8.986514707061e-05       5.779476394568e-02 
       9.703415376577e-05       6.223848243885e-02 
       1.047750691338e-04       6.702379865640e-02 
       1.131335172818e-04       7.217695153381e-02 
       1.221587619877e-04       7.772619073571e-02 
       1.319039970550e-04       8.370193432376e-02 
       1.424266598317e-04       9.013692507548e-02 
       1.537887697396e-04       9.706641242570e-02 
       1.660572938097e-04       1.045283354271e-01 
       1.793045413791e-04       1.125635349068e-01 
       1.936085902737e-04       1.212159614968e-01 
       2.090537469909e-04       1.305329132714e-01 
       2.257310435923e-04       1.405652846215e-01 
       2.437387742372e-04       1.513678302540e-01 
       2.631830745176e-04       1.629994504870e-01 
       2.841785470091e-04       1.755234921224e-01 
       3.068489367268e-04       1.890080670413e-01 
       3.313278604643e-04       2.035264002435e-01 
       3.577595943165e-04       2.191571803681e-01 
       3.862999240274e-04       2.359849437592e-01 
       4.171170631739e-04       2.541004741539e-01 
       4.503926445983e-04       2.736012080277e-01 
       4.863227909323e-04       2.945916790965e-01 
       5.251192705226e-04       3.171839525183e-01 
       5.670107455699e-04       3.414980764002e-01 
       6.122441198393e-04       3.676625413100e-01 
       6.610859938837e-04       3.958147252303e-01 
       7.138242363583e-04       4.261013284917e-01 
       7.707696806873e-04       4.586787792350e-01 
       8.322579570814e-04       4.937136001359e-01 
       8.986514707061e-04       5.313826801402e-01 
       9.703415376577e-04       5.718734972157e-01 
       1.047750691338e-03       6.153841629505e-01 
       1.131335172818e-03       6.621233239465e-01 
       1.221587619877e-03       7.123098220430e-01 
       1.319039970550e-03       7.661720584370e-01 
       1.424266598317e-03       8.239546297731e-01 
       1.537887697396e-03       8.859011173466e-01 
       1.660572938097e-03       9.522588006421e-01 
       1.793045413791e-03       1.023280099819e+00 
       1.936085902737e-03       1.099216304579e+00 
       2.090537469909e-03       1.180312990453e+00 
       2.257310435923e-03       1.266804115851e+00 
       2.437387742372e-03       1.358904853405e+00 
       2.631830745176e-03       1.456802683156e+00 
       2.841785470091e-03       1.560646890522e+00 
       3.068489367268e-03       1.670536062500e+00 
       3.313278604643e-03       1.786503852158e+00 
       3.577595943165e-03       1.908502930788e+00 
       3.862999240274e-03       2.036387730709e+00 
       4.171170631739e-03       2.169896178817e+00 
       4.503926445983e-03       2.308631878994e+00 
       4.863227909323e-03       2.452047290962e+00 
       5.251192705226e-03       2.599430628088e+00 
       5.670107455699e-03       2.749896931863e+00 
       6.122441198393e-03       2.902386513385e+00 
       6.610859938837e-03       3.055668699799e+00 
       7.138242363583e-03       3.208356461549e+00 
       7.707696806873e-03       3.358923892558e+00 
       8.322579570814e-03       3.505725595258e+00 
       8.986514707061e-03       3.647009702662e+00 
       9.703415376577e-03       3.780923304286e+00 
       1.047750691338e-02       3.905491520599e+00 
       1.131335172818e-02       4.018587954388e+00 
       1.221587619877e-02       4.117901586083e+00 
       1.319039970550e-02       4.200915298555e+00 
       1.424266598317e-02       4.264943122887e+00 
       1.537887697392e-02       4.307218334959e+00 
       1.660572938023e-02       4.325061028701e+00 
       1.793045412706e-02       4.316057420114e+00 
       1.936085890181e-02       4.278233016503e+00 
       2.090537352463e-02       4.210207321005e+00 
       2.257309535333e-02       4.111420401476e+00 
       2.437382002918e-02       3.982421589357e+00 
       2.631799944462e-02       3.825163876517e+00 
       2.841644545389e-02       3.643284476634e+00 
       3.067933355377e-02       3.442192519286e+00 
       3.311368470740e-02       3.229226225741e+00 
       3.571840443502e-02       3.013502069299e+00 
       3.847720348444e-02       2.805278151530e+00 
       4.135335538431e-02       2.614405365722e+00 
       4.429361667738e-02       2.448131976640e+00 
       4.724366439141e-02       2.309237601854e+00 
       5.016480835311e-02       2.196114666253e+00 
       5.303989620246e-02       2.104364798834e+00 
       5.586870669566e-02       2.028469427094e+00 
       5.866042680613e-02       1.963153198014e+00 
       6.142798932958e-02       1.903778731360e+00 
       6.418496440164e-02       1.846479692477e+00 
       6.694418833788e-02       1.788197541046e+00 
       6.971731106057e-02       1.726715485273e+00 
       7.251476155766e-02       1.660656022809e+00 
       7.534587671527e-02       1.589471603073e+00 
       7.821907666265e-02       1.513438596213e+00 
       8.114203772912e-02       1.433571180986e+00 
       8.412184535029e-02       1.351490097461e+00 
       8.716512279304e-02       1.269271577994e+00 
       9.027813695930e-02       1.189192258681e+00 
       9.346688431697e-02       1.113500428656e+00 
       9.673716028276e-02       1.044179038520e+00 
       1.000946150830e-01       9.827018237244e-01 
       1.035447986537e-01       9.299452539078e-01 
       1.070931966762e-01       8.859594209798e-01 
       1.107452594425e-01       8.500709920466e-01 
       1.145064249153e-01       8.208032011866e-01 
       1.183821370918e-01       7.960269301454e-01 
       1.223778605862e-01       7.731474303059e-01 
       1.264990921987e-01       7.494513607025e-01 
       1.307513701367e-01       7.225578549998e-01 
       1.351402814784e-01       6.909102771483e-01 
       1.396714684203e-01       6.541802840379e-01 
       1.443506338194e-01       6.134277786225e-01 
       1.491835465229e-01       5.708677130015e-01 
       1.541760469708e-01       5.293629052053e-01 
       1.593340535561e-01       4.917101649851e-01 
       1.646635702297e-01       4.599201572181e-01 
       1.701706958456e-01       4.347289137961e-01 
       1.758616357459e-01       4.154081638056e-01 
       1.817427160982e-01       3.999370642539e-01 
       1.878204015065e-01       3.856823118788e-01 
       1.941013164283e-01       3.698086479480e-01 
       2.005922709503e-01       3.505459732910e-01 
       2.073002914972e-01       3.280426892657e-01 
       2.142326570816e-01       3.042137905097e-01 
       2.213969417533e-01       2.816126854339e-01 
       2.288010639706e-01       2.622577181984e-01 
       2.364533437147e-01       2.469630110505e-01 
       2.443625682930e-01       2.350129311346e-01 
       2.525380679504e-01       2.244175354901e-01 
       2.609898026346e-01       2.130940883555e-01 
       2.697284615565e-01       2.001009204087e-01 
       2.787655775689e-01       1.860196182846e-01 
       2.881136588829e-01       1.725173028105e-01 
       2.977863412677e-01       1.610659033355e-01 
       3.077985646929e-01       1.517611579047e-01 
       3.181667794071e-01       1.435592947717e-01 
       3.289091877812e-01       1.351815819543e-01 
       3.400460299658e-01       1.261642856959e-01 
       3.515999236474e-01       1.172021739467e-01 
       3.635962711085e-01       1.091768171936e-01 
       3.760637506334e-01       1.023095198304e-01 
       3.890349143879e-01       9.593767802331e-02 
       4.025469216825e-01       8.950761080034e-02 
       4.166424456376e-01       8.311153065001e-02 
       4.313708035863e-01       7.721573638017e-02 
       4.467893782977e-01       7.190062393731e-02 
       4.629654199664e-01       6.686921125318e-02 
       4.799783501994e-01       6.191764677206e-02 
       4.979227319373e-01       5.722232501167e-02 
       5.169121270864e-01       5.290302536734e-02 
       5.370841404489e-01       4.876984496007e-02 
       5.586070464571e-01       4.479097774292e-02 
       5.816885094930e-01       4.105182359003e-02 
       6.065870144995e-01       3.749007190916e-02 
       6.336266468475e-01       3.407631028579e-02 
       6.632156059511e-01       3.083463679093e-02 
       6.958678639263e-01       2.772828389082e-02 
       7.322247985589e-01       2.476714688040e-02 
       7.730680195114e-01       2.193963855170e-02 
       8.193049553677e-01       1.925622624990e-02 
       8.718988016039e-01       1.672931807547e-02 
       9.317218031082e-01       1.438424909614e-02 
       9.993660908989e-01       1.225066409917e-02 
       1.075037110174e+00       1.035262559091e-02 
       1.158653485707e+00       8.699735391532e-03 
       1.250099157308e+00       7.284615944395e-03 
       1.349432401273e+00       6.085449384793e-03 
       1.456947457397e+00       5.075713836247e-03 
       1.573135111331e+00       4.228309569788e-03 
       1.698621895592e+00       3.518552945542e-03 
       1.834127512934e+00       2.924981097012e-03 
       1.980444934528e+00       2.429164033615e-03 
       2.138435191726e+00       2.015515111288e-03 
       2.309029199186e+00       1.670781645365e-03 
       2.493232377687e+00       1.383798273818e-03 
       2.692130395285e+00       1.145129200380e-03 
       2.906895534573e+00       9.468576565354e-04 
       3.138793597714e+00       7.822898001260e-04 
       3.389191366484e+00       6.458241970920e-04 
       3.659564657905e+00       5.327681928500e-04 
       3.951507022538e+00       4.391860486284e-04 
       4.266739136701e+00       3.617883542547e-04 
       4.607118943941e+00       2.978277520531e-04 
       4.974652605557e+00       2.450124946660e-04 
       5.371506324689e+00       2.014363262746e-04 
       5.800019113685e+00       1.655057283030e-04 
       6.262716579983e+00       1.359037795111e-04 
       6.762325811764e+00       1.115296628441e-04 
       7.301791451110e+00       9.147607677218e-05 
       7.884293049406e+00       7.498567116807e-05 
       8.513263807261e+00       6.143585739822e-05 
       9.192410809424e+00       5.030828134730e-05 
       9.925736873929e+00       4.117447575040e-05 
       1.071756414427e+01       3.368294492388e-05 
       1.157255956364e+01       2.754083446555e-05 
       1.249576238137e+01       2.250825956555e-05 
       1.349261385375e+01       1.838691427988e-05 
       1.456898931416e+01       1.501345263426e-05 
       1.573123280165e+01       1.225352056652e-05 
       1.698619445202e+01       9.996808602016e-06 
       1.834127087176e+01       8.152255172787e-06 
       1.980444873285e+01       6.645334191994e-06 
       2.138435184532e+01       5.414773634599e-06 
       2.309029198506e+01       4.410316742351e-06 
       2.493232377636e+01       3.590788852687e-06 
       2.692130395282e+01       2.922435197728e-06 
       2.906895534573e+01       2.377505961708e-06 
       3.138793597714e+01       1.933480245120e-06 
       3.389191366484e+01       1.571733636045e-06 
       3.659564657905e+01       1.277172224243e-06 
       3.951507022538e+01       1.037384416140e-06 
       4.266739136701e+01       8.422464772091e-07 
       4.607118943941e+01       6.834993479858e-07 
       4.974652605557e+01       5.544026839518e-07 
       5.371506324689e+01       4.494416665633e-07 
       5.800019113685e+01       3.641310083048e-07 
       6.262716579983e+01       2.948061861675e-07 
       6.762325811764e+01       2.384909505768e-07 
