# Matter power spectrum P(k) at redshift z=99
# for k=1.04775e-05 to 66.1767 h/Mpc,
# number of wavenumbers equal to 130
#    1:k (h/Mpc)              2:P (Mpc/h)^3        
       1.047750691046e-05       7.261927680862e-03 
       1.319039970183e-05       9.069258201849e-03 
       1.660572937635e-05       1.132639106725e-02 
       2.090537469327e-05       1.414527123399e-02 
       2.631830744443e-05       1.766569584058e-02 
       3.313278603720e-05       2.206225515942e-02 
       4.171170630578e-05       2.755297766277e-02 
       5.251192703764e-05       3.441013522947e-02 
       6.610859936996e-05       4.297372172778e-02 
       8.322579568497e-05       5.366826852944e-02 
       1.047750691046e-04       6.702379872775e-02 
       1.319039970183e-04       8.370193441286e-02 
       1.660572937635e-04       1.045283355384e-01 
       2.090537469327e-04       1.305329134104e-01 
       2.631830744443e-04       1.629994506606e-01 
       3.313278603720e-04       2.035264004601e-01 
       4.171170630578e-04       2.541004744243e-01 
       5.251192703764e-04       3.171839528557e-01 
       6.610859936996e-04       3.958147256513e-01 
       8.322579568497e-04       4.937136006296e-01 
       1.047750691046e-03       6.153841636042e-01 
       1.319039970183e-03       7.661720592912e-01 
       1.660572937635e-03       9.522588016483e-01 
       2.090537469327e-03       1.180312991698e+00 
       2.631830744443e-03       1.456802684686e+00 
       3.313278603720e-03       1.786503854043e+00 
       4.171170630578e-03       2.169896193563e+00 
       5.251192703764e-03       2.599430630720e+00 
       6.610859936996e-03       3.055668713101e+00 
       8.322579568497e-03       3.505725158572e+00 
       1.047750691046e-02       3.905491066283e+00 
       1.319039970183e-02       4.200915371696e+00 
       1.660572937633e-02       4.325062796772e+00 
       2.090537453514e-02       4.210199774507e+00 
       2.631818545635e-02       3.825150450998e+00 
       3.311571692125e-02       3.229066953490e+00 
       4.113809243311e-02       2.627728503892e+00 
       4.792590854610e-02       2.280789614671e+00 
       5.284436902701e-02       2.110087119665e+00 
       5.689644391095e-02       2.003538812830e+00 
       6.051252627066e-02       1.923057721942e+00 
       6.388413457411e-02       1.852733331690e+00 
       6.711249296401e-02       1.784565694908e+00 
       7.025823437965e-02       1.714275766873e+00 
       7.336115587705e-02       1.639814943645e+00 
       7.644928796912e-02       1.560660075997e+00 
       7.954353299775e-02       1.477459027654e+00 
       8.266024078725e-02       1.391698402784e+00 
       8.581273398637e-02       1.305462592474e+00 
       8.901225918437e-02       1.221128713740e+00 
       9.226860540985e-02       1.141076409971e+00 
       9.559052048996e-02       1.067454547620e+00 
       9.898599946599e-02       1.001890645235e+00 
       1.024624891378e-01       9.453796884468e-01 
       1.060270359164e-01       8.981488292703e-01 
       1.096863943056e-01       8.596152077226e-01 
       1.134471073830e-01       8.284041638325e-01 
       1.173155669539e-01       8.024681089074e-01 
       1.212980586983e-01       7.792303638710e-01 
       1.254007961065e-01       7.559189476152e-01 
       1.296299459934e-01       7.299811756245e-01 
       1.339916477160e-01       6.995932664690e-01 
       1.384920277736e-01       6.640792266821e-01 
       1.431372111762e-01       6.241470096569e-01 
       1.479333307714e-01       5.817644632971e-01 
       1.528865355934e-01       5.396932600101e-01 
       1.580029992204e-01       5.008132411086e-01 
       1.632889290723e-01       4.673984851308e-01 
       1.687505775527e-01       4.405341053421e-01 
       1.743942559171e-01       4.198651034334e-01 
       1.802263517371e-01       4.036594742097e-01 
       1.862533508214e-01       3.893590996727e-01 
       1.924818644494e-01       3.741348384064e-01 
       1.989186627765e-01       3.558014016219e-01 
       2.055707152847e-01       3.340002175117e-01 
       2.124452391818e-01       3.102652682538e-01 
       2.195497567139e-01       2.871217698755e-01 
       2.268921624510e-01       2.668084049840e-01 
       2.344808017550e-01       2.504833734066e-01 
       2.423245618548e-01       2.378330746320e-01 
       2.504329772620e-01       2.271122202237e-01 
       2.588163516754e-01       2.161177830676e-01 
       2.674858990930e-01       2.035461622079e-01 
       2.764539076010e-01       1.895981397250e-01 
       2.857339303080e-01       1.757573559671e-01 
       2.953410092148e-01       1.636994469413e-01 
       3.052919395542e-01       1.539063100463e-01 
       3.156055844677e-01       1.455310265665e-01 
       3.263032530092e-01       1.372504739165e-01 
       3.374091587054e-01       1.283027832560e-01 
       3.489509817175e-01       1.191709901354e-01 
       3.609605657343e-01       1.108073072402e-01 
       3.734747921333e-01       1.036449268552e-01 
       3.865366902904e-01       9.714124939271e-02 
       4.001968667448e-01       9.061559012095e-02 
       4.145153713076e-01       8.403713784022e-02 
       4.295641718077e-01       7.789093125189e-02 
       4.454304922144e-01       7.234164460816e-02 
       4.622214006969e-01       6.709395014394e-02 
       4.800702491654e-01       6.189191621833e-02 
       4.991459272112e-01       5.692640789732e-02 
       5.196665217302e-01       5.231612265111e-02 
       5.419201087032e-01       4.783252706294e-02 
       5.662975451962e-01       4.348694212886e-02 
       5.933463737275e-01       3.933105338898e-02 
       6.238638458458e-01       3.525340521729e-02 
       6.590669257916e-01       3.126291597223e-02 
       7.009246080454e-01       2.728736695267e-02 
       7.528593308799e-01       2.327845451642e-02 
       8.213469537518e-01       1.914820916981e-02 
       9.196980813302e-01       1.481699153871e-02 
       1.075112183810e+00       1.035088980981e-02 
       1.322697471132e+00       6.379381903199e-03 
       1.662328205042e+00       3.705582763116e-03 
       2.092692408506e+00       2.124425905339e-03 
       2.634543445090e+00       1.207813258453e-03 
       3.316693691389e+00       6.815152589050e-04 
       4.175469971226e+00       3.818666408909e-04 
       5.256605252960e+00       2.125456352832e-04 
       6.617673932723e+00       1.174977010853e-04 
       8.331157880872e+00       6.444834149923e-05 
       1.048830636590e+01       3.497113564550e-05 
       1.320399541071e+01       1.863914791949e-05 
       1.662284535976e+01       9.602042970501e-06 
       2.092692243973e+01       4.614096696112e-06 
       2.634543445002e+01       1.907650335359e-06 
       3.316693691389e+01       5.494105264878e-07 
       4.175469971226e+01       4.299829080874e-08 
       5.256605252960e+01       3.717262024320e-08 
       6.617673932723e+01       1.495458339654e-07 
