# Matter power spectrum P(k) at redshift z=99
# for k=1.04775e-05 to 66.1767 h/Mpc,
# number of wavenumbers equal to 130
#    1:k (h/Mpc)              2:P (Mpc/h)^3        
       1.047750691046e-05       7.261927680862e-03 
       1.319039970183e-05       9.069258201849e-03 
       1.660572937635e-05       1.132639106725e-02 
       2.090537469327e-05       1.414527123399e-02 
       2.631830744443e-05       1.766569584058e-02 
       3.313278603720e-05       2.206225515943e-02 
       4.171170630578e-05       2.755297766277e-02 
       5.251192703764e-05       3.441013522947e-02 
       6.610859936996e-05       4.297372172778e-02 
       8.322579568497e-05       5.366826852944e-02 
       1.047750691046e-04       6.702379872775e-02 
       1.319039970183e-04       8.370193441287e-02 
       1.660572937635e-04       1.045283355384e-01 
       2.090537469327e-04       1.305329134104e-01 
       2.631830744443e-04       1.629994506606e-01 
       3.313278603720e-04       2.035264004601e-01 
       4.171170630578e-04       2.541004744243e-01 
       5.251192703764e-04       3.171839528558e-01 
       6.610859936996e-04       3.958147256514e-01 
       8.322579568497e-04       4.937136006279e-01 
       1.047750691046e-03       6.153841636041e-01 
       1.319039970183e-03       7.661720592930e-01 
       1.660572937635e-03       9.522588016467e-01 
       2.090537469327e-03       1.180312991699e+00 
       2.631830744443e-03       1.456802684686e+00 
       3.313278603720e-03       1.786503854048e+00 
       4.171170630578e-03       2.169896195354e+00 
       5.251192703764e-03       2.599430630718e+00 
       6.610859936996e-03       3.055668636293e+00 
       8.322579568497e-03       3.505725598737e+00 
       1.047750691046e-02       3.905489698273e+00 
       1.319039970183e-02       4.200915382807e+00 
       1.660572937633e-02       4.325061301796e+00 
       2.090537453514e-02       4.210201173051e+00 
       2.631818545635e-02       3.825154894296e+00 
       3.311571692125e-02       3.229054142914e+00 
       4.113809243311e-02       2.627729556130e+00 
       4.792590854610e-02       2.280795295252e+00 
       5.284436902701e-02       2.110083757400e+00 
       5.689644391095e-02       2.003540619248e+00 
       6.051252627066e-02       1.923056004039e+00 
       6.388413457411e-02       1.852732196462e+00 
       6.711249296401e-02       1.784563051272e+00 
       7.025823437965e-02       1.714278015537e+00 
       7.336115587705e-02       1.639815170960e+00 
       7.644928796912e-02       1.560664829042e+00 
       7.954353299775e-02       1.477458908592e+00 
       8.266024078725e-02       1.391699967960e+00 
       8.581273398637e-02       1.305459859424e+00 
       8.901225918437e-02       1.221125870144e+00 
       9.226860540985e-02       1.141076970291e+00 
       9.559052048996e-02       1.067453522040e+00 
       9.898599946599e-02       1.001887656856e+00 
       1.024624891378e-01       9.453806678801e-01 
       1.060270359164e-01       8.981482157289e-01 
       1.096863943056e-01       8.596147534039e-01 
       1.134471073830e-01       8.284061012231e-01 
       1.173155669539e-01       8.024681977815e-01 
       1.212980586983e-01       7.792283266260e-01 
       1.254007961065e-01       7.559172682212e-01 
       1.296299459934e-01       7.299821021213e-01 
       1.339916477160e-01       6.995918196825e-01 
       1.384920277736e-01       6.640772231860e-01 
       1.431372111762e-01       6.241463467713e-01 
       1.479333307714e-01       5.817641667249e-01 
       1.528865355934e-01       5.396928074101e-01 
       1.580029992204e-01       5.008134774667e-01 
       1.632889290723e-01       4.673989393507e-01 
       1.687505775527e-01       4.405344020890e-01 
       1.743942559171e-01       4.198654506157e-01 
       1.802263517371e-01       4.036595846137e-01 
       1.862533508214e-01       3.893593255109e-01 
       1.924818644494e-01       3.741352526290e-01 
       1.989186627765e-01       3.558010064851e-01 
       2.055707152847e-01       3.340003598036e-01 
       2.124452391818e-01       3.102673777879e-01 
       2.195497567139e-01       2.871223897599e-01 
       2.268921624510e-01       2.668082757937e-01 
       2.344808017550e-01       2.504833413172e-01 
       2.423245618548e-01       2.378336102867e-01 
       2.504329772620e-01       2.271126366772e-01 
       2.588163516754e-01       2.161188965311e-01 
       2.674858990930e-01       2.035461235094e-01 
       2.764539076010e-01       1.895982781342e-01 
       2.857339303080e-01       1.757565236866e-01 
       2.953410092148e-01       1.636990020778e-01 
       3.052919395542e-01       1.539070478483e-01 
       3.156055844677e-01       1.455313473539e-01 
       3.263032530092e-01       1.372505052780e-01 
       3.374091587054e-01       1.283023263593e-01 
       3.489509817175e-01       1.191711545789e-01 
       3.609605657343e-01       1.108073763770e-01 
       3.734747921333e-01       1.036451350643e-01 
       3.865366902904e-01       9.714142515991e-02 
       4.001968667448e-01       9.061549067487e-02 
       4.145153713076e-01       8.403700868834e-02 
       4.295641718077e-01       7.789124931641e-02 
       4.454304922144e-01       7.234183746730e-02 
       4.622214006969e-01       6.709377999831e-02 
       4.800702491654e-01       6.189148526705e-02 
       4.991459272112e-01       5.692623370029e-02 
       5.196665217302e-01       5.231602890702e-02 
       5.419201087032e-01       4.783253412742e-02 
       5.662975451962e-01       4.348696128387e-02 
       5.933463737275e-01       3.933100609482e-02 
       6.238638458458e-01       3.525340988917e-02 
       6.590669257916e-01       3.126289524730e-02 
       7.009246080454e-01       2.728739423136e-02 
       7.528593308799e-01       2.327849292247e-02 
       8.213469537518e-01       1.914825836245e-02 
       9.196980813302e-01       1.481707034418e-02 
       1.075112183810e+00       1.035093193871e-02 
       1.322697471132e+00       6.379449911972e-03 
       1.662328205042e+00       3.705679863271e-03 
       2.092692408506e+00       2.124532015883e-03 
       2.634543445090e+00       1.207958710604e-03 
       3.316693691389e+00       6.817071145679e-04 
       4.175469971226e+00       3.821143925830e-04 
       5.256605252960e+00       2.128681238950e-04 
       6.617673932723e+00       1.179150663311e-04 
       8.331157880872e+00       6.497952163955e-05 
       1.048830636590e+01       3.563740106266e-05 
       1.320399541071e+01       1.945789304605e-05 
       1.662284535976e+01       1.057904716527e-05 
       2.092692243973e+01       5.727809593615e-06 
       2.634543445002e+01       3.087551891557e-06 
       3.316693691389e+01       1.655513236689e-06 
       4.175469971226e+01       8.809516866624e-07 
       5.256605252960e+01       4.627388527876e-07 
       6.617673932723e+01       2.370371572486e-07 
