# Matter power spectrum P(k) at redshift z=0
# for k=1.04775e-05 to 66.1767 h/Mpc,
# number of wavenumbers equal to 130
#    1:k (h/Mpc)              2:P (Mpc/h)^3        
       1.047750691046e-05       5.020964811314e+01 
       1.319039970183e-05       6.270562594783e+01 
       1.660572937635e-05       7.831147247912e+01 
       2.090537469327e-05       9.780108069296e+01 
       2.631830744443e-05       1.221408203809e+02 
       3.313278603720e-05       1.525374501932e+02 
       4.171170630578e-05       1.904975994010e+02 
       5.251192703764e-05       2.379022224249e+02 
       6.610859936996e-05       2.970989227883e+02 
       8.322579568497e-05       3.710167318946e+02 
       1.047750691046e-04       4.633080766742e+02 
       1.319039970183e-04       5.785234129333e+02 
       1.660572937635e-04       7.223242666092e+02 
       2.090537469327e-04       9.017396271824e+02 
       2.631830744443e-04       1.125468123750e+03 
       3.313278603720e-04       1.404223053681e+03 
       4.171170630578e-04       1.751108028790e+03 
       5.251192703764e-04       2.181998448133e+03 
       6.610859936996e-04       2.715889983592e+03 
       8.322579568497e-04       3.375152337134e+03 
       1.047750691046e-03       4.185552174309e+03 
       1.319039970183e-03       5.175742743856e+03 
       1.660572937635e-03       6.376123051774e+03 
       2.090537469327e-03       7.815671914656e+03 
       2.631830744443e-03       9.517783069112e+03 
       3.313278603720e-03       1.149357460345e+04 
       4.171170630578e-03       1.373266012929e+04 
       5.251192703764e-03       1.619063614560e+04 
       6.610859936996e-03       1.877460363274e+04 
       8.322579568497e-03       2.132606969571e+04 
       1.047750691046e-02       2.360548698962e+04 
       1.319039970183e-02       2.528218873390e+04 
       1.660572937633e-02       2.595026213713e+04 
       2.090537453514e-02       2.520933679710e+04 
       2.631818545635e-02       2.287036684562e+04 
       3.311571692125e-02       1.928623857898e+04 
       4.113809243311e-02       1.568425997379e+04 
       4.792590854610e-02       1.361067673922e+04 
       5.284436902701e-02       1.259129153247e+04 
       5.689644391095e-02       1.195554069095e+04 
       6.051252627066e-02       1.147546553780e+04 
       6.388413457411e-02       1.105588751795e+04 
       6.711249296401e-02       1.064899894687e+04 
       7.025823437965e-02       1.022928096685e+04 
       7.336115587705e-02       9.784548027245e+03 
       7.644928796912e-02       9.311673931622e+03 
       7.954353299775e-02       8.814533440260e+03 
       8.266024078725e-02       8.302118109698e+03 
       8.581273398637e-02       7.786951212573e+03 
       8.901225918437e-02       7.283174514795e+03 
       9.226860540985e-02       6.805154469083e+03 
       9.559052048996e-02       6.365656819586e+03 
       9.898599946599e-02       5.974397564709e+03 
       1.024624891378e-01       5.637307847175e+03 
       1.060270359164e-01       5.355778359592e+03 
       1.096863943056e-01       5.126238247984e+03 
       1.134471073830e-01       4.940480707308e+03 
       1.173155669539e-01       4.786171066519e+03 
       1.212980586983e-01       4.647941639465e+03 
       1.254007961065e-01       4.509150905595e+03 
       1.296299459934e-01       4.354547501701e+03 
       1.339916477160e-01       4.173217708180e+03 
       1.384920277736e-01       3.961166138770e+03 
       1.431372111762e-01       3.722685924610e+03 
       1.479333307714e-01       3.469555328660e+03 
       1.528865355934e-01       3.218342368203e+03 
       1.580029992204e-01       2.986299042316e+03 
       1.632889290723e-01       2.786963749752e+03 
       1.687505775527e-01       2.626826207346e+03 
       1.743942559171e-01       2.503756836717e+03 
       1.802263517371e-01       2.407346480532e+03 
       1.862533508214e-01       2.322251390633e+03 
       1.924818644494e-01       2.231549469844e+03 
       1.989186627765e-01       2.122186735476e+03 
       2.055707152847e-01       1.992028432855e+03 
       2.124452391818e-01       1.850324216422e+03 
       2.195497567139e-01       1.712181851683e+03 
       2.268921624510e-01       1.590988266064e+03 
       2.344808017550e-01       1.493670748162e+03 
       2.423245618548e-01       1.418311670957e+03 
       2.504329772620e-01       1.354466997709e+03 
       2.588163516754e-01       1.288934943512e+03 
       2.674858990930e-01       1.213937530985e+03 
       2.764539076010e-01       1.130694413274e+03 
       2.857339303080e-01       1.048099757185e+03 
       2.953410092148e-01       9.761822429531e+02 
       3.052919395542e-01       9.178083963514e+02 
       3.156055844677e-01       8.678972373876e+02 
       3.263032530092e-01       8.185280043369e+02 
       3.374091587054e-01       7.651457425336e+02 
       3.489509817175e-01       7.106711928699e+02 
       3.609605657343e-01       6.607847525045e+02 
       3.734747921333e-01       6.180864380989e+02 
       3.865366902904e-01       5.793114802165e+02 
       4.001968667448e-01       5.403916701288e+02 
       4.145153713076e-01       5.011513828084e+02 
       4.295641718077e-01       4.644979294561e+02 
       4.454304922144e-01       4.314088840109e+02 
       4.622214006969e-01       4.001139417022e+02 
       4.800702491654e-01       3.690888757886e+02 
       4.991459272112e-01       3.394769738012e+02 
       5.196665217302e-01       3.119854262219e+02 
       5.419201087032e-01       2.852466410204e+02 
       5.662975451962e-01       2.593313405646e+02 
       5.933463737275e-01       2.345478975729e+02 
       6.238638458458e-01       2.102302285713e+02 
       6.590669257916e-01       1.864336450083e+02 
       7.009246080454e-01       1.627252420533e+02 
       7.528593308799e-01       1.388189776483e+02 
       8.213469537518e-01       1.141884316746e+02 
       9.196980813302e-01       8.835915501827e+01 
       1.075112183810e+00       6.172634554048e+01 
       1.322697471132e+00       3.804285581732e+01 
       1.662328205042e+00       2.209794445188e+01 
       2.092692408506e+00       1.266924717903e+01 
       2.634543445090e+00       7.203317667870e+00 
       3.316693691389e+00       4.065141600606e+00 
       4.175469971226e+00       2.278611079705e+00 
       5.256605252960e+00       1.269351943275e+00 
       6.617673932723e+00       7.031387089727e-01 
       8.331157880872e+00       3.874802767675e-01 
       1.048830636590e+01       2.125107408309e-01 
       1.320399541071e+01       1.160364550307e-01 
       1.662284535976e+01       6.309879191211e-02 
       2.092692243973e+01       3.417963126984e-02 
       2.634543445002e+01       1.844599025288e-02 
       3.316693691389e+01       9.919163401466e-03 
       4.175469971226e+01       5.314555123573e-03 
       5.256605252960e+01       2.836671421348e-03 
       6.617673932723e+01       1.507703618139e-03 
