# Matter power spectrum P(k) at redshift z=99
# for k=1.04775e-05 to 66.1767 h/Mpc,
# number of wavenumbers equal to 130
#    1:k (h/Mpc)              2:P (Mpc/h)^3        
       1.047750691046e-05       7.261927680861e-03 
       1.319039970183e-05       9.069258201848e-03 
       1.660572937635e-05       1.132639106725e-02 
       2.090537469327e-05       1.414527123399e-02 
       2.631830744443e-05       1.766569584058e-02 
       3.313278603720e-05       2.206225515942e-02 
       4.171170630578e-05       2.755297766277e-02 
       5.251192703764e-05       3.441013522947e-02 
       6.610859936996e-05       4.297372172777e-02 
       8.322579568497e-05       5.366826852944e-02 
       1.047750691046e-04       6.702379872774e-02 
       1.319039970183e-04       8.370193441286e-02 
       1.660572937635e-04       1.045283355384e-01 
       2.090537469327e-04       1.305329134104e-01 
       2.631830744443e-04       1.629994506605e-01 
       3.313278603720e-04       2.035264004601e-01 
       4.171170630578e-04       2.541004744243e-01 
       5.251192703764e-04       3.171839528557e-01 
       6.610859936996e-04       3.958147256513e-01 
       8.322579568497e-04       4.937136006273e-01 
       1.047750691046e-03       6.153841636041e-01 
       1.319039970183e-03       7.661720592247e-01 
       1.660572937635e-03       9.522588016469e-01 
       2.090537469327e-03       1.180312991699e+00 
       2.631830744443e-03       1.456802684686e+00 
       3.313278603720e-03       1.786503854042e+00 
       4.171170630578e-03       2.169896197711e+00 
       5.251192703764e-03       2.599430630723e+00 
       6.610859936996e-03       3.055668697907e+00 
       8.322579568497e-03       3.505725598429e+00 
       1.047750691046e-02       3.905492195841e+00 
       1.319039970183e-02       4.200915325094e+00 
       1.660572937633e-02       4.325059880640e+00 
       2.090537453514e-02       4.210203615643e+00 
       2.631818545635e-02       3.825150581192e+00 
       3.311571692125e-02       3.229070889670e+00 
       4.113809243311e-02       2.627737888717e+00 
       4.792590854610e-02       2.280797780105e+00 
       5.284436902701e-02       2.110086565113e+00 
       5.689644391095e-02       2.003535842456e+00 
       6.051252627066e-02       1.923056321757e+00 
       6.388413457411e-02       1.852727803104e+00 
       6.711249296401e-02       1.784567161700e+00 
       7.025823437965e-02       1.714275429588e+00 
       7.336115587705e-02       1.639813158599e+00 
       7.644928796912e-02       1.560662482603e+00 
       7.954353299775e-02       1.477458247363e+00 
       8.266024078725e-02       1.391701932160e+00 
       8.581273398637e-02       1.305460227781e+00 
       8.901225918437e-02       1.221127317245e+00 
       9.226860540985e-02       1.141080390792e+00 
       9.559052048996e-02       1.067451060482e+00 
       9.898599946599e-02       1.001889706487e+00 
       1.024624891378e-01       9.453830072801e-01 
       1.060270359164e-01       8.981482706858e-01 
       1.096863943056e-01       8.596133112441e-01 
       1.134471073830e-01       8.284040512552e-01 
       1.173155669539e-01       8.024676723171e-01 
       1.212980586983e-01       7.792292654412e-01 
       1.254007961065e-01       7.559177084269e-01 
       1.296299459934e-01       7.299818892848e-01 
       1.339916477160e-01       6.995925782312e-01 
       1.384920277736e-01       6.640784827180e-01 
       1.431372111762e-01       6.241465890095e-01 
       1.479333307714e-01       5.817620592247e-01 
       1.528865355934e-01       5.396938122735e-01 
       1.580029992204e-01       5.008152310502e-01 
       1.632889290723e-01       4.673989420696e-01 
       1.687505775527e-01       4.405350084153e-01 
       1.743942559171e-01       4.198656783308e-01 
       1.802263517371e-01       4.036601510486e-01 
       1.862533508214e-01       3.893601425065e-01 
       1.924818644494e-01       3.741347774243e-01 
       1.989186627765e-01       3.558024817474e-01 
       2.055707152847e-01       3.339975984626e-01 
       2.124452391818e-01       3.102654260380e-01 
       2.195497567139e-01       2.871236373563e-01 
       2.268921624510e-01       2.668088503024e-01 
       2.344808017550e-01       2.504842056319e-01 
       2.423245618548e-01       2.378334578393e-01 
       2.504329772620e-01       2.271117674986e-01 
       2.588163516754e-01       2.161172766268e-01 
       2.674858990930e-01       2.035457146884e-01 
       2.764539076010e-01       1.895979477182e-01 
       2.857339303080e-01       1.757572432148e-01 
       2.953410092148e-01       1.636998627572e-01 
       3.052919395542e-01       1.539062952423e-01 
       3.156055844677e-01       1.455312145662e-01 
       3.263032530092e-01       1.372498857429e-01 
       3.374091587054e-01       1.283017880951e-01 
       3.489509817175e-01       1.191715113750e-01 
       3.609605657343e-01       1.108072081387e-01 
       3.734747921333e-01       1.036453586674e-01 
       3.865366902904e-01       9.714169202014e-02 
       4.001968667448e-01       9.061572878728e-02 
       4.145153713076e-01       8.403693658584e-02 
       4.295641718077e-01       7.789133530902e-02 
       4.454304922144e-01       7.234183100838e-02 
       4.622214006969e-01       6.709372790771e-02 
       4.800702491654e-01       6.189189770311e-02 
       4.991459272112e-01       5.692650019206e-02 
       5.196665217302e-01       5.231620252935e-02 
       5.419201087032e-01       4.783272595278e-02 
       5.662975451962e-01       4.348705611626e-02 
       5.933463737275e-01       3.933113684005e-02 
       6.238638458458e-01       3.525339935655e-02 
       6.590669257916e-01       3.126293978628e-02 
       7.009246080454e-01       2.728747426831e-02 
       7.528593308799e-01       2.327850533307e-02 
       8.213469537518e-01       1.914827740623e-02 
       9.196980813302e-01       1.481699289880e-02 
       1.075112183810e+00       1.035094705728e-02 
       1.322697471132e+00       6.379478785332e-03 
       1.662328205042e+00       3.705672062084e-03 
       2.092692408506e+00       2.124550066639e-03 
       2.634543445090e+00       1.207963717344e-03 
       3.316693691389e+00       6.817115168726e-04 
       4.175469971226e+00       3.821239705678e-04 
       5.256605252960e+00       2.128756156541e-04 
       6.617673932723e+00       1.179238971974e-04 
       8.331157880872e+00       6.498785402142e-05 
       1.048830636590e+01       3.564576369945e-05 
       1.320399541071e+01       1.946643896861e-05 
       1.662284535976e+01       1.058802190719e-05 
       2.092692243973e+01       5.737461498329e-06 
       2.634543445002e+01       3.098229112858e-06 
       3.316693691389e+01       1.667597345257e-06 
       4.175469971226e+01       8.947893639693e-07 
       5.256605252960e+01       4.787058997076e-07 
       6.617673932723e+01       2.553622447483e-07 
