# Matter power spectrum P(k) at redshift z=99
# for k=1.04775e-05 to 66.1767 h/Mpc,
# number of wavenumbers equal to 130
#    1:k (h/Mpc)              2:P (Mpc/h)^3        
       1.047750691046e-05       7.261927680862e-03 
       1.319039970183e-05       9.069258201849e-03 
       1.660572937635e-05       1.132639106725e-02 
       2.090537469327e-05       1.414527123399e-02 
       2.631830744443e-05       1.766569584058e-02 
       3.313278603720e-05       2.206225515942e-02 
       4.171170630578e-05       2.755297766277e-02 
       5.251192703764e-05       3.441013522947e-02 
       6.610859936996e-05       4.297372172778e-02 
       8.322579568497e-05       5.366826852944e-02 
       1.047750691046e-04       6.702379872775e-02 
       1.319039970183e-04       8.370193441286e-02 
       1.660572937635e-04       1.045283355384e-01 
       2.090537469327e-04       1.305329134104e-01 
       2.631830744443e-04       1.629994506606e-01 
       3.313278603720e-04       2.035264004601e-01 
       4.171170630578e-04       2.541004744243e-01 
       5.251192703764e-04       3.171839528558e-01 
       6.610859936996e-04       3.958147256514e-01 
       8.322579568497e-04       4.937136006276e-01 
       1.047750691046e-03       6.153841636042e-01 
       1.319039970183e-03       7.661720592840e-01 
       1.660572937635e-03       9.522588016474e-01 
       2.090537469327e-03       1.180312991699e+00 
       2.631830744443e-03       1.456802684686e+00 
       3.313278603720e-03       1.786503854040e+00 
       4.171170630578e-03       2.169896197701e+00 
       5.251192703764e-03       2.599430630719e+00 
       6.610859936996e-03       3.055668715737e+00 
       8.322579568497e-03       3.505725151024e+00 
       1.047750691046e-02       3.905491319841e+00 
       1.319039970183e-02       4.200915350268e+00 
       1.660572937633e-02       4.325063152459e+00 
       2.090537453514e-02       4.210202193703e+00 
       2.631818545635e-02       3.825145599270e+00 
       3.311571692125e-02       3.229059400042e+00 
       4.113809243311e-02       2.627723625667e+00 
       4.792590854610e-02       2.280789948772e+00 
       5.284436902701e-02       2.110086474888e+00 
       5.689644391095e-02       2.003538675407e+00 
       6.051252627066e-02       1.923056227557e+00 
       6.388413457411e-02       1.852734457270e+00 
       6.711249296401e-02       1.784565180210e+00 
       7.025823437965e-02       1.714277323870e+00 
       7.336115587705e-02       1.639813572470e+00 
       7.644928796912e-02       1.560661073593e+00 
       7.954353299775e-02       1.477458465228e+00 
       8.266024078725e-02       1.391697076067e+00 
       8.581273398637e-02       1.305462279070e+00 
       8.901225918437e-02       1.221125851542e+00 
       9.226860540985e-02       1.141079134881e+00 
       9.559052048996e-02       1.067457583722e+00 
       9.898599946599e-02       1.001891151768e+00 
       1.024624891378e-01       9.453844799140e-01 
       1.060270359164e-01       8.981497049919e-01 
       1.096863943056e-01       8.596129036315e-01 
       1.134471073830e-01       8.284048129771e-01 
       1.173155669539e-01       8.024655431505e-01 
       1.212980586983e-01       7.792294560531e-01 
       1.254007961065e-01       7.559159887143e-01 
       1.296299459934e-01       7.299817668182e-01 
       1.339916477160e-01       6.995928551359e-01 
       1.384920277736e-01       6.640774758407e-01 
       1.431372111762e-01       6.241455953568e-01 
       1.479333307714e-01       5.817630226249e-01 
       1.528865355934e-01       5.396934494177e-01 
       1.580029992204e-01       5.008141443933e-01 
       1.632889290723e-01       4.673994440723e-01 
       1.687505775527e-01       4.405347624917e-01 
       1.743942559171e-01       4.198659891372e-01 
       1.802263517371e-01       4.036596221401e-01 
       1.862533508214e-01       3.893598742105e-01 
       1.924818644494e-01       3.741356708879e-01 
       1.989186627765e-01       3.558019537831e-01 
       2.055707152847e-01       3.339996492462e-01 
       2.124452391818e-01       3.102658361765e-01 
       2.195497567139e-01       2.871225200380e-01 
       2.268921624510e-01       2.668085555240e-01 
       2.344808017550e-01       2.504826213570e-01 
       2.423245618548e-01       2.378337998982e-01 
       2.504329772620e-01       2.271119169330e-01 
       2.588163516754e-01       2.161179294599e-01 
       2.674858990930e-01       2.035457531335e-01 
       2.764539076010e-01       1.895984871708e-01 
       2.857339303080e-01       1.757571317603e-01 
       2.953410092148e-01       1.636993215656e-01 
       3.052919395542e-01       1.539061718548e-01 
       3.156055844677e-01       1.455311685372e-01 
       3.263032530092e-01       1.372507739252e-01 
       3.374091587054e-01       1.283018863461e-01 
       3.489509817175e-01       1.191711443305e-01 
       3.609605657343e-01       1.108072474696e-01 
       3.734747921333e-01       1.036448975527e-01 
       3.865366902904e-01       9.714154292961e-02 
       4.001968667448e-01       9.061561220345e-02 
       4.145153713076e-01       8.403713734400e-02 
       4.295641718077e-01       7.789140736182e-02 
       4.454304922144e-01       7.234171390232e-02 
       4.622214006969e-01       6.709350081922e-02 
       4.800702491654e-01       6.189178259936e-02 
       4.991459272112e-01       5.692632797634e-02 
       5.196665217302e-01       5.231612650672e-02 
       5.419201087032e-01       4.783261327897e-02 
       5.662975451962e-01       4.348690180686e-02 
       5.933463737275e-01       3.933116253859e-02 
       6.238638458458e-01       3.525339216765e-02 
       6.590669257916e-01       3.126290284616e-02 
       7.009246080454e-01       2.728737714616e-02 
       7.528593308799e-01       2.327845417670e-02 
       8.213469537518e-01       1.914825891481e-02 
       9.196980813302e-01       1.481701993968e-02 
       1.075112183810e+00       1.035091759898e-02 
       1.322697471132e+00       6.379465672480e-03 
       1.662328205042e+00       3.705647231825e-03 
       2.092692408506e+00       2.124540418002e-03 
       2.634543445090e+00       1.207953861750e-03 
       3.316693691389e+00       6.817047948484e-04 
       4.175469971226e+00       3.821153612590e-04 
       5.256605252960e+00       2.128690789275e-04 
       6.617673932723e+00       1.179170251353e-04 
       8.331157880872e+00       6.498177439235e-05 
       1.048830636590e+01       3.563996108811e-05 
       1.320399541071e+01       1.946115219445e-05 
       1.662284535976e+01       1.058328011680e-05 
       2.092692243973e+01       5.733169645224e-06 
       2.634543445002e+01       3.094289702789e-06 
       3.316693691389e+01       1.664004640751e-06 
       4.175469971226e+01       8.915572749254e-07 
       5.256605252960e+01       4.758001988422e-07 
       6.617673932723e+01       2.527618742029e-07 
