# Matter power spectrum P(k) at redshift z=0
# for k=1.04775e-05 to 67.6233 h/Mpc,
# number of wavenumbers equal to 246
#    1:k (h/Mpc)              2:P (Mpc/h)^3        
       1.047750691046e-05       5.020964811306e+01 
       1.131335172503e-05       5.407050701931e+01 
       1.221587619537e-05       5.822819069057e+01 
       1.319039970183e-05       6.270562594777e+01 
       1.424266597921e-05       6.752732240880e+01 
       1.537887696968e-05       7.271977206173e+01 
       1.660572937635e-05       7.831147247912e+01 
       1.793045413292e-05       8.433311821988e+01 
       1.936085902198e-05       9.081778249833e+01 
       2.090537469327e-05       9.780108069296e+01 
       2.257310435294e-05       1.053213197893e+02 
       2.437387741694e-05       1.134197377890e+02 
       2.631830744443e-05       1.221408203809e+02 
       2.841785469300e-05       1.315324642474e+02 
       3.068489366414e-05       1.416462094881e+02 
       3.313278603720e-05       1.525374501932e+02 
       3.577595942169e-05       1.642660688414e+02 
       3.862999239199e-05       1.768963506307e+02 
       4.171170630578e-05       1.904975994010e+02 
       4.503926444729e-05       2.051444491974e+02 
       4.863227907969e-05       2.209171465548e+02 
       5.251192703764e-05       2.379022224247e+02 
       5.670107454120e-05       2.561927927641e+02 
       6.122441196689e-05       2.758890444039e+02 
       6.610859936996e-05       2.970989227882e+02 
       7.138242361596e-05       3.199385560801e+02 
       7.707696804727e-05       3.445329783677e+02 
       8.322579568497e-05       3.710167318945e+02 
       8.986514704559e-05       3.995346444202e+02 
       9.703415373875e-05       4.302425407381e+02 
       1.047750691046e-04       4.633080766740e+02 
       1.131335172503e-04       4.989116271562e+02 
       1.221587619537e-04       5.372471950926e+02 
       1.319039970183e-04       5.785234129330e+02 
       1.424266597921e-04       6.229645936040e+02 
       1.537887696968e-04       6.708118490398e+02 
       1.660572937635e-04       7.223242666083e+02 
       1.793045413292e-04       7.777801563491e+02 
       1.936085902198e-04       8.374783614126e+02 
       2.090537469327e-04       9.017396271806e+02 
       2.257310435294e-04       9.709080268018e+02 
       2.437387741694e-04       1.045352449490e+03 
       2.631830744443e-04       1.125468123746e+03 
       2.841785469300e-04       1.211678180490e+03 
       3.068489366414e-04       1.304435250144e+03 
       3.313278603720e-04       1.404223053674e+03 
       3.577595942169e-04       1.511558014607e+03 
       3.862999239199e-04       1.626990837720e+03 
       4.171170630578e-04       1.751108028776e+03 
       4.503926444729e-04       1.884533382854e+03 
       4.863227907969e-04       2.027929378090e+03 
       5.251192703764e-04       2.181998448104e+03 
       5.670107454121e-04       2.347484102719e+03 
       6.122441196689e-04       2.525171871321e+03 
       6.610859936996e-04       2.715889983537e+03 
       7.138242361596e-04       2.920509688305e+03 
       7.707696804727e-04       3.139945100191e+03 
       8.322579568497e-04       3.375152337469e+03 
       8.986514704559e-04       3.627127831002e+03 
       9.703415373875e-04       3.896905452961e+03 
       1.047750691046e-03       4.185552174074e+03 
       1.131335172503e-03       4.494162430098e+03 
       1.221587619537e-03       4.823850706149e+03 
       1.319039970183e-03       5.175742741973e+03 
       1.424266597921e-03       5.551019596370e+03 
       1.537887696968e-03       5.950788339837e+03 
       1.660572937635e-03       6.376123050840e+03 
       1.793045413292e-03       6.828073900259e+03 
       1.936085902198e-03       7.307625379529e+03 
       2.090537469327e-03       7.815671902136e+03 
       2.257310435294e-03       8.352990373312e+03 
       2.437387741694e-03       8.920211061153e+03 
       2.631830744443e-03       9.517783065036e+03 
       2.841785469300e-03       1.014593703918e+04 
       3.068489366414e-03       1.080464502142e+04 
       3.313278603720e-03       1.149357459510e+04 
       3.577595942169e-03       1.221203620676e+04 
       3.862999239199e-03       1.295892538127e+04 
       4.171170630578e-03       1.373265989326e+04 
       4.503926444729e-03       1.453111833543e+04 
       4.863227907969e-03       1.535154910170e+04 
       5.251192703764e-03       1.619063149621e+04 
       5.670107454120e-03       1.704431209765e+04 
       6.122441196689e-03       1.790756167679e+04 
       6.610859936996e-03       1.877460531108e+04 
       7.138242361596e-03       1.963872847780e+04 
       7.707696804727e-03       2.049215007542e+04 
       8.322579568496e-03       2.132610201655e+04 
       8.986514704559e-03       2.213054567541e+04 
       9.703415373875e-03       2.289442065886e+04 
       1.047750691046e-02       2.360545618838e+04 
       1.131335172503e-02       2.425022189590e+04 
       1.221587619537e-02       2.481419033812e+04 
       1.319039970183e-02       2.528217924772e+04 
       1.424266597920e-02       2.563799590610e+04 
       1.537887696964e-02       2.586598180385e+04 
       1.660572937560e-02       2.595007262365e+04 
       1.793045412207e-02       2.587607475960e+04 
       1.936085889642e-02       2.563228161551e+04 
       2.090537351881e-02       2.520929794567e+04 
       2.257309534705e-02       2.460431845830e+04 
       2.437382002240e-02       2.382077770011e+04 
       2.631799943729e-02       2.287026634319e+04 
       2.841644544598e-02       2.177433069667e+04 
       3.067933354524e-02       2.056533087566e+04 
       3.311368469821e-02       1.928716621333e+04 
       3.571840442514e-02       1.799385760499e+04 
       3.847720347390e-02       1.674675460661e+04 
       4.135335537314e-02       1.560449187514e+04 
       4.429361666563e-02       1.461029324948e+04 
       4.724366437916e-02       1.378045421169e+04 
       5.016480834039e-02       1.310495728927e+04 
       5.303989618930e-02       1.255713748739e+04 
       5.586870668205e-02       1.210421092687e+04 
       5.866042679206e-02       1.171463957987e+04 
       6.142798931504e-02       1.136012871356e+04 
       6.418496438662e-02       1.101858492254e+04 
       6.694418832236e-02       1.067067323828e+04 
       6.971731104453e-02       1.030363791116e+04 
       7.251476154108e-02       9.909052181858e+03 
       7.534587669814e-02       9.483588512330e+03 
       7.821907664495e-02       9.029279217962e+03 
       8.114203771084e-02       8.552123823668e+03 
       8.412184533139e-02       8.061937168184e+03 
       8.716512277352e-02       7.570757075882e+03 
       9.027813693913e-02       7.092444631465e+03 
       9.346688429613e-02       6.640518653528e+03 
       9.673716026122e-02       6.226706359602e+03 
       1.000946150608e-01       5.859913836039e+03 
       1.035447986307e-01       5.545224651694e+03 
       1.070931966524e-01       5.283145309673e+03 
       1.107452594180e-01       5.069430655199e+03 
       1.145064248899e-01       4.895257253783e+03 
       1.183821370656e-01       4.747809562288e+03 
       1.223778605591e-01       4.611710689024e+03 
       1.264990921707e-01       4.470591575249e+03 
       1.307513701078e-01       4.310252430408e+03 
       1.351402814485e-01       4.121383191682e+03 
       1.396714683894e-01       3.902030121112e+03 
       1.443506337875e-01       3.658622754447e+03 
       1.491835464900e-01       3.404438275007e+03 
       1.541760469368e-01       3.156617380903e+03 
       1.593340535209e-01       2.931901304801e+03 
       1.646635701934e-01       2.742325193797e+03 
       1.701706958081e-01       2.592209751260e+03 
       1.758616357070e-01       2.477177911726e+03 
       1.817427160581e-01       2.385131848432e+03 
       1.878204014651e-01       2.300312184013e+03 
       1.941013163855e-01       2.205735869467e+03 
       2.005922709060e-01       2.090803236290e+03 
       2.073002914514e-01       1.956428127086e+03 
       2.142326570343e-01       1.814133465610e+03 
       2.213969417044e-01       1.679231894581e+03 
       2.288010639201e-01       1.563800950005e+03 
       2.364533436625e-01       1.472628032393e+03 
       2.443625682390e-01       1.401464835138e+03 
       2.525380678946e-01       1.338372949229e+03 
       2.609898025770e-01       1.270852659883e+03 
       2.697284614969e-01       1.193308384166e+03 
       2.787655775073e-01       1.109275628044e+03 
       2.881136588192e-01       1.028707578527e+03 
       2.977863412019e-01       9.604188783923e+02 
       3.077985646248e-01       9.049557952640e+02 
       3.181667793367e-01       8.560763134194e+02 
       3.289091877084e-01       8.061172141742e+02 
       3.400460298905e-01       7.523161637678e+02 
       3.515999235695e-01       6.988470778611e+02 
       3.635962710278e-01       6.509875997710e+02 
       3.760637505499e-01       6.100463300197e+02 
       3.890349143014e-01       5.720521777330e+02 
       4.025469215929e-01       5.336992062308e+02 
       4.166424455447e-01       4.955443270692e+02 
       4.313708034899e-01       4.603831103776e+02 
       4.467893781976e-01       4.286855074222e+02 
       4.629654198623e-01       3.986817117420e+02 
       4.799783500912e-01       3.691458436835e+02 
       4.979227318246e-01       3.411427277575e+02 
       5.169121269689e-01       3.153804579171e+02 
       5.370841403262e-01       2.907293251096e+02 
       5.586070463286e-01       2.669970691769e+02 
       5.816885093582e-01       2.446966264077e+02 
       6.065870143577e-01       2.234532743928e+02 
       6.336266466978e-01       2.030911947350e+02 
       6.632156057925e-01       1.837540121578e+02 
       6.958678637575e-01       1.652241500958e+02 
       7.322247983784e-01       1.475590715389e+02 
       7.730680193171e-01       1.306912515971e+02 
       8.193049551574e-01       1.146798319014e+02 
       8.718988013754e-01       9.960212313819e+01 
       9.317218028590e-01       8.560662451938e+01 
       9.993660906273e-01       7.287176602853e+01 
       1.075037109879e+00       6.153964033072e+01 
       1.158653485387e+00       5.166786817683e+01 
       1.250099156961e+00       4.321311018569e+01 
       1.349432400897e+00       3.604502375183e+01 
       1.456947456991e+00       3.000472973239e+01 
       1.573135110893e+00       2.493093931342e+01 
       1.698621895119e+00       2.067677263967e+01 
       1.834127512423e+00       1.711414489748e+01 
       1.980444933977e+00       1.413301614713e+01 
       2.138435191130e+00       1.164043575745e+01 
       2.309029198543e+00       9.557684422386e+00 
       2.493232376993e+00       7.818419585188e+00 
       2.692130394536e+00       6.366430335058e+00 
       2.906895533764e+00       5.155002312462e+00 
       3.138793596840e+00       4.144775017888e+00 
       3.389191365541e+00       3.302977730792e+00 
       3.659564656886e+00       2.602543139825e+00 
       3.951507021438e+00       2.021050452316e+00 
       4.266739135513e+00       1.540211835415e+00 
       4.607118942658e+00       1.145143464411e+00 
       4.974652604172e+00       8.238853640206e-01 
       5.371506323193e+00       5.668184864391e-01 
       5.800019112071e+00       3.661794319866e-01 
       6.262716578240e+00       2.155481066750e-01 
       6.762325809881e+00       1.092880496019e-01 
       7.301791449077e+00       4.196400506569e-02 
       7.884293047211e+00       7.816524152497e-03 
       8.513263804891e+00       2.837181394645e-04 
       9.192410806865e+00       1.177482495714e-02 
       9.925736871166e+00       3.379207144494e-02 
       1.071756414128e+01       5.755624048338e-02 
       1.157255956041e+01       7.514644364054e-02 
       1.249576237789e+01       8.101580168978e-02 
       1.349261385000e+01       7.341632503825e-02 
       1.456898931011e+01       5.504971732651e-02 
       1.573123279727e+01       3.229257142453e-02 
       1.698619444729e+01       1.275515330195e-02 
       1.834127086665e+01       1.886303226498e-03 
       1.980444872733e+01       3.423195047776e-04 
       2.138435183937e+01       3.995149569915e-03 
       2.309029197863e+01       7.073127051290e-03 
       2.493232376942e+01       6.392285776935e-03 
       2.692130394533e+01       3.139184327573e-03 
       2.906895533764e+01       5.358277930563e-04 
       3.138793596840e+01       3.387900858289e-05 
       3.389191365541e+01       4.451496524432e-04 
       3.659564656886e+01       4.172156577310e-04 
       3.951507021438e+01       9.617699826467e-05 
       4.266739135513e+01       6.480470270051e-07 
       4.607118942658e+01       2.109198984444e-05 
       4.974652604172e+01       4.919202040007e-06 
       5.371506323193e+01       5.386759694606e-07 
       5.800019112071e+01       4.642612908252e-07 
       6.262716578240e+01       4.839205739387e-07 
       6.762325809881e+01       3.355430333198e-07 
