# Matter power spectrum P(k) at redshift z=99
# for k=1.04775e-05 to 66.1767 h/Mpc,
# number of wavenumbers equal to 130
#    1:k (h/Mpc)              2:P (Mpc/h)^3        
       1.047750691046e-05       7.261927680862e-03 
       1.319039970183e-05       9.069258201849e-03 
       1.660572937635e-05       1.132639106725e-02 
       2.090537469327e-05       1.414527123399e-02 
       2.631830744443e-05       1.766569584058e-02 
       3.313278603720e-05       2.206225515942e-02 
       4.171170630578e-05       2.755297766277e-02 
       5.251192703764e-05       3.441013522947e-02 
       6.610859936996e-05       4.297372172777e-02 
       8.322579568497e-05       5.366826852944e-02 
       1.047750691046e-04       6.702379872774e-02 
       1.319039970183e-04       8.370193441285e-02 
       1.660572937635e-04       1.045283355384e-01 
       2.090537469327e-04       1.305329134104e-01 
       2.631830744443e-04       1.629994506605e-01 
       3.313278603720e-04       2.035264004601e-01 
       4.171170630578e-04       2.541004744243e-01 
       5.251192703764e-04       3.171839528557e-01 
       6.610859936996e-04       3.958147256513e-01 
       8.322579568497e-04       4.937136006253e-01 
       1.047750691046e-03       6.153841636041e-01 
       1.319039970183e-03       7.661720592309e-01 
       1.660572937635e-03       9.522588016481e-01 
       2.090537469327e-03       1.180312991699e+00 
       2.631830744443e-03       1.456802684686e+00 
       3.313278603720e-03       1.786503854036e+00 
       4.171170630578e-03       2.169896194828e+00 
       5.251192703764e-03       2.599430630721e+00 
       6.610859936996e-03       3.055668709541e+00 
       8.322579568497e-03       3.505725152038e+00 
       1.047750691046e-02       3.905490796868e+00 
       1.319039970183e-02       4.200915423358e+00 
       1.660572937633e-02       4.325063777789e+00 
       2.090537453514e-02       4.210200325094e+00 
       2.631818545635e-02       3.825151423615e+00 
       3.311571692125e-02       3.229063461514e+00 
       4.113809243311e-02       2.627728944467e+00 
       4.792590854610e-02       2.280788816588e+00 
       5.284436902701e-02       2.110085781497e+00 
       5.689644391095e-02       2.003539435764e+00 
       6.051252627066e-02       1.923056521698e+00 
       6.388413457411e-02       1.852726060721e+00 
       6.711249296401e-02       1.784563695198e+00 
       7.025823437965e-02       1.714275334858e+00 
       7.336115587705e-02       1.639815020227e+00 
       7.644928796912e-02       1.560663799974e+00 
       7.954353299775e-02       1.477457549514e+00 
       8.266024078725e-02       1.391697472108e+00 
       8.581273398637e-02       1.305462349040e+00 
       8.901225918437e-02       1.221124493675e+00 
       9.226860540985e-02       1.141079918143e+00 
       9.559052048996e-02       1.067452647519e+00 
       9.898599946599e-02       1.001889262510e+00 
       1.024624891378e-01       9.453826669997e-01 
       1.060270359164e-01       8.981499766463e-01 
       1.096863943056e-01       8.596109339204e-01 
       1.134471073830e-01       8.284056048479e-01 
       1.173155669539e-01       8.024674984873e-01 
       1.212980586983e-01       7.792274266917e-01 
       1.254007961065e-01       7.559187255576e-01 
       1.296299459934e-01       7.299830309094e-01 
       1.339916477160e-01       6.995925495604e-01 
       1.384920277736e-01       6.640788471534e-01 
       1.431372111762e-01       6.241454923524e-01 
       1.479333307714e-01       5.817628322603e-01 
       1.528865355934e-01       5.396936602993e-01 
       1.580029992204e-01       5.008138541618e-01 
       1.632889290723e-01       4.673978610717e-01 
       1.687505775527e-01       4.405330099813e-01 
       1.743942559171e-01       4.198658383146e-01 
       1.802263517371e-01       4.036594976661e-01 
       1.862533508214e-01       3.893600140903e-01 
       1.924818644494e-01       3.741352434549e-01 
       1.989186627765e-01       3.558016362061e-01 
       2.055707152847e-01       3.339978503790e-01 
       2.124452391818e-01       3.102661665731e-01 
       2.195497567139e-01       2.871227139437e-01 
       2.268921624510e-01       2.668080475971e-01 
       2.344808017550e-01       2.504833046890e-01 
       2.423245618548e-01       2.378334180363e-01 
       2.504329772620e-01       2.271129287707e-01 
       2.588163516754e-01       2.161173716750e-01 
       2.674858990930e-01       2.035458385386e-01 
       2.764539076010e-01       1.895977317448e-01 
       2.857339303080e-01       1.757572111561e-01 
       2.953410092148e-01       1.636993931759e-01 
       3.052919395542e-01       1.539065016872e-01 
       3.156055844677e-01       1.455311583010e-01 
       3.263032530092e-01       1.372500840709e-01 
       3.374091587054e-01       1.283023381440e-01 
       3.489509817175e-01       1.191714604195e-01 
       3.609605657343e-01       1.108074913801e-01 
       3.734747921333e-01       1.036451934985e-01 
       3.865366902904e-01       9.714160985535e-02 
       4.001968667448e-01       9.061565690149e-02 
       4.145153713076e-01       8.403716937946e-02 
       4.295641718077e-01       7.789137339109e-02 
       4.454304922144e-01       7.234173370169e-02 
       4.622214006969e-01       6.709391284283e-02 
       4.800702491654e-01       6.189184680512e-02 
       4.991459272112e-01       5.692647015879e-02 
       5.196665217302e-01       5.231627347632e-02 
       5.419201087032e-01       4.783262540783e-02 
       5.662975451962e-01       4.348682125975e-02 
       5.933463737275e-01       3.933099997985e-02 
       6.238638458458e-01       3.525336671581e-02 
       6.590669257916e-01       3.126287279770e-02 
       7.009246080454e-01       2.728729237168e-02 
       7.528593308799e-01       2.327850909966e-02 
       8.213469537518e-01       1.914826064521e-02 
       9.196980813302e-01       1.481704890690e-02 
       1.075112183810e+00       1.035094452838e-02 
       1.322697471132e+00       6.379452290880e-03 
       1.662328205042e+00       3.705674979458e-03 
       2.092692408506e+00       2.124541485492e-03 
       2.634543445090e+00       1.207961224760e-03 
       3.316693691389e+00       6.817136327539e-04 
       4.175469971226e+00       3.821226113757e-04 
       5.256605252960e+00       2.128733413447e-04 
       6.617673932723e+00       1.179216991438e-04 
       8.331157880872e+00       6.498589061697e-05 
       1.048830636590e+01       3.564422399444e-05 
       1.320399541071e+01       1.946499946705e-05 
       1.662284535976e+01       1.058659779813e-05 
       2.092692243973e+01       5.736123708000e-06 
       2.634543445002e+01       3.096998825484e-06 
       3.316693691389e+01       1.666454825784e-06 
       4.175469971226e+01       8.937358223967e-07 
       5.256605252960e+01       4.777155528679e-07 
       6.617673932723e+01       2.544403072510e-07 
