# Matter power spectrum P(k) at redshift z=99
# for k=1.04775e-05 to 66.1767 h/Mpc,
# number of wavenumbers equal to 130
#    1:k (h/Mpc)              2:P (Mpc/h)^3        
       1.047750691046e-05       7.261927680861e-03 
       1.319039970183e-05       9.069258201848e-03 
       1.660572937635e-05       1.132639106725e-02 
       2.090537469327e-05       1.414527123399e-02 
       2.631830744443e-05       1.766569584058e-02 
       3.313278603720e-05       2.206225515942e-02 
       4.171170630578e-05       2.755297766277e-02 
       5.251192703764e-05       3.441013522947e-02 
       6.610859936996e-05       4.297372172777e-02 
       8.322579568497e-05       5.366826852944e-02 
       1.047750691046e-04       6.702379872774e-02 
       1.319039970183e-04       8.370193441285e-02 
       1.660572937635e-04       1.045283355384e-01 
       2.090537469327e-04       1.305329134104e-01 
       2.631830744443e-04       1.629994506605e-01 
       3.313278603720e-04       2.035264004601e-01 
       4.171170630578e-04       2.541004744243e-01 
       5.251192703764e-04       3.171839528557e-01 
       6.610859936996e-04       3.958147256513e-01 
       8.322579568497e-04       4.937136006278e-01 
       1.047750691046e-03       6.153841636041e-01 
       1.319039970183e-03       7.661720592309e-01 
       1.660572937635e-03       9.522588016471e-01 
       2.090537469327e-03       1.180312991700e+00 
       2.631830744443e-03       1.456802684686e+00 
       3.313278603720e-03       1.786503854036e+00 
       4.171170630578e-03       2.169896196695e+00 
       5.251192703764e-03       2.599430630722e+00 
       6.610859936996e-03       3.055668711920e+00 
       8.322579568497e-03       3.505724474996e+00 
       1.047750691046e-02       3.905491295387e+00 
       1.319039970183e-02       4.200915356345e+00 
       1.660572937633e-02       4.325064094305e+00 
       2.090537453514e-02       4.210199862503e+00 
       2.631818545635e-02       3.825150721312e+00 
       3.311571692125e-02       3.229064317366e+00 
       4.113809243311e-02       2.627723662582e+00 
       4.792590854610e-02       2.280790577121e+00 
       5.284436902701e-02       2.110085391407e+00 
       5.689644391095e-02       2.003540515613e+00 
       6.051252627066e-02       1.923056761064e+00 
       6.388413457411e-02       1.852730393631e+00 
       6.711249296401e-02       1.784563830198e+00 
       7.025823437965e-02       1.714273586129e+00 
       7.336115587705e-02       1.639813178230e+00 
       7.644928796912e-02       1.560661841555e+00 
       7.954353299775e-02       1.477456978290e+00 
       8.266024078725e-02       1.391698622431e+00 
       8.581273398637e-02       1.305465178280e+00 
       8.901225918437e-02       1.221127162918e+00 
       9.226860540985e-02       1.141078737005e+00 
       9.559052048996e-02       1.067453598082e+00 
       9.898599946599e-02       1.001886962462e+00 
       1.024624891378e-01       9.453775894782e-01 
       1.060270359164e-01       8.981493446049e-01 
       1.096863943056e-01       8.596125369767e-01 
       1.134471073830e-01       8.284038708897e-01 
       1.173155669539e-01       8.024666170052e-01 
       1.212980586983e-01       7.792300912201e-01 
       1.254007961065e-01       7.559171417734e-01 
       1.296299459934e-01       7.299830033472e-01 
       1.339916477160e-01       6.995928979712e-01 
       1.384920277736e-01       6.640785695052e-01 
       1.431372111762e-01       6.241474989784e-01 
       1.479333307714e-01       5.817631951250e-01 
       1.528865355934e-01       5.396929200540e-01 
       1.580029992204e-01       5.008128502444e-01 
       1.632889290723e-01       4.673992867289e-01 
       1.687505775527e-01       4.405334333467e-01 
       1.743942559171e-01       4.198656866445e-01 
       1.802263517371e-01       4.036603211554e-01 
       1.862533508214e-01       3.893597241426e-01 
       1.924818644494e-01       3.741346701312e-01 
       1.989186627765e-01       3.558027866990e-01 
       2.055707152847e-01       3.339991231211e-01 
       2.124452391818e-01       3.102657372785e-01 
       2.195497567139e-01       2.871233796526e-01 
       2.268921624510e-01       2.668089034338e-01 
       2.344808017550e-01       2.504838188676e-01 
       2.423245618548e-01       2.378341299407e-01 
       2.504329772620e-01       2.271123861886e-01 
       2.588163516754e-01       2.161176217681e-01 
       2.674858990930e-01       2.035452827213e-01 
       2.764539076010e-01       1.895976203119e-01 
       2.857339303080e-01       1.757568138540e-01 
       2.953410092148e-01       1.637001627430e-01 
       3.052919395542e-01       1.539065707988e-01 
       3.156055844677e-01       1.455308802029e-01 
       3.263032530092e-01       1.372501722270e-01 
       3.374091587054e-01       1.283020708052e-01 
       3.489509817175e-01       1.191711752494e-01 
       3.609605657343e-01       1.108073307190e-01 
       3.734747921333e-01       1.036452058973e-01 
       3.865366902904e-01       9.714129906341e-02 
       4.001968667448e-01       9.061556021555e-02 
       4.145153713076e-01       8.403692494049e-02 
       4.295641718077e-01       7.789149859318e-02 
       4.454304922144e-01       7.234183049421e-02 
       4.622214006969e-01       6.709387305667e-02 
       4.800702491654e-01       6.189194686070e-02 
       4.991459272112e-01       5.692635567651e-02 
       5.196665217302e-01       5.231617054666e-02 
       5.419201087032e-01       4.783265972749e-02 
       5.662975451962e-01       4.348702594304e-02 
       5.933463737275e-01       3.933107480009e-02 
       6.238638458458e-01       3.525345339754e-02 
       6.590669257916e-01       3.126294196621e-02 
       7.009246080454e-01       2.728740528125e-02 
       7.528593308799e-01       2.327852375357e-02 
       8.213469537518e-01       1.914827975156e-02 
       9.196980813302e-01       1.481708650530e-02 
       1.075112183810e+00       1.035092337712e-02 
       1.322697471132e+00       6.379482446378e-03 
       1.662328205042e+00       3.705665205930e-03 
       2.092692408506e+00       2.124552925125e-03 
       2.634543445090e+00       1.207971317304e-03 
       3.316693691389e+00       6.817116204397e-04 
       4.175469971226e+00       3.821239283830e-04 
       5.256605252960e+00       2.128757755335e-04 
       6.617673932723e+00       1.179227661084e-04 
       8.331157880872e+00       6.498790609776e-05 
       1.048830636590e+01       3.564570380168e-05 
       1.320399541071e+01       1.946647478591e-05 
       1.662284535976e+01       1.058799140839e-05 
       2.092692243973e+01       5.737484580695e-06 
       2.634543445002e+01       3.098226513365e-06 
       3.316693691389e+01       1.667591770853e-06 
       4.175469971226e+01       8.947826758209e-07 
       5.256605252960e+01       4.787012196249e-07 
       6.617673932723e+01       2.553581651616e-07 
