# Matter power spectrum P(k) at redshift z=99
# for k=1.04775e-05 to 66.1767 h/Mpc,
# number of wavenumbers equal to 130
#    1:k (h/Mpc)              2:P (Mpc/h)^3        
       1.047750691046e-05       7.261927681026e-03 
       1.319039970183e-05       9.069258202054e-03 
       1.660572937635e-05       1.132639106751e-02 
       2.090537469327e-05       1.414527123431e-02 
       2.631830744443e-05       1.766569584098e-02 
       3.313278603720e-05       2.206225515992e-02 
       4.171170630578e-05       2.755297766339e-02 
       5.251192703764e-05       3.441013523025e-02 
       6.610859936996e-05       4.297372172875e-02 
       8.322579568497e-05       5.366826853065e-02 
       1.047750691046e-04       6.702379872925e-02 
       1.319039970183e-04       8.370193441474e-02 
       1.660572937635e-04       1.045283355407e-01 
       2.090537469327e-04       1.305329134133e-01 
       2.631830744443e-04       1.629994506641e-01 
       3.313278603720e-04       2.035264004645e-01 
       4.171170630578e-04       2.541004744296e-01 
       5.251192703764e-04       3.171839528620e-01 
       6.610859936996e-04       3.958147256586e-01 
       8.322579568497e-04       4.937136006364e-01 
       1.047750691046e-03       6.153841636119e-01 
       1.319039970183e-03       7.661720592655e-01 
       1.660572937635e-03       9.522588016363e-01 
       2.090537469327e-03       1.180312991668e+00 
       2.631830744443e-03       1.456802684597e+00 
       3.313278603720e-03       1.786503853835e+00 
       4.171170630578e-03       2.169896192682e+00 
       5.251192703764e-03       2.599430629774e+00 
       6.610859936996e-03       3.055668709352e+00 
       8.322579568497e-03       3.505725594957e+00 
       1.047750691046e-02       3.905491027714e+00 
       1.319039970183e-02       4.200915291520e+00 
       1.660572937633e-02       4.325058935365e+00 
       2.090537453514e-02       4.210198295716e+00 
       2.631818545635e-02       3.825153904703e+00 
       3.311571692125e-02       3.229059164273e+00 
       4.113809243311e-02       2.627740545871e+00 
       4.792590854610e-02       2.280793164517e+00 
       5.284436902701e-02       2.110088718980e+00 
       5.689644391095e-02       2.003539376750e+00 
       6.051252627066e-02       1.923054447823e+00 
       6.388413457411e-02       1.852733361876e+00 
       6.711249296401e-02       1.784563721973e+00 
       7.025823437965e-02       1.714278063173e+00 
       7.336115587705e-02       1.639813060762e+00 
       7.644928796912e-02       1.560660200803e+00 
       7.954353299775e-02       1.477453011119e+00 
       8.266024078725e-02       1.391697104551e+00 
       8.581273398637e-02       1.305458798706e+00 
       8.901225918437e-02       1.221124893359e+00 
       9.226860540985e-02       1.141079447484e+00 
       9.559052048996e-02       1.067448453267e+00 
       9.898599946599e-02       1.001886187092e+00 
       1.024624891378e-01       9.453806987569e-01 
       1.060270359164e-01       8.981504588641e-01 
       1.096863943056e-01       8.596141812695e-01 
       1.134471073830e-01       8.284065160716e-01 
       1.173155669539e-01       8.024679089699e-01 
       1.212980586983e-01       7.792281175099e-01 
       1.254007961065e-01       7.559177981169e-01 
       1.296299459934e-01       7.299811752405e-01 
       1.339916477160e-01       6.995924642117e-01 
       1.384920277736e-01       6.640789579907e-01 
       1.431372111762e-01       6.241474162732e-01 
       1.479333307714e-01       5.817628773882e-01 
       1.528865355934e-01       5.396900321719e-01 
       1.580029992204e-01       5.008133782378e-01 
       1.632889290723e-01       4.673974067921e-01 
       1.687505775527e-01       4.405326857454e-01 
       1.743942559171e-01       4.198649405908e-01 
       1.802263517371e-01       4.036586105925e-01 
       1.862533508214e-01       3.893608350743e-01 
       1.924818644494e-01       3.741390443123e-01 
       1.989186627765e-01       3.558056715003e-01 
       2.055707152847e-01       3.340023173717e-01 
       2.124452391818e-01       3.102650459544e-01 
       2.195497567139e-01       2.871218002015e-01 
       2.268921624510e-01       2.668069940581e-01 
       2.344808017550e-01       2.504821711050e-01 
       2.423245618548e-01       2.378327415172e-01 
       2.504329772620e-01       2.271101917130e-01 
       2.588163516754e-01       2.161185349641e-01 
       2.674858990930e-01       2.035464041033e-01 
       2.764539076010e-01       1.895966584914e-01 
       2.857339303080e-01       1.757553721924e-01 
       2.953410092148e-01       1.636979465526e-01 
       3.052919395542e-01       1.539049317176e-01 
       3.156055844677e-01       1.455292171913e-01 
       3.263032530092e-01       1.372489616095e-01 
       3.374091587054e-01       1.283004583751e-01 
       3.489509817175e-01       1.191702512456e-01 
       3.609605657343e-01       1.108059936158e-01 
       3.734747921333e-01       1.036435477208e-01 
       3.865366902904e-01       9.713998956166e-02 
       4.001968667448e-01       9.061396680337e-02 
       4.145153713076e-01       8.403570515974e-02 
       4.295641718077e-01       7.788992535088e-02 
       4.454304922144e-01       7.234005570687e-02 
       4.622214006969e-01       6.709214511999e-02 
       4.800702491654e-01       6.189033538332e-02 
       4.991459272112e-01       5.692490266036e-02 
       5.196665217302e-01       5.231445051235e-02 
       5.419201087032e-01       4.783100746225e-02 
       5.662975451962e-01       4.348513506773e-02 
       5.933463737275e-01       3.932932742704e-02 
       6.238638458458e-01       3.525169960907e-02 
       6.590669257916e-01       3.126117800098e-02 
       7.009246080454e-01       2.728549661275e-02 
       7.528593308799e-01       2.327663055953e-02 
       8.213469537518e-01       1.914643216612e-02 
       9.196980813302e-01       1.481513387325e-02 
       1.075112183810e+00       1.034901305407e-02 
       1.322697471132e+00       6.377521340745e-03 
       1.662328205042e+00       3.703683600663e-03 
       2.092692408506e+00       2.122516929088e-03 
       2.634543445090e+00       1.205929084213e-03 
       3.316693691389e+00       6.796660063016e-04 
       4.175469971226e+00       3.800637159000e-04 
       5.256605252960e+00       2.107943871845e-04 
       6.617673932723e+00       1.158055191209e-04 
       8.331157880872e+00       6.281622778824e-05 
       1.048830636590e+01       3.340521328663e-05 
       1.320399541071e+01       1.715638955256e-05 
       1.662284535976e+01       8.243835318272e-06 
       2.092692243973e+01       3.459932220920e-06 
       2.634543445002e+01       1.076907793320e-06 
       3.316693691389e+01       1.448386631352e-07 
       4.175469971226e+01       5.745998193457e-09 
       5.256605252960e+01       6.696281065713e-08 
       6.617673932723e+01       2.808554270474e-08 
