# Matter power spectrum P(k) at redshift z=0
# for k=1.04775e-05 to 66.1767 h/Mpc,
# number of wavenumbers equal to 130
#    1:k (h/Mpc)              2:P (Mpc/h)^3        
       1.047750691046e-05       5.020964811309e+01 
       1.319039970183e-05       6.270562594783e+01 
       1.660572937635e-05       7.831147247912e+01 
       2.090537469327e-05       9.780108069296e+01 
       2.631830744443e-05       1.221408203809e+02 
       3.313278603720e-05       1.525374501932e+02 
       4.171170630578e-05       1.904975994010e+02 
       5.251192703764e-05       2.379022224249e+02 
       6.610859936996e-05       2.970989227881e+02 
       8.322579568497e-05       3.710167318945e+02 
       1.047750691046e-04       4.633080766742e+02 
       1.319039970183e-04       5.785234129335e+02 
       1.660572937635e-04       7.223242666092e+02 
       2.090537469327e-04       9.017396271824e+02 
       2.631830744443e-04       1.125468123750e+03 
       3.313278603720e-04       1.404223053681e+03 
       4.171170630578e-04       1.751108028790e+03 
       5.251192703764e-04       2.181998448133e+03 
       6.610859936996e-04       2.715889983591e+03 
       8.322579568497e-04       3.375152337132e+03 
       1.047750691046e-03       4.185552174305e+03 
       1.319039970183e-03       5.175742738790e+03 
       1.660572937635e-03       6.376123051777e+03 
       2.090537469327e-03       7.815671866087e+03 
       2.631830744443e-03       9.517783069112e+03 
       3.313278603720e-03       1.149357460346e+04 
       4.171170630578e-03       1.373266008869e+04 
       5.251192703764e-03       1.619063614504e+04 
       6.610859936996e-03       1.877460415946e+04 
       8.322579568497e-03       2.132606833547e+04 
       1.047750691046e-02       2.360547947136e+04 
       1.319039970183e-02       2.528218691672e+04 
       1.660572937633e-02       2.595025696799e+04 
       2.090537453514e-02       2.520937550933e+04 
       2.631818545635e-02       2.287034510211e+04 
       3.311571692125e-02       1.928623233021e+04 
       4.113809243311e-02       1.568426503766e+04 
       4.792590854610e-02       1.361062959419e+04 
       5.284436902701e-02       1.259129937437e+04 
       5.689644391095e-02       1.195557340305e+04 
       6.051252627066e-02       1.147547575319e+04 
       6.388413457411e-02       1.105589667697e+04 
       6.711249296401e-02       1.064899155793e+04 
       7.025823437965e-02       1.022927129634e+04 
       7.336115587705e-02       9.784521281259e+03 
       7.644928796912e-02       9.311658250718e+03 
       7.954353299775e-02       8.814517411224e+03 
       8.266024078725e-02       8.302107628294e+03 
       8.581273398637e-02       7.786976556374e+03 
       8.901225918437e-02       7.283165142584e+03 
       9.226860540985e-02       6.805160292349e+03 
       9.559052048996e-02       6.365588774398e+03 
       9.898599946599e-02       5.974381744213e+03 
       1.024624891378e-01       5.637352845349e+03 
       1.060270359164e-01       5.355785191126e+03 
       1.096863943056e-01       5.126231585558e+03 
       1.134471073830e-01       4.940477216945e+03 
       1.173155669539e-01       4.786155664128e+03 
       1.212980586983e-01       4.647951797118e+03 
       1.254007961065e-01       4.509147525605e+03 
       1.296299459934e-01       4.354557492449e+03 
       1.339916477160e-01       4.173228009430e+03 
       1.384920277736e-01       3.961176326670e+03 
       1.431372111762e-01       3.722683841527e+03 
       1.479333307714e-01       3.469556886735e+03 
       1.528865355934e-01       3.218336708357e+03 
       1.580029992204e-01       2.986283158015e+03 
       1.632889290723e-01       2.786970163038e+03 
       1.687505775527e-01       2.626829359700e+03 
       1.743942559171e-01       2.503767406529e+03 
       1.802263517371e-01       2.407326897854e+03 
       1.862533508214e-01       2.322245204273e+03 
       1.924818644494e-01       2.231550291089e+03 
       1.989186627765e-01       2.122186536463e+03 
       2.055707152847e-01       1.992030370461e+03 
       2.124452391818e-01       1.850319996190e+03 
       2.195497567139e-01       1.712173255404e+03 
       2.268921624510e-01       1.590990944680e+03 
       2.344808017550e-01       1.493664864728e+03 
       2.423245618548e-01       1.418306837296e+03 
       2.504329772620e-01       1.354463386940e+03 
       2.588163516754e-01       1.288929275618e+03 
       2.674858990930e-01       1.213933484106e+03 
       2.764539076010e-01       1.130688081518e+03 
       2.857339303080e-01       1.048094912181e+03 
       2.953410092148e-01       9.761804102795e+02 
       3.052919395542e-01       9.178066922981e+02 
       3.156055844677e-01       8.678967223777e+02 
       3.263032530092e-01       8.185255600635e+02 
       3.374091587054e-01       7.651417672362e+02 
       3.489509817175e-01       7.106676729885e+02 
       3.609605657343e-01       6.607836157010e+02 
       3.734747921333e-01       6.180834509494e+02 
       3.865366902904e-01       5.793101302536e+02 
       4.001968667448e-01       5.403897982396e+02 
       4.145153713076e-01       5.011495047065e+02 
       4.295641718077e-01       4.644974515618e+02 
       4.454304922144e-01       4.314038163122e+02 
       4.622214006969e-01       4.001136572952e+02 
       4.800702491654e-01       3.690879897606e+02 
       4.991459272112e-01       3.394766852132e+02 
       5.196665217302e-01       3.119838070535e+02 
       5.419201087032e-01       2.852458413668e+02 
       5.662975451962e-01       2.593297545177e+02 
       5.933463737275e-01       2.345469719118e+02 
       6.238638458458e-01       2.102289262954e+02 
       6.590669257916e-01       1.864320830497e+02 
       7.009246080454e-01       1.627244463143e+02 
       7.528593308799e-01       1.388175165766e+02 
       8.213469537518e-01       1.141877929098e+02 
       9.196980813302e-01       8.835862976948e+01 
       1.075112183810e+00       6.172595129207e+01 
       1.322697471132e+00       3.804284915646e+01 
       1.662328205042e+00       2.209790786291e+01 
       2.092692408506e+00       1.266911095067e+01 
       2.634543445090e+00       7.203242373853e+00 
       3.316693691389e+00       4.065106020004e+00 
       4.175469971226e+00       2.278611505024e+00 
       5.256605252960e+00       1.269341474793e+00 
       6.617673932723e+00       7.031211497360e-01 
       8.331157880872e+00       3.874705014725e-01 
       1.048830636590e+01       2.125050220241e-01 
       1.320399541071e+01       1.160313593639e-01 
       1.662284535976e+01       6.309382668618e-02 
       2.092692243973e+01       3.417546365515e-02 
       2.634543445002e+01       1.844232268670e-02 
       3.316693691389e+01       9.915862608608e-03 
       4.175469971226e+01       5.311543461751e-03 
       5.256605252960e+01       2.833974587576e-03 
       6.617673932723e+01       1.505221469155e-03 
