# Matter power spectrum P(k) at redshift z=99
# for k=1.04775e-05 to 66.1767 h/Mpc,
# number of wavenumbers equal to 130
#    1:k (h/Mpc)              2:P (Mpc/h)^3        
       1.047750691046e-05       7.261927680870e-03 
       1.319039970183e-05       9.069258201859e-03 
       1.660572937635e-05       1.132639106727e-02 
       2.090537469327e-05       1.414527123401e-02 
       2.631830744443e-05       1.766569584060e-02 
       3.313278603720e-05       2.206225515945e-02 
       4.171170630578e-05       2.755297766280e-02 
       5.251192703764e-05       3.441013522951e-02 
       6.610859936996e-05       4.297372172782e-02 
       8.322579568497e-05       5.366826852950e-02 
       1.047750691046e-04       6.702379872782e-02 
       1.319039970183e-04       8.370193441295e-02 
       1.660572937635e-04       1.045283355385e-01 
       2.090537469327e-04       1.305329134105e-01 
       2.631830744443e-04       1.629994506607e-01 
       3.313278603720e-04       2.035264004604e-01 
       4.171170630578e-04       2.541004744245e-01 
       5.251192703764e-04       3.171839528560e-01 
       6.610859936996e-04       3.958147256517e-01 
       8.322579568497e-04       4.937136006278e-01 
       1.047750691046e-03       6.153841636047e-01 
       1.319039970183e-03       7.661720592527e-01 
       1.660572937635e-03       9.522588016402e-01 
       2.090537469327e-03       1.180312991698e+00 
       2.631830744443e-03       1.456802684681e+00 
       3.313278603720e-03       1.786503854026e+00 
       4.171170630578e-03       2.169896193144e+00 
       5.251192703764e-03       2.599430630675e+00 
       6.610859936996e-03       3.055668713633e+00 
       8.322579568497e-03       3.505724931203e+00 
       1.047750691046e-02       3.905491041420e+00 
       1.319039970183e-02       4.200915281375e+00 
       1.660572937633e-02       4.325066092725e+00 
       2.090537453514e-02       4.210203009408e+00 
       2.631818545635e-02       3.825145837174e+00 
       3.311571692125e-02       3.229071437117e+00 
       4.113809243311e-02       2.627721839868e+00 
       4.792590854610e-02       2.280793115785e+00 
       5.284436902701e-02       2.110086735115e+00 
       5.689644391095e-02       2.003539568497e+00 
       6.051252627066e-02       1.923052110633e+00 
       6.388413457411e-02       1.852735055345e+00 
       6.711249296401e-02       1.784566552315e+00 
       7.025823437965e-02       1.714278154764e+00 
       7.336115587705e-02       1.639813964302e+00 
       7.644928796912e-02       1.560660267199e+00 
       7.954353299775e-02       1.477457283243e+00 
       8.266024078725e-02       1.391698821571e+00 
       8.581273398637e-02       1.305462736481e+00 
       8.901225918437e-02       1.221128596905e+00 
       9.226860540985e-02       1.141075929989e+00 
       9.559052048996e-02       1.067451376314e+00 
       9.898599946599e-02       1.001889488173e+00 
       1.024624891378e-01       9.453804296059e-01 
       1.060270359164e-01       8.981494219657e-01 
       1.096863943056e-01       8.596134881576e-01 
       1.134471073830e-01       8.284051963463e-01 
       1.173155669539e-01       8.024665894858e-01 
       1.212980586983e-01       7.792291845697e-01 
       1.254007961065e-01       7.559171862884e-01 
       1.296299459934e-01       7.299834916281e-01 
       1.339916477160e-01       6.995945280481e-01 
       1.384920277736e-01       6.640772684241e-01 
       1.431372111762e-01       6.241473957834e-01 
       1.479333307714e-01       5.817651886226e-01 
       1.528865355934e-01       5.396908939790e-01 
       1.580029992204e-01       5.008139023485e-01 
       1.632889290723e-01       4.673979712038e-01 
       1.687505775527e-01       4.405350362990e-01 
       1.743942559171e-01       4.198654947643e-01 
       1.802263517371e-01       4.036586334148e-01 
       1.862533508214e-01       3.893630090427e-01 
       1.924818644494e-01       3.741395106268e-01 
       1.989186627765e-01       3.558064139693e-01 
       2.055707152847e-01       3.340041247018e-01 
       2.124452391818e-01       3.102649763870e-01 
       2.195497567139e-01       2.871226560855e-01 
       2.268921624510e-01       2.668084690032e-01 
       2.344808017550e-01       2.504840990905e-01 
       2.423245618548e-01       2.378332845049e-01 
       2.504329772620e-01       2.271117888915e-01 
       2.588163516754e-01       2.161186407321e-01 
       2.674858990930e-01       2.035474228841e-01 
       2.764539076010e-01       1.895977232520e-01 
       2.857339303080e-01       1.757567070949e-01 
       2.953410092148e-01       1.636987975045e-01 
       3.052919395542e-01       1.539061144702e-01 
       3.156055844677e-01       1.455306674336e-01 
       3.263032530092e-01       1.372499295671e-01 
       3.374091587054e-01       1.283019058406e-01 
       3.489509817175e-01       1.191712590568e-01 
       3.609605657343e-01       1.108073329181e-01 
       3.734747921333e-01       1.036450569781e-01 
       3.865366902904e-01       9.714119359590e-02 
       4.001968667448e-01       9.061510739845e-02 
       4.145153713076e-01       8.403697658782e-02 
       4.295641718077e-01       7.789111672228e-02 
       4.454304922144e-01       7.234169419908e-02 
       4.622214006969e-01       6.709354735935e-02 
       4.800702491654e-01       6.189164620984e-02 
       4.991459272112e-01       5.692617290063e-02 
       5.196665217302e-01       5.231612453270e-02 
       5.419201087032e-01       4.783255222582e-02 
       5.662975451962e-01       4.348686418943e-02 
       5.933463737275e-01       3.933108475029e-02 
       6.238638458458e-01       3.525326840562e-02 
       6.590669257916e-01       3.126283070375e-02 
       7.009246080454e-01       2.728734783262e-02 
       7.528593308799e-01       2.327830428828e-02 
       8.213469537518e-01       1.914814939989e-02 
       9.196980813302e-01       1.481692663954e-02 
       1.075112183810e+00       1.035081178498e-02 
       1.322697471132e+00       6.379335390096e-03 
       1.662328205042e+00       3.705561370242e-03 
       2.092692408506e+00       2.124452116438e-03 
       2.634543445090e+00       1.207870184398e-03 
       3.316693691389e+00       6.816229220689e-04 
       4.175469971226e+00       3.820352888084e-04 
       5.256605252960e+00       2.127923272218e-04 
       6.617673932723e+00       1.178446764167e-04 
       8.331157880872e+00       6.491416134840e-05 
       1.048830636590e+01       3.557684812203e-05 
       1.320399541071e+01       1.940240791242e-05 
       1.662284535976e+01       1.052907186444e-05 
       2.092692243973e+01       5.683538419375e-06 
       2.634543445002e+01       3.049135680353e-06 
       3.316693691389e+01       1.623203849354e-06 
       4.175469971226e+01       8.549739837212e-07 
       5.256605252960e+01       4.433306447023e-07 
       6.617673932723e+01       2.243342332668e-07 
