# Matter power spectrum P(k) at redshift z=0
# for k=1.04775e-05 to 66.1767 h/Mpc,
# number of wavenumbers equal to 130
#    1:k (h/Mpc)              2:P (Mpc/h)^3        
       1.047750691046e-05       5.020964811308e+01 
       1.319039970183e-05       6.270562594771e+01 
       1.660572937635e-05       7.831147247912e+01 
       2.090537469327e-05       9.780108069294e+01 
       2.631830744443e-05       1.221408203809e+02 
       3.313278603720e-05       1.525374501932e+02 
       4.171170630578e-05       1.904975994010e+02 
       5.251192703764e-05       2.379022224249e+02 
       6.610859936996e-05       2.970989227882e+02 
       8.322579568497e-05       3.710167318946e+02 
       1.047750691046e-04       4.633080766742e+02 
       1.319039970183e-04       5.785234129338e+02 
       1.660572937635e-04       7.223242666092e+02 
       2.090537469327e-04       9.017396271824e+02 
       2.631830744443e-04       1.125468123750e+03 
       3.313278603720e-04       1.404223053681e+03 
       4.171170630578e-04       1.751108028790e+03 
       5.251192703764e-04       2.181998448133e+03 
       6.610859936996e-04       2.715889983592e+03 
       8.322579568497e-04       3.375152337133e+03 
       1.047750691046e-03       4.185552174301e+03 
       1.319039970183e-03       5.175742738797e+03 
       1.660572937635e-03       6.376123051775e+03 
       2.090537469327e-03       7.815671865913e+03 
       2.631830744443e-03       9.517783069109e+03 
       3.313278603720e-03       1.149357460346e+04 
       4.171170630578e-03       1.373266008836e+04 
       5.251192703764e-03       1.619063614188e+04 
       6.610859936996e-03       1.877460418582e+04 
       8.322579568497e-03       2.132607234661e+04 
       1.047750691046e-02       2.360548763077e+04 
       1.319039970183e-02       2.528218630726e+04 
       1.660572937633e-02       2.595027337833e+04 
       2.090537453514e-02       2.520937374973e+04 
       2.631818545635e-02       2.287038255453e+04 
       3.311571692125e-02       1.928623786161e+04 
       4.113809243311e-02       1.568431102414e+04 
       4.792590854610e-02       1.361064741992e+04 
       5.284436902701e-02       1.259130119425e+04 
       5.689644391095e-02       1.195558174692e+04 
       6.051252627066e-02       1.147549542612e+04 
       6.388413457411e-02       1.105594977973e+04 
       6.711249296401e-02       1.064903026764e+04 
       7.025823437965e-02       1.022933186257e+04 
       7.336115587705e-02       9.784557474824e+03 
       7.644928796912e-02       9.311681991450e+03 
       7.954353299775e-02       8.814580285290e+03 
       8.266024078725e-02       8.302207494950e+03 
       8.581273398637e-02       7.786953086871e+03 
       8.901225918437e-02       7.283194555860e+03 
       9.226860540985e-02       6.805246406327e+03 
       9.559052048996e-02       6.365681180791e+03 
       9.898599946599e-02       5.974402207752e+03 
       1.024624891378e-01       5.637394394239e+03 
       1.060270359164e-01       5.355801117595e+03 
       1.096863943056e-01       5.126256929428e+03 
       1.134471073830e-01       4.940505039820e+03 
       1.173155669539e-01       4.786203404966e+03 
       1.212980586983e-01       4.647933706455e+03 
       1.254007961065e-01       4.509171685318e+03 
       1.296299459934e-01       4.354567077170e+03 
       1.339916477160e-01       4.173235234115e+03 
       1.384920277736e-01       3.961169811773e+03 
       1.431372111762e-01       3.722706106901e+03 
       1.479333307714e-01       3.469564508544e+03 
       1.528865355934e-01       3.218351317462e+03 
       1.580029992204e-01       2.986274721449e+03 
       1.632889290723e-01       2.786965593742e+03 
       1.687505775527e-01       2.626814751298e+03 
       1.743942559171e-01       2.503772181171e+03 
       1.802263517371e-01       2.407326914027e+03 
       1.862533508214e-01       2.322232653311e+03 
       1.924818644494e-01       2.231537386052e+03 
       1.989186627765e-01       2.122173757481e+03 
       2.055707152847e-01       1.992012903581e+03 
       2.124452391818e-01       1.850325173726e+03 
       2.195497567139e-01       1.712161797389e+03 
       2.268921624510e-01       1.590979434988e+03 
       2.344808017550e-01       1.493660508076e+03 
       2.423245618548e-01       1.418310800703e+03 
       2.504329772620e-01       1.354461358073e+03 
       2.588163516754e-01       1.288940541744e+03 
       2.674858990930e-01       1.213931254596e+03 
       2.764539076010e-01       1.130688251096e+03 
       2.857339303080e-01       1.048090350619e+03 
       2.953410092148e-01       9.761729331344e+02 
       3.052919395542e-01       9.178048460316e+02 
       3.156055844677e-01       8.678867175367e+02 
       3.263032530092e-01       8.185243645034e+02 
       3.374091587054e-01       7.651374759547e+02 
       3.489509817175e-01       7.106666624325e+02 
       3.609605657343e-01       6.607815661755e+02 
       3.734747921333e-01       6.180803901000e+02 
       3.865366902904e-01       5.793109032339e+02 
       4.001968667448e-01       5.403838731514e+02 
       4.145153713076e-01       5.011444149060e+02 
       4.295641718077e-01       4.644945855873e+02 
       4.454304922144e-01       4.314052787564e+02 
       4.622214006969e-01       4.001075208186e+02 
       4.800702491654e-01       3.690846496850e+02 
       4.991459272112e-01       3.394705035143e+02 
       5.196665217302e-01       3.119813628147e+02 
       5.419201087032e-01       2.852424077794e+02 
       5.662975451962e-01       2.593273625542e+02 
       5.933463737275e-01       2.345442396891e+02 
       6.238638458458e-01       2.102292312671e+02 
       6.590669257916e-01       1.864320546330e+02 
       7.009246080454e-01       1.627244541618e+02 
       7.528593308799e-01       1.388171263072e+02 
       8.213469537518e-01       1.141880110943e+02 
       9.196980813302e-01       8.835851895273e+01 
       1.075112183810e+00       6.172554523223e+01 
       1.322697471132e+00       3.804282324170e+01 
       1.662328205042e+00       2.209779795634e+01 
       2.092692408506e+00       1.266902293080e+01 
       2.634543445090e+00       7.203214884946e+00 
       3.316693691389e+00       4.065079606752e+00 
       4.175469971226e+00       2.278564809412e+00 
       5.256605252960e+00       1.269298247407e+00 
       6.617673932723e+00       7.030891679525e-01 
       8.331157880872e+00       3.874389931258e-01 
       1.048830636590e+01       2.124746968471e-01 
       1.320399541071e+01       1.160050746218e-01 
       1.662284535976e+01       6.306938775439e-02 
       2.092692243973e+01       3.415275299325e-02 
       2.634543445002e+01       1.842156778941e-02 
       3.316693691389e+01       9.897122205864e-03 
       4.175469971226e+01       5.294639795528e-03 
       5.256605252960e+01       2.818758429793e-03 
       6.617673932723e+01       1.491702102552e-03 
