# Matter power spectrum P(k) at redshift z=99
# for k=1.04775e-05 to 66.1767 h/Mpc,
# number of wavenumbers equal to 130
#    1:k (h/Mpc)              2:P (Mpc/h)^3        
       1.047750691046e-05       7.261927680861e-03 
       1.319039970183e-05       9.069258201848e-03 
       1.660572937635e-05       1.132639106725e-02 
       2.090537469327e-05       1.414527123399e-02 
       2.631830744443e-05       1.766569584058e-02 
       3.313278603720e-05       2.206225515942e-02 
       4.171170630578e-05       2.755297766277e-02 
       5.251192703764e-05       3.441013522947e-02 
       6.610859936996e-05       4.297372172777e-02 
       8.322579568497e-05       5.366826852944e-02 
       1.047750691046e-04       6.702379872774e-02 
       1.319039970183e-04       8.370193441285e-02 
       1.660572937635e-04       1.045283355384e-01 
       2.090537469327e-04       1.305329134104e-01 
       2.631830744443e-04       1.629994506605e-01 
       3.313278603720e-04       2.035264004601e-01 
       4.171170630578e-04       2.541004744243e-01 
       5.251192703764e-04       3.171839528557e-01 
       6.610859936996e-04       3.958147256513e-01 
       8.322579568497e-04       4.937136006276e-01 
       1.047750691046e-03       6.153841636041e-01 
       1.319039970183e-03       7.661720592353e-01 
       1.660572937635e-03       9.522588016469e-01 
       2.090537469327e-03       1.180312991700e+00 
       2.631830744443e-03       1.456802684686e+00 
       3.313278603720e-03       1.786503854037e+00 
       4.171170630578e-03       2.169896196086e+00 
       5.251192703764e-03       2.599430630723e+00 
       6.610859936996e-03       3.055668706373e+00 
       8.322579568497e-03       3.505725598625e+00 
       1.047750691046e-02       3.905491511102e+00 
       1.319039970183e-02       4.200915410693e+00 
       1.660572937633e-02       4.325062874792e+00 
       2.090537453514e-02       4.210210086413e+00 
       2.631818545635e-02       3.825153995100e+00 
       3.311571692125e-02       3.229063394928e+00 
       4.113809243311e-02       2.627726368387e+00 
       4.792590854610e-02       2.280796536204e+00 
       5.284436902701e-02       2.110087777751e+00 
       5.689644391095e-02       2.003537912230e+00 
       6.051252627066e-02       1.923058640106e+00 
       6.388413457411e-02       1.852732886054e+00 
       6.711249296401e-02       1.784565213052e+00 
       7.025823437965e-02       1.714275867597e+00 
       7.336115587705e-02       1.639814836192e+00 
       7.644928796912e-02       1.560663013172e+00 
       7.954353299775e-02       1.477456038679e+00 
       8.266024078725e-02       1.391698903293e+00 
       8.581273398637e-02       1.305458946358e+00 
       8.901225918437e-02       1.221124608826e+00 
       9.226860540985e-02       1.141080442825e+00 
       9.559052048996e-02       1.067449417772e+00 
       9.898599946599e-02       1.001889226192e+00 
       1.024624891378e-01       9.453828739505e-01 
       1.060270359164e-01       8.981503761428e-01 
       1.096863943056e-01       8.596115625014e-01 
       1.134471073830e-01       8.284036188928e-01 
       1.173155669539e-01       8.024664647490e-01 
       1.212980586983e-01       7.792313226436e-01 
       1.254007961065e-01       7.559194055700e-01 
       1.296299459934e-01       7.299827566946e-01 
       1.339916477160e-01       6.995913322978e-01 
       1.384920277736e-01       6.640790625736e-01 
       1.431372111762e-01       6.241463064677e-01 
       1.479333307714e-01       5.817643372909e-01 
       1.528865355934e-01       5.396954265257e-01 
       1.580029992204e-01       5.008150474761e-01 
       1.632889290723e-01       4.673989343349e-01 
       1.687505775527e-01       4.405343344114e-01 
       1.743942559171e-01       4.198659430017e-01 
       1.802263517371e-01       4.036613297106e-01 
       1.862533508214e-01       3.893597674434e-01 
       1.924818644494e-01       3.741356222982e-01 
       1.989186627765e-01       3.558027495411e-01 
       2.055707152847e-01       3.339994076661e-01 
       2.124452391818e-01       3.102662092767e-01 
       2.195497567139e-01       2.871234068766e-01 
       2.268921624510e-01       2.668090059510e-01 
       2.344808017550e-01       2.504839242620e-01 
       2.423245618548e-01       2.378339552682e-01 
       2.504329772620e-01       2.271121509562e-01 
       2.588163516754e-01       2.161178392410e-01 
       2.674858990930e-01       2.035454902581e-01 
       2.764539076010e-01       1.895973143123e-01 
       2.857339303080e-01       1.757575749302e-01 
       2.953410092148e-01       1.636998006340e-01 
       3.052919395542e-01       1.539063433152e-01 
       3.156055844677e-01       1.455312006358e-01 
       3.263032530092e-01       1.372502472870e-01 
       3.374091587054e-01       1.283018773706e-01 
       3.489509817175e-01       1.191711299540e-01 
       3.609605657343e-01       1.108074171700e-01 
       3.734747921333e-01       1.036452235713e-01 
       3.865366902904e-01       9.714145127081e-02 
       4.001968667448e-01       9.061542656560e-02 
       4.145153713076e-01       8.403725782785e-02 
       4.295641718077e-01       7.789140316881e-02 
       4.454304922144e-01       7.234191696559e-02 
       4.622214006969e-01       6.709378945410e-02 
       4.800702491654e-01       6.189200102008e-02 
       4.991459272112e-01       5.692642838192e-02 
       5.196665217302e-01       5.231623761596e-02 
       5.419201087032e-01       4.783266294851e-02 
       5.662975451962e-01       4.348681939398e-02 
       5.933463737275e-01       3.933120388015e-02 
       6.238638458458e-01       3.525343311758e-02 
       6.590669257916e-01       3.126296371732e-02 
       7.009246080454e-01       2.728739335796e-02 
       7.528593308799e-01       2.327849778516e-02 
       8.213469537518e-01       1.914830680018e-02 
       9.196980813302e-01       1.481706272036e-02 
       1.075112183810e+00       1.035091948996e-02 
       1.322697471132e+00       6.379490310312e-03 
       1.662328205042e+00       3.705694630545e-03 
       2.092692408506e+00       2.124546119578e-03 
       2.634543445090e+00       1.207967512703e-03 
       3.316693691389e+00       6.817176853921e-04 
       4.175469971226e+00       3.821259873275e-04 
       5.256605252960e+00       2.128770169782e-04 
       6.617673932723e+00       1.179230851689e-04 
       8.331157880872e+00       6.498826638447e-05 
       1.048830636590e+01       3.564586197661e-05 
       1.320399541071e+01       1.946659595180e-05 
       1.662284535976e+01       1.058813398469e-05 
       2.092692243973e+01       5.737490803051e-06 
       2.634543445002e+01       3.098248383368e-06 
       3.316693691389e+01       1.667600109822e-06 
       4.175469971226e+01       8.947969870806e-07 
       5.256605252960e+01       4.787169459537e-07 
       6.617673932723e+01       2.553751113643e-07 
