# Matter power spectrum P(k) at redshift z=0
# for k=1.04775e-05 to 67.6233 h/Mpc,
# number of wavenumbers equal to 246
#    1:k (h/Mpc)              2:P (Mpc/h)^3        
       1.047750691046e-05       5.020964811308e+01 
       1.131335172503e-05       5.407050701925e+01 
       1.221587619537e-05       5.822819068592e+01 
       1.319039970183e-05       6.270562594784e+01 
       1.424266597921e-05       6.752732240880e+01 
       1.537887696968e-05       7.271977206173e+01 
       1.660572937635e-05       7.831147247912e+01 
       1.793045413292e-05       8.433311821988e+01 
       1.936085902198e-05       9.081778249833e+01 
       2.090537469327e-05       9.780108069296e+01 
       2.257310435294e-05       1.053213197893e+02 
       2.437387741694e-05       1.134197377890e+02 
       2.631830744443e-05       1.221408203809e+02 
       2.841785469300e-05       1.315324642469e+02 
       3.068489366414e-05       1.416462094882e+02 
       3.313278603720e-05       1.525374501932e+02 
       3.577595942169e-05       1.642660688414e+02 
       3.862999239199e-05       1.768963506307e+02 
       4.171170630578e-05       1.904975994010e+02 
       4.503926444729e-05       2.051444491974e+02 
       4.863227907969e-05       2.209171465549e+02 
       5.251192703764e-05       2.379022224249e+02 
       5.670107454120e-05       2.561927927696e+02 
       6.122441196689e-05       2.758890444041e+02 
       6.610859936996e-05       2.970989227881e+02 
       7.138242361596e-05       3.199385560802e+02 
       7.707696804727e-05       3.445329783680e+02 
       8.322579568497e-05       3.710167318946e+02 
       8.986514704559e-05       3.995346444203e+02 
       9.703415373875e-05       4.302425407383e+02 
       1.047750691046e-04       4.633080766742e+02 
       1.131335172503e-04       4.989116271564e+02 
       1.221587619537e-04       5.372471950930e+02 
       1.319039970183e-04       5.785234129341e+02 
       1.424266597921e-04       6.229645936045e+02 
       1.537887696968e-04       6.708118490405e+02 
       1.660572937635e-04       7.223242666092e+02 
       1.793045413292e-04       7.777801564143e+02 
       1.936085902198e-04       8.374783614140e+02 
       2.090537469327e-04       9.017396271824e+02 
       2.257310435294e-04       9.709080268041e+02 
       2.437387741694e-04       1.045352449493e+03 
       2.631830744443e-04       1.125468123750e+03 
       2.841785469300e-04       1.211678180494e+03 
       3.068489366414e-04       1.304435250150e+03 
       3.313278603720e-04       1.404223053681e+03 
       3.577595942169e-04       1.511558014616e+03 
       3.862999239199e-04       1.626990837784e+03 
       4.171170630578e-04       1.751108028790e+03 
       4.503926444729e-04       1.884533382871e+03 
       4.863227907969e-04       2.027929378112e+03 
       5.251192703764e-04       2.181998448132e+03 
       5.670107454121e-04       2.347484102754e+03 
       6.122441196689e-04       2.525171871365e+03 
       6.610859936996e-04       2.715889983591e+03 
       7.138242361596e-04       2.920509688382e+03 
       7.707696804727e-04       3.139945100278e+03 
       8.322579568497e-04       3.375152337582e+03 
       8.986514704559e-04       3.627127831138e+03 
       9.703415373875e-04       3.896905453133e+03 
       1.047750691046e-03       4.185552174296e+03 
       1.131335172503e-03       4.494162430368e+03 
       1.221587619537e-03       4.823850706482e+03 
       1.319039970183e-03       5.175742743808e+03 
       1.424266597921e-03       5.551019596920e+03 
       1.537887696968e-03       5.950788340552e+03 
       1.660572937635e-03       6.376123051806e+03 
       1.793045413292e-03       6.828073901434e+03 
       1.936085902198e-03       7.307625381040e+03 
       2.090537469327e-03       7.815671914329e+03 
       2.257310435294e-03       8.352990375777e+03 
       2.437387741694e-03       8.920211064327e+03 
       2.631830744443e-03       9.517783069042e+03 
       2.841785469300e-03       1.014593704426e+04 
       3.068489366414e-03       1.080464502777e+04 
       3.313278603720e-03       1.149357460332e+04 
       3.577595942169e-03       1.221203621704e+04 
       3.862999239199e-03       1.295892539423e+04 
       4.171170630578e-03       1.373266010207e+04 
       4.503926444729e-03       1.453111835589e+04 
       4.863227907969e-03       1.535154984007e+04 
       5.251192703764e-03       1.619063606907e+04 
       5.670107454120e-03       1.704431257341e+04 
       6.122441196689e-03       1.790755944075e+04 
       6.610859936996e-03       1.877460424672e+04 
       7.138242361596e-03       1.963872444851e+04 
       7.707696804727e-03       2.049215714347e+04 
       8.322579568496e-03       2.132611003482e+04 
       8.986514704559e-03       2.213054989545e+04 
       9.703415373875e-03       2.289445527354e+04 
       1.047750691046e-02       2.360548167779e+04 
       1.131335172503e-02       2.425022300318e+04 
       1.221587619537e-02       2.481423938662e+04 
       1.319039970183e-02       2.528219153027e+04 
       1.424266597920e-02       2.563813952979e+04 
       1.537887696964e-02       2.586607930937e+04 
       1.660572937560e-02       2.595027717795e+04 
       1.793045412207e-02       2.587634269568e+04 
       1.936085889642e-02       2.563220216114e+04 
       2.090537351881e-02       2.520933933137e+04 
       2.257309534705e-02       2.460445855835e+04 
       2.437382002240e-02       2.382089132014e+04 
       2.631799943729e-02       2.287055992088e+04 
       2.841644544598e-02       2.177463232085e+04 
       3.067933354524e-02       2.056553906480e+04 
       3.311368469821e-02       1.928728474331e+04 
       3.571840442514e-02       1.799406136302e+04 
       3.847720347390e-02       1.674678662059e+04 
       4.135335537314e-02       1.560458971283e+04 
       4.429361666563e-02       1.461031248858e+04 
       4.724366437916e-02       1.378051361163e+04 
       5.016480834039e-02       1.310502815380e+04 
       5.303989618930e-02       1.255711142436e+04 
       5.586870668205e-02       1.210427460070e+04 
       5.866042679206e-02       1.171471350834e+04 
       6.142798931504e-02       1.136050661873e+04 
       6.418496438662e-02       1.101863004291e+04 
       6.694418832236e-02       1.067069831308e+04 
       6.971731104453e-02       1.030357219116e+04 
       7.251476154108e-02       9.909064785602e+03 
       7.534587669814e-02       9.483720802028e+03 
       7.821907664495e-02       9.029425250171e+03 
       8.114203771084e-02       8.552233353647e+03 
       8.412184533139e-02       8.061962380464e+03 
       8.716512277352e-02       7.570790811347e+03 
       9.027813693913e-02       7.092495950470e+03 
       9.346688429613e-02       6.640522202379e+03 
       9.673716026122e-02       6.226735118576e+03 
       1.000946150608e-01       5.859945153753e+03 
       1.035447986307e-01       5.545266426305e+03 
       1.070931966524e-01       5.283149953862e+03 
       1.107452594180e-01       5.069433079999e+03 
       1.145064248899e-01       4.895259693808e+03 
       1.183821370656e-01       4.747855942340e+03 
       1.223778605591e-01       4.611730580195e+03 
       1.264990921707e-01       4.470618994039e+03 
       1.307513701078e-01       4.310247750086e+03 
       1.351402814485e-01       4.121390863696e+03 
       1.396714683894e-01       3.902058003257e+03 
       1.443506337875e-01       3.658655560206e+03 
       1.491835464900e-01       3.404475963509e+03 
       1.541760469368e-01       3.156645024638e+03 
       1.593340535209e-01       2.931947520447e+03 
       1.646635701934e-01       2.742358665475e+03 
       1.701706958081e-01       2.592237500158e+03 
       1.758616357070e-01       2.477218633153e+03 
       1.817427160581e-01       2.385162386335e+03 
       1.878204014651e-01       2.300349113975e+03 
       1.941013163855e-01       2.205778004649e+03 
       2.005922709060e-01       2.090845441588e+03 
       2.073002914514e-01       1.956462745514e+03 
       2.142326570343e-01       1.814176181938e+03 
       2.213969417044e-01       1.679265613353e+03 
       2.288010639201e-01       1.563833648812e+03 
       2.364533436625e-01       1.472669899317e+03 
       2.443625682390e-01       1.401509729758e+03 
       2.525380678946e-01       1.338420840189e+03 
       2.609898025770e-01       1.270897083735e+03 
       2.697284614969e-01       1.193355001245e+03 
       2.787655775073e-01       1.109334025009e+03 
       2.881136588192e-01       1.028763638926e+03 
       2.977863412019e-01       9.604735036814e+02 
       3.077985646248e-01       9.050173496639e+02 
       3.181667793367e-01       8.561368206171e+02 
       3.289091877084e-01       8.061813523026e+02 
       3.400460298905e-01       7.523823716175e+02 
       3.515999235695e-01       6.989141070467e+02 
       3.635962710278e-01       6.510506690979e+02 
       3.760637505499e-01       6.101192891469e+02 
       3.890349143014e-01       5.721264003486e+02 
       4.025469215929e-01       5.337757178542e+02 
       4.166424455447e-01       4.956224183827e+02 
       4.313708034899e-01       4.604641343230e+02 
       4.467893781976e-01       4.287687328319e+02 
       4.629654198623e-01       3.987691799399e+02 
       4.799783500912e-01       3.692347595754e+02 
       4.979227318246e-01       3.412369637587e+02 
       5.169121269689e-01       3.154780425824e+02 
       5.370841403262e-01       2.908308266739e+02 
       5.586070463286e-01       2.671013647247e+02 
       5.816885093582e-01       2.448045455949e+02 
       6.065870143577e-01       2.235652060409e+02 
       6.336266466978e-01       2.032079157338e+02 
       6.632156057925e-01       1.838769744071e+02 
       6.958678637575e-01       1.653528598940e+02 
       7.322247983784e-01       1.476940884693e+02 
       7.730680193171e-01       1.308323849586e+02 
       8.193049551574e-01       1.148305147814e+02 
       8.718988013754e-01       9.976123371339e+01 
       9.317218028590e-01       8.577656334040e+01 
       9.993660906273e-01       7.305336349947e+01 
       1.075037109879e+00       6.173481639362e+01 
       1.158653485387e+00       5.187793478603e+01 
       1.250099156961e+00       4.343904786123e+01 
       1.349432400897e+00       3.628789414873e+01 
       1.456947456991e+00       3.026685962532e+01 
       1.573135110893e+00       2.521346958997e+01 
       1.698621895119e+00       2.098090151407e+01 
       1.834127512423e+00       1.744135456230e+01 
       1.980444933977e+00       1.448461507557e+01 
       2.138435191130e+00       1.201795558692e+01 
       2.309029198543e+00       9.962181851636e+00 
       2.493232376993e+00       8.250818808724e+00 
       2.692130394536e+00       6.827607346667e+00 
       2.906895533764e+00       5.645294081812e+00 
       3.138793596840e+00       4.663898229257e+00 
       3.389191365541e+00       3.850185105433e+00 
       3.659564656886e+00       3.176027207308e+00 
       3.951507021438e+00       2.617966892133e+00 
       4.266739135513e+00       2.156451149946e+00 
       4.607118942658e+00       1.775051988973e+00 
       4.974652604172e+00       1.460129386026e+00 
       5.371506323193e+00       1.200285907307e+00 
       5.800019112071e+00       9.860548402405e-01 
       6.262716578240e+00       8.095439317678e-01 
       6.762325809881e+00       6.642099597182e-01 
       7.301791449077e+00       5.446444012953e-01 
       7.884293047211e+00       4.463329336443e-01 
       8.513263804891e+00       3.655504653310e-01 
       9.192410806865e+00       2.992090375688e-01 
       9.925736871166e+00       2.447664544308e-01 
       1.071756414128e+01       2.001100676020e-01 
       1.157255956041e+01       1.635053281739e-01 
       1.249576237789e+01       1.335143257990e-01 
       1.349261385000e+01       1.089564573052e-01 
       1.456898931011e+01       8.886061600808e-02 
       1.573123279727e+01       7.242219454358e-02 
       1.698619444729e+01       5.898410001953e-02 
       1.834127086665e+01       4.800376625762e-02 
       1.980444872733e+01       3.903723660921e-02 
       2.138435183937e+01       3.171807391326e-02 
       2.309029197863e+01       2.574734148463e-02 
       2.493232376942e+01       2.087905026015e-02 
       2.692130394533e+01       1.691204936560e-02 
       2.906895533764e+01       1.368118547405e-02 
       3.138793596840e+01       1.105147258842e-02 
       3.389191365541e+01       8.912554622364e-03 
       3.659564656886e+01       7.173935090027e-03 
       3.951507021438e+01       5.761966614569e-03 
       4.266739135513e+01       4.616101451919e-03 
       4.607118942658e+01       3.687140919131e-03 
       4.974652604172e+01       2.935018818649e-03 
       5.371506323193e+01       2.326772797128e-03 
       5.800019112071e+01       1.835717222066e-03 
       6.262716578240e+01       1.440050355913e-03 
       6.762325809881e+01       1.121984393232e-03 
