# Matter power spectrum P(k) at redshift z=99
# for k=1.04775e-05 to 66.1767 h/Mpc,
# number of wavenumbers equal to 130
#    1:k (h/Mpc)              2:P (Mpc/h)^3        
       1.047750691046e-05       7.261927685865e-03 
       1.319039970183e-05       9.069258208097e-03 
       1.660572937635e-05       1.132639107506e-02 
       2.090537469327e-05       1.414527124374e-02 
       2.631830744443e-05       1.766569585275e-02 
       3.313278603720e-05       2.206225517462e-02 
       4.171170630578e-05       2.755297768174e-02 
       5.251192703764e-05       3.441013525317e-02 
       6.610859936996e-05       4.297372175733e-02 
       8.322579568497e-05       5.366826856629e-02 
       1.047750691046e-04       6.702379877371e-02 
       1.319039970183e-04       8.370193447011e-02 
       1.660572937635e-04       1.045283356096e-01 
       2.090537469327e-04       1.305329134987e-01 
       2.631830744443e-04       1.629994507696e-01 
       3.313278603720e-04       2.035264005939e-01 
       4.171170630578e-04       2.541004745866e-01 
       5.251192703764e-04       3.171839530488e-01 
       6.610859936996e-04       3.958147258740e-01 
       8.322579568497e-04       4.937136008719e-01 
       1.047750691046e-03       6.153841638322e-01 
       1.319039970183e-03       7.661720593739e-01 
       1.660572937635e-03       9.522588014713e-01 
       2.090537469327e-03       1.180312990734e+00 
       2.631830744443e-03       1.456802681969e+00 
       3.313278603720e-03       1.786503847629e+00 
       4.171170630578e-03       2.169896181076e+00 
       5.251192703764e-03       2.599430601638e+00 
       6.610859936996e-03       3.055668557504e+00 
       8.322579568497e-03       3.505724744120e+00 
       1.047750691046e-02       3.905490572819e+00 
       1.319039970183e-02       4.200916810623e+00 
       1.660572937633e-02       4.325060566497e+00 
       2.090537453514e-02       4.210198654889e+00 
       2.631818545635e-02       3.825142642525e+00 
       3.311571692125e-02       3.229045143697e+00 
       4.113809243311e-02       2.627688027286e+00 
       4.792590854610e-02       2.280725925136e+00 
       5.284436902701e-02       2.110003379020e+00 
       5.689644391095e-02       2.003436214705e+00 
       6.051252627066e-02       1.922937542995e+00 
       6.388413457411e-02       1.852594091857e+00 
       6.711249296401e-02       1.784410627219e+00 
       7.025823437965e-02       1.714102183311e+00 
       7.336115587705e-02       1.639621624241e+00 
       7.644928796912e-02       1.560447987784e+00 
       7.954353299775e-02       1.477223226925e+00 
       8.266024078725e-02       1.391441401072e+00 
       8.581273398637e-02       1.305183757027e+00 
       8.901225918437e-02       1.220827898808e+00 
       9.226860540985e-02       1.140758361529e+00 
       9.559052048996e-02       1.067107405733e+00 
       9.898599946599e-02       1.001524437270e+00 
       1.024624891378e-01       9.449890427680e-01 
       1.060270359164e-01       8.977343373549e-01 
       1.096863943056e-01       8.591666877318e-01 
       1.134471073830e-01       8.279282869495e-01 
       1.173155669539e-01       8.019559503241e-01 
       1.212980586983e-01       7.786796730117e-01 
       1.254007961065e-01       7.553257988768e-01 
       1.296299459934e-01       7.293475479212e-01 
       1.339916477160e-01       6.989120512148e-01 
       1.384920277736e-01       6.633514901176e-01 
       1.431372111762e-01       6.233742091543e-01 
       1.479333307714e-01       5.809451353006e-01 
       1.528865355934e-01       5.388265777687e-01 
       1.580029992204e-01       4.999038000655e-01 
       1.632889290723e-01       4.664401875233e-01 
       1.687505775527e-01       4.395214952807e-01 
       1.743942559171e-01       4.187908657076e-01 
       1.802263517371e-01       4.025168661932e-01 
       1.862533508214e-01       3.881408684270e-01 
       1.924818644494e-01       3.728346531948e-01 
       1.989186627765e-01       3.544228675837e-01 
       2.055707152847e-01       3.325414643287e-01 
       2.124452391818e-01       3.087313343439e-01 
       2.195497567139e-01       2.855145663346e-01 
       2.268921624510e-01       2.651202395134e-01 
       2.344808017550e-01       2.487068411968e-01 
       2.423245618548e-01       2.359553600342e-01 
       2.504329772620e-01       2.251225153814e-01 
       2.588163516754e-01       2.140112321300e-01 
       2.674858990930e-01       2.013259493313e-01 
       2.764539076010e-01       1.872694633492e-01 
       2.857339303080e-01       1.733208181400e-01 
       2.953410092148e-01       1.611476024777e-01 
       3.052919395542e-01       1.512244119323e-01 
       3.156055844677e-01       1.427053286943e-01 
       3.263032530092e-01       1.342765644276e-01 
       3.374091587054e-01       1.251842883839e-01 
       3.489509817175e-01       1.159115409503e-01 
       3.609605657343e-01       1.073988028443e-01 
       3.734747921333e-01       1.000721331722e-01 
       3.865366902904e-01       9.339192437112e-02 
       4.001968667448e-01       8.668803400975e-02 
       4.145153713076e-01       7.993267491437e-02 
       4.295641718077e-01       7.360127290138e-02 
       4.454304922144e-01       6.785202843883e-02 
       4.622214006969e-01       6.239418936785e-02 
       4.800702491654e-01       5.697982166299e-02 
       4.991459272112e-01       5.179312418660e-02 
       5.196665217302e-01       4.694578737634e-02 
       5.419201087032e-01       4.221643156664e-02 
       5.662975451962e-01       3.761417780877e-02 
       5.933463737275e-01       3.318499362089e-02 
       6.238638458458e-01       2.882123025702e-02 
       6.590669257916e-01       2.452758653576e-02 
       7.009246080454e-01       2.023449993628e-02 
       7.528593308799e-01       1.589797457779e-02 
       8.213469537518e-01       1.145507132809e-02 
       9.196980813302e-01       6.918117328853e-03 
       1.075112183810e+00       2.686785990930e-03 
       1.322697471132e+00       1.933113985994e-04 
       1.662328205042e+00       3.541916290367e-04 
       2.092692408506e+00       1.124341904005e-03 
       2.634543445090e+00       5.455286263027e-04 
       3.316693691389e+00       3.377296080614e-06 
       4.175469971226e+00       1.619748010464e-04 
       5.256605252960e+00       4.056150214242e-07 
       6.617673932723e+00       1.281122396938e-05 
       8.331157880872e+00       4.770443014731e-06 
       1.048830636590e+01       8.534066198628e-07 
       1.320399541071e+01       4.547092665876e-08 
       1.662284535976e+01       4.118605099554e-09 
       2.092692243973e+01       3.589456972157e-11 
       2.634543445002e+01       1.829165568496e-12 
       3.316693691389e+01       1.204903826712e-14 
       4.175469971226e+01       5.535838892829e-17 
       5.256605252960e+01       3.874478616323e-18 
       6.617673932723e+01       1.907931736184e-20 
