# Matter power spectrum P(k) at redshift z=99
# for k=1.04775e-05 to 66.1767 h/Mpc,
# number of wavenumbers equal to 130
#    1:k (h/Mpc)              2:P (Mpc/h)^3        
       1.047750691046e-05       7.261927680861e-03 
       1.319039970183e-05       9.069258201848e-03 
       1.660572937635e-05       1.132639106725e-02 
       2.090537469327e-05       1.414527123399e-02 
       2.631830744443e-05       1.766569584058e-02 
       3.313278603720e-05       2.206225515942e-02 
       4.171170630578e-05       2.755297766277e-02 
       5.251192703764e-05       3.441013522947e-02 
       6.610859936996e-05       4.297372172777e-02 
       8.322579568497e-05       5.366826852944e-02 
       1.047750691046e-04       6.702379872774e-02 
       1.319039970183e-04       8.370193441285e-02 
       1.660572937635e-04       1.045283355384e-01 
       2.090537469327e-04       1.305329134104e-01 
       2.631830744443e-04       1.629994506605e-01 
       3.313278603720e-04       2.035264004601e-01 
       4.171170630578e-04       2.541004744243e-01 
       5.251192703764e-04       3.171839528557e-01 
       6.610859936996e-04       3.958147256513e-01 
       8.322579568497e-04       4.937136006271e-01 
       1.047750691046e-03       6.153841636042e-01 
       1.319039970183e-03       7.661720592242e-01 
       1.660572937635e-03       9.522588016468e-01 
       2.090537469327e-03       1.180312991699e+00 
       2.631830744443e-03       1.456802684686e+00 
       3.313278603720e-03       1.786503854037e+00 
       4.171170630578e-03       2.169896192649e+00 
       5.251192703764e-03       2.599430630723e+00 
       6.610859936996e-03       3.055668707066e+00 
       8.322579568497e-03       3.505725134334e+00 
       1.047750691046e-02       3.905491818437e+00 
       1.319039970183e-02       4.200915309967e+00 
       1.660572937633e-02       4.325064325934e+00 
       2.090537453514e-02       4.210202929962e+00 
       2.631818545635e-02       3.825152681786e+00 
       3.311571692125e-02       3.229065353378e+00 
       4.113809243311e-02       2.627734566576e+00 
       4.792590854610e-02       2.280790123780e+00 
       5.284436902701e-02       2.110084346759e+00 
       5.689644391095e-02       2.003541372701e+00 
       6.051252627066e-02       1.923057112342e+00 
       6.388413457411e-02       1.852735302693e+00 
       6.711249296401e-02       1.784565030020e+00 
       7.025823437965e-02       1.714275632846e+00 
       7.336115587705e-02       1.639813603158e+00 
       7.644928796912e-02       1.560661362574e+00 
       7.954353299775e-02       1.477459768341e+00 
       8.266024078725e-02       1.391697052657e+00 
       8.581273398637e-02       1.305463102682e+00 
       8.901225918437e-02       1.221126188020e+00 
       9.226860540985e-02       1.141079140391e+00 
       9.559052048996e-02       1.067448531978e+00 
       9.898599946599e-02       1.001889665678e+00 
       1.024624891378e-01       9.453824162412e-01 
       1.060270359164e-01       8.981496884906e-01 
       1.096863943056e-01       8.596139390004e-01 
       1.134471073830e-01       8.284047287475e-01 
       1.173155669539e-01       8.024671788069e-01 
       1.212980586983e-01       7.792326996718e-01 
       1.254007961065e-01       7.559193314969e-01 
       1.296299459934e-01       7.299830235258e-01 
       1.339916477160e-01       6.995923705549e-01 
       1.384920277736e-01       6.640783649140e-01 
       1.431372111762e-01       6.241466697111e-01 
       1.479333307714e-01       5.817630170814e-01 
       1.528865355934e-01       5.396940985954e-01 
       1.580029992204e-01       5.008142839661e-01 
       1.632889290723e-01       4.673993943587e-01 
       1.687505775527e-01       4.405336207485e-01 
       1.743942559171e-01       4.198652764533e-01 
       1.802263517371e-01       4.036605829860e-01 
       1.862533508214e-01       3.893590112047e-01 
       1.924818644494e-01       3.741355161062e-01 
       1.989186627765e-01       3.558023761000e-01 
       2.055707152847e-01       3.339982690995e-01 
       2.124452391818e-01       3.102653895822e-01 
       2.195497567139e-01       2.871232994599e-01 
       2.268921624510e-01       2.668083431122e-01 
       2.344808017550e-01       2.504836265227e-01 
       2.423245618548e-01       2.378334686870e-01 
       2.504329772620e-01       2.271118896830e-01 
       2.588163516754e-01       2.161175772019e-01 
       2.674858990930e-01       2.035451087201e-01 
       2.764539076010e-01       1.895973932827e-01 
       2.857339303080e-01       1.757575520586e-01 
       2.953410092148e-01       1.637002011065e-01 
       3.052919395542e-01       1.539061013133e-01 
       3.156055844677e-01       1.455312225291e-01 
       3.263032530092e-01       1.372501877166e-01 
       3.374091587054e-01       1.283018134042e-01 
       3.489509817175e-01       1.191712251750e-01 
       3.609605657343e-01       1.108076491986e-01 
       3.734747921333e-01       1.036452183580e-01 
       3.865366902904e-01       9.714151760407e-02 
       4.001968667448e-01       9.061550679520e-02 
       4.145153713076e-01       8.403710713746e-02 
       4.295641718077e-01       7.789136673343e-02 
       4.454304922144e-01       7.234182411872e-02 
       4.622214006969e-01       6.709378394389e-02 
       4.800702491654e-01       6.189182042784e-02 
       4.991459272112e-01       5.692642753938e-02 
       5.196665217302e-01       5.231633325262e-02 
       5.419201087032e-01       4.783264736607e-02 
       5.662975451962e-01       4.348708396522e-02 
       5.933463737275e-01       3.933114815029e-02 
       6.238638458458e-01       3.525351629009e-02 
       6.590669257916e-01       3.126302828360e-02 
       7.009246080454e-01       2.728740368825e-02 
       7.528593308799e-01       2.327856655911e-02 
       8.213469537518e-01       1.914823964334e-02 
       9.196980813302e-01       1.481705122071e-02 
       1.075112183810e+00       1.035095495789e-02 
       1.322697471132e+00       6.379471109820e-03 
       1.662328205042e+00       3.705669230530e-03 
       2.092692408506e+00       2.124539863610e-03 
       2.634543445090e+00       1.207970817451e-03 
       3.316693691389e+00       6.817134220701e-04 
       4.175469971226e+00       3.821248826414e-04 
       5.256605252960e+00       2.128771821805e-04 
       6.617673932723e+00       1.179232670368e-04 
       8.331157880872e+00       6.498842831082e-05 
       1.048830636590e+01       3.564583920857e-05 
       1.320399541071e+01       1.946647992228e-05 
       1.662284535976e+01       1.058800410036e-05 
       2.092692243973e+01       5.737427252606e-06 
       2.634543445002e+01       3.098143743797e-06 
       3.316693691389e+01       1.667482040378e-06 
       4.175469971226e+01       8.946630208869e-07 
       5.256605252960e+01       4.785558977744e-07 
       6.617673932723e+01       2.551910250775e-07 
