# Matter power spectrum P(k) at redshift z=0
# for k=1.04775e-05 to 66.1767 h/Mpc,
# number of wavenumbers equal to 130
#    1:k (h/Mpc)              2:P (Mpc/h)^3        
       1.047750691046e-05       5.020964811308e+01 
       1.319039970183e-05       6.270562594777e+01 
       1.660572937635e-05       7.831147247912e+01 
       2.090537469327e-05       9.780108069297e+01 
       2.631830744443e-05       1.221408203809e+02 
       3.313278603720e-05       1.525374501932e+02 
       4.171170630578e-05       1.904975994010e+02 
       5.251192703764e-05       2.379022224249e+02 
       6.610859936996e-05       2.970989227881e+02 
       8.322579568497e-05       3.710167318946e+02 
       1.047750691046e-04       4.633080766742e+02 
       1.319039970183e-04       5.785234129336e+02 
       1.660572937635e-04       7.223242666092e+02 
       2.090537469327e-04       9.017396271824e+02 
       2.631830744443e-04       1.125468123750e+03 
       3.313278603720e-04       1.404223053681e+03 
       4.171170630578e-04       1.751108028790e+03 
       5.251192703764e-04       2.181998448133e+03 
       6.610859936996e-04       2.715889983593e+03 
       8.322579568497e-04       3.375152337134e+03 
       1.047750691046e-03       4.185552174308e+03 
       1.319039970183e-03       5.175742741813e+03 
       1.660572937635e-03       6.376123051780e+03 
       2.090537469327e-03       7.815671904522e+03 
       2.631830744443e-03       9.517783069112e+03 
       3.313278603720e-03       1.149357460342e+04 
       4.171170630578e-03       1.373266011767e+04 
       5.251192703764e-03       1.619063614517e+04 
       6.610859936996e-03       1.877460417627e+04 
       8.322579568497e-03       2.132606948991e+04 
       1.047750691046e-02       2.360547894327e+04 
       1.319039970183e-02       2.528218768210e+04 
       1.660572937633e-02       2.595028058507e+04 
       2.090537453514e-02       2.520934554706e+04 
       2.631818545635e-02       2.287033515171e+04 
       3.311571692125e-02       1.928623286510e+04 
       4.113809243311e-02       1.568427922357e+04 
       4.792590854610e-02       1.361064163109e+04 
       5.284436902701e-02       1.259130448960e+04 
       5.689644391095e-02       1.195557834351e+04 
       6.051252627066e-02       1.147548131901e+04 
       6.388413457411e-02       1.105588638295e+04 
       6.711249296401e-02       1.064898620508e+04 
       7.025823437965e-02       1.022928289427e+04 
       7.336115587705e-02       9.784549331396e+03 
       7.644928796912e-02       9.311627771385e+03 
       7.954353299775e-02       8.814543208197e+03 
       8.266024078725e-02       8.302123456500e+03 
       8.581273398637e-02       7.786990931549e+03 
       8.901225918437e-02       7.283193279312e+03 
       9.226860540985e-02       6.805148481205e+03 
       9.559052048996e-02       6.365559281196e+03 
       9.898599946599e-02       5.974396312979e+03 
       1.024624891378e-01       5.637337666104e+03 
       1.060270359164e-01       5.355798550246e+03 
       1.096863943056e-01       5.126226381027e+03 
       1.134471073830e-01       4.940466391220e+03 
       1.173155669539e-01       4.786157891576e+03 
       1.212980586983e-01       4.647928452924e+03 
       1.254007961065e-01       4.509125775966e+03 
       1.296299459934e-01       4.354547001491e+03 
       1.339916477160e-01       4.173225043644e+03 
       1.384920277736e-01       3.961185008744e+03 
       1.431372111762e-01       3.722681786207e+03 
       1.479333307714e-01       3.469541441120e+03 
       1.528865355934e-01       3.218336452789e+03 
       1.580029992204e-01       2.986291078709e+03 
       1.632889290723e-01       2.786959499470e+03 
       1.687505775527e-01       2.626824549941e+03 
       1.743942559171e-01       2.503748742422e+03 
       1.802263517371e-01       2.407336301890e+03 
       1.862533508214e-01       2.322246505814e+03 
       1.924818644494e-01       2.231543828508e+03 
       1.989186627765e-01       2.122193777168e+03 
       2.055707152847e-01       1.992026843301e+03 
       2.124452391818e-01       1.850322629047e+03 
       2.195497567139e-01       1.712170008442e+03 
       2.268921624510e-01       1.590986511557e+03 
       2.344808017550e-01       1.493668465175e+03 
       2.423245618548e-01       1.418309445798e+03 
       2.504329772620e-01       1.354462410573e+03 
       2.588163516754e-01       1.288930813015e+03 
       2.674858990930e-01       1.213935512017e+03 
       2.764539076010e-01       1.130690814174e+03 
       2.857339303080e-01       1.048097955331e+03 
       2.953410092148e-01       9.761831471418e+02 
       3.052919395542e-01       9.178067277623e+02 
       3.156055844677e-01       8.678946905681e+02 
       3.263032530092e-01       8.185253006402e+02 
       3.374091587054e-01       7.651449778946e+02 
       3.489509817175e-01       7.106687950251e+02 
       3.609605657343e-01       6.607837512323e+02 
       3.734747921333e-01       6.180816382370e+02 
       3.865366902904e-01       5.793094345445e+02 
       4.001968667448e-01       5.403880167530e+02 
       4.145153713076e-01       5.011512892686e+02 
       4.295641718077e-01       4.644974980832e+02 
       4.454304922144e-01       4.314058970902e+02 
       4.622214006969e-01       4.001112058501e+02 
       4.800702491654e-01       3.690864088017e+02 
       4.991459272112e-01       3.394746722758e+02 
       5.196665217302e-01       3.119837689084e+02 
       5.419201087032e-01       2.852455195597e+02 
       5.662975451962e-01       2.593298208062e+02 
       5.933463737275e-01       2.345469687609e+02 
       6.238638458458e-01       2.102303322541e+02 
       6.590669257916e-01       1.864328382145e+02 
       7.009246080454e-01       1.627244138760e+02 
       7.528593308799e-01       1.388180625304e+02 
       8.213469537518e-01       1.141880413519e+02 
       9.196980813302e-01       8.835891618919e+01 
       1.075112183810e+00       6.172570180280e+01 
       1.322697471132e+00       3.804254891258e+01 
       1.662328205042e+00       2.209779364273e+01 
       2.092692408506e+00       1.266910689538e+01 
       2.634543445090e+00       7.203251600064e+00 
       3.316693691389e+00       4.065119896376e+00 
       4.175469971226e+00       2.278594214826e+00 
       5.256605252960e+00       1.269337134476e+00 
       6.617673932723e+00       7.031279135877e-01 
       8.331157880872e+00       3.874744186830e-01 
       1.048830636590e+01       2.125051731852e-01 
       1.320399541071e+01       1.160328823300e-01 
       1.662284535976e+01       6.309553053277e-02 
       2.092692243973e+01       3.417640551818e-02 
       2.634543445002e+01       1.844330437044e-02 
       3.316693691389e+01       9.916561206208e-03 
       4.175469971226e+01       5.312297560156e-03 
       5.256605252960e+01       2.834602918182e-03 
       6.617673932723e+01       1.505828333033e-03 
