# Matter power spectrum P(k) at redshift z=0
# for k=1.04775e-05 to 66.1767 h/Mpc,
# number of wavenumbers equal to 130
#    1:k (h/Mpc)              2:P (Mpc/h)^3        
       1.047750691046e-05       5.020964811308e+01 
       1.319039970183e-05       6.270562594788e+01 
       1.660572937635e-05       7.831147247912e+01 
       2.090537469327e-05       9.780108069294e+01 
       2.631830744443e-05       1.221408203809e+02 
       3.313278603720e-05       1.525374501932e+02 
       4.171170630578e-05       1.904975994009e+02 
       5.251192703764e-05       2.379022224249e+02 
       6.610859936996e-05       2.970989227882e+02 
       8.322579568497e-05       3.710167318945e+02 
       1.047750691046e-04       4.633080766742e+02 
       1.319039970183e-04       5.785234129341e+02 
       1.660572937635e-04       7.223242666092e+02 
       2.090537469327e-04       9.017396271824e+02 
       2.631830744443e-04       1.125468123750e+03 
       3.313278603720e-04       1.404223053681e+03 
       4.171170630578e-04       1.751108028789e+03 
       5.251192703764e-04       2.181998448132e+03 
       6.610859936996e-04       2.715889983591e+03 
       8.322579568497e-04       3.375152337132e+03 
       1.047750691046e-03       4.185552174306e+03 
       1.319039970183e-03       5.175742738834e+03 
       1.660572937635e-03       6.376123051745e+03 
       2.090537469327e-03       7.815671866263e+03 
       2.631830744443e-03       9.517783069033e+03 
       3.313278603720e-03       1.149357460329e+04 
       4.171170630578e-03       1.373266012857e+04 
       5.251192703764e-03       1.619063605948e+04 
       6.610859936996e-03       1.877460427145e+04 
       8.322579568497e-03       2.132611396055e+04 
       1.047750691046e-02       2.360548047808e+04 
       1.319039970183e-02       2.528219157004e+04 
       1.660572937633e-02       2.595028106607e+04 
       2.090537453514e-02       2.520938296501e+04 
       2.631818545635e-02       2.287040653296e+04 
       3.311571692125e-02       1.928621885025e+04 
       4.113809243311e-02       1.568425783744e+04 
       4.792590854610e-02       1.361060601163e+04 
       5.284436902701e-02       1.259129411188e+04 
       5.689644391095e-02       1.195558806605e+04 
       6.051252627066e-02       1.147548007129e+04 
       6.388413457411e-02       1.105593530354e+04 
       6.711249296401e-02       1.064901383860e+04 
       7.025823437965e-02       1.022933315705e+04 
       7.336115587705e-02       9.784545350244e+03 
       7.644928796912e-02       9.311684596670e+03 
       7.954353299775e-02       8.814556310417e+03 
       8.266024078725e-02       8.302183270225e+03 
       8.581273398637e-02       7.786953676839e+03 
       8.901225918437e-02       7.283282713800e+03 
       9.226860540985e-02       6.805182974340e+03 
       9.559052048996e-02       6.365624910302e+03 
       9.898599946599e-02       5.974396337285e+03 
       1.024624891378e-01       5.637350747077e+03 
       1.060270359164e-01       5.355781080306e+03 
       1.096863943056e-01       5.126236362109e+03 
       1.134471073830e-01       4.940498778494e+03 
       1.173155669539e-01       4.786154419585e+03 
       1.212980586983e-01       4.647934646679e+03 
       1.254007961065e-01       4.509056732631e+03 
       1.296299459934e-01       4.354543500619e+03 
       1.339916477160e-01       4.173235495703e+03 
       1.384920277736e-01       3.961169172092e+03 
       1.431372111762e-01       3.722592436295e+03 
       1.479333307714e-01       3.469545016908e+03 
       1.528865355934e-01       3.218317631049e+03 
       1.580029992204e-01       2.986246296534e+03 
       1.632889290723e-01       2.786949506929e+03 
       1.687505775527e-01       2.626807517767e+03 
       1.743942559171e-01       2.503758497864e+03 
       1.802263517371e-01       2.407305220495e+03 
       1.862533508214e-01       2.322260981371e+03 
       1.924818644494e-01       2.231567126573e+03 
       1.989186627765e-01       2.122208098095e+03 
       2.055707152847e-01       1.992041208035e+03 
       2.124452391818e-01       1.850300175703e+03 
       2.195497567139e-01       1.712157179144e+03 
       2.268921624510e-01       1.590965569771e+03 
       2.344808017550e-01       1.493658004252e+03 
       2.423245618548e-01       1.418301800381e+03 
       2.504329772620e-01       1.354446348601e+03 
       2.588163516754e-01       1.288933138355e+03 
       2.674858990930e-01       1.213906781569e+03 
       2.764539076010e-01       1.130680109673e+03 
       2.857339303080e-01       1.048082363840e+03 
       2.953410092148e-01       9.761722326026e+02 
       3.052919395542e-01       9.178026577673e+02 
       3.156055844677e-01       8.678861303255e+02 
       3.263032530092e-01       8.185249183421e+02 
       3.374091587054e-01       7.651463903552e+02 
       3.489509817175e-01       7.106572122857e+02 
       3.609605657343e-01       6.607753619562e+02 
       3.734747921333e-01       6.180808704955e+02 
       3.865366902904e-01       5.793002177204e+02 
       4.001968667448e-01       5.403811562039e+02 
       4.145153713076e-01       5.011419473379e+02 
       4.295641718077e-01       4.644938232223e+02 
       4.454304922144e-01       4.313996073548e+02 
       4.622214006969e-01       4.001090298526e+02 
       4.800702491654e-01       3.690821227001e+02 
       4.991459272112e-01       3.394696562102e+02 
       5.196665217302e-01       3.119794904576e+02 
       5.419201087032e-01       2.852410908438e+02 
       5.662975451962e-01       2.593257293826e+02 
       5.933463737275e-01       2.345431797823e+02 
       6.238638458458e-01       2.102281284014e+02 
       6.590669257916e-01       1.864311991012e+02 
       7.009246080454e-01       1.627231796828e+02 
       7.528593308799e-01       1.388165326595e+02 
       8.213469537518e-01       1.141869511165e+02 
       9.196980813302e-01       8.835759890136e+01 
       1.075112183810e+00       6.172464684702e+01 
       1.322697471132e+00       3.804126546399e+01 
       1.662328205042e+00       2.209666073381e+01 
       2.092692408506e+00       1.266797034372e+01 
       2.634543445090e+00       7.202054532431e+00 
       3.316693691389e+00       4.063958120741e+00 
       4.175469971226e+00       2.277418466606e+00 
       5.256605252960e+00       1.268134524934e+00 
       6.617673932723e+00       7.018885331863e-01 
       8.331157880872e+00       3.861806900137e-01 
       1.048830636590e+01       2.111331447651e-01 
       1.320399541071e+01       1.145480267615e-01 
       1.662284535976e+01       6.146181684599e-02 
       2.092692243973e+01       3.236012067970e-02 
       2.634543445002e+01       1.642586811163e-02 
       3.316693691389e+01       7.726215363196e-03 
       4.175469971226e+01       3.068861555835e-03 
       5.256605252960e+01       7.961233707571e-04 
       6.617673932723e+01       3.276121009293e-05 
