# Matter power spectrum P(k) at redshift z=0
# for k=1.04775e-05 to 66.1767 h/Mpc,
# number of wavenumbers equal to 130
#    1:k (h/Mpc)              2:P (Mpc/h)^3        
       1.047750691046e-05       5.020964811306e+01 
       1.319039970183e-05       6.270562594781e+01 
       1.660572937635e-05       7.831147247912e+01 
       2.090537469327e-05       9.780108069295e+01 
       2.631830744443e-05       1.221408203809e+02 
       3.313278603720e-05       1.525374501932e+02 
       4.171170630578e-05       1.904975994010e+02 
       5.251192703764e-05       2.379022224249e+02 
       6.610859936996e-05       2.970989227882e+02 
       8.322579568497e-05       3.710167318946e+02 
       1.047750691046e-04       4.633080766742e+02 
       1.319039970183e-04       5.785234129337e+02 
       1.660572937635e-04       7.223242666092e+02 
       2.090537469327e-04       9.017396271824e+02 
       2.631830744443e-04       1.125468123750e+03 
       3.313278603720e-04       1.404223053681e+03 
       4.171170630578e-04       1.751108028789e+03 
       5.251192703764e-04       2.181998448133e+03 
       6.610859936996e-04       2.715889983592e+03 
       8.322579568497e-04       3.375152337134e+03 
       1.047750691046e-03       4.185552174304e+03 
       1.319039970183e-03       5.175742738970e+03 
       1.660572937635e-03       6.376123051781e+03 
       2.090537469327e-03       7.815671866296e+03 
       2.631830744443e-03       9.517783069112e+03 
       3.313278603720e-03       1.149357460346e+04 
       4.171170630578e-03       1.373266012770e+04 
       5.251192703764e-03       1.619063614557e+04 
       6.610859936996e-03       1.877460420541e+04 
       8.322579568497e-03       2.132606964767e+04 
       1.047750691046e-02       2.360548377358e+04 
       1.319039970183e-02       2.528218873240e+04 
       1.660572937633e-02       2.595026988382e+04 
       2.090537453514e-02       2.520932021768e+04 
       2.631818545635e-02       2.287037697883e+04 
       3.311571692125e-02       1.928628370223e+04 
       4.113809243311e-02       1.568425386161e+04 
       4.792590854610e-02       1.361061665268e+04 
       5.284436902701e-02       1.259130166462e+04 
       5.689644391095e-02       1.195557780703e+04 
       6.051252627066e-02       1.147547057474e+04 
       6.388413457411e-02       1.105591223858e+04 
       6.711249296401e-02       1.064900113086e+04 
       7.025823437965e-02       1.022931080170e+04 
       7.336115587705e-02       9.784521761995e+03 
       7.644928796912e-02       9.311651055750e+03 
       7.954353299775e-02       8.814547424875e+03 
       8.266024078725e-02       8.302142477506e+03 
       8.581273398637e-02       7.786950245553e+03 
       8.901225918437e-02       7.283218672018e+03 
       9.226860540985e-02       6.805159669504e+03 
       9.559052048996e-02       6.365632592515e+03 
       9.898599946599e-02       5.974397281496e+03 
       1.024624891378e-01       5.637312395449e+03 
       1.060270359164e-01       5.355762777136e+03 
       1.096863943056e-01       5.126232905712e+03 
       1.134471073830e-01       4.940473718698e+03 
       1.173155669539e-01       4.786165959452e+03 
       1.212980586983e-01       4.647947040903e+03 
       1.254007961065e-01       4.509144057324e+03 
       1.296299459934e-01       4.354550159162e+03 
       1.339916477160e-01       4.173217626461e+03 
       1.384920277736e-01       3.961169006004e+03 
       1.431372111762e-01       3.722691275531e+03 
       1.479333307714e-01       3.469533136783e+03 
       1.528865355934e-01       3.218338284751e+03 
       1.580029992204e-01       2.986291453977e+03 
       1.632889290723e-01       2.786973087303e+03 
       1.687505775527e-01       2.626828838462e+03 
       1.743942559171e-01       2.503753534902e+03 
       1.802263517371e-01       2.407346901749e+03 
       1.862533508214e-01       2.322253721359e+03 
       1.924818644494e-01       2.231553439240e+03 
       1.989186627765e-01       2.122186719640e+03 
       2.055707152847e-01       1.992031128580e+03 
       2.124452391818e-01       1.850326105314e+03 
       2.195497567139e-01       1.712187942102e+03 
       2.268921624510e-01       1.590987900057e+03 
       2.344808017550e-01       1.493669184978e+03 
       2.423245618548e-01       1.418309362597e+03 
       2.504329772620e-01       1.354464909101e+03 
       2.588163516754e-01       1.288939568584e+03 
       2.674858990930e-01       1.213932641690e+03 
       2.764539076010e-01       1.130690573984e+03 
       2.857339303080e-01       1.048099015508e+03 
       2.953410092148e-01       9.761819455987e+02 
       3.052919395542e-01       9.178103430072e+02 
       3.156055844677e-01       8.678987925310e+02 
       3.263032530092e-01       8.185257946046e+02 
       3.374091587054e-01       7.651453677507e+02 
       3.489509817175e-01       7.106718081960e+02 
       3.609605657343e-01       6.607853218081e+02 
       3.734747921333e-01       6.180857838058e+02 
       3.865366902904e-01       5.793095554437e+02 
       4.001968667448e-01       5.403915051717e+02 
       4.145153713076e-01       5.011510988655e+02 
       4.295641718077e-01       4.645000360607e+02 
       4.454304922144e-01       4.314080967605e+02 
       4.622214006969e-01       4.001123670722e+02 
       4.800702491654e-01       3.690899720663e+02 
       4.991459272112e-01       3.394768408969e+02 
       5.196665217302e-01       3.119845489071e+02 
       5.419201087032e-01       2.852473334830e+02 
       5.662975451962e-01       2.593313130258e+02 
       5.933463737275e-01       2.345485096263e+02 
       6.238638458458e-01       2.102305477682e+02 
       6.590669257916e-01       1.864337124341e+02 
       7.009246080454e-01       1.627253385194e+02 
       7.528593308799e-01       1.388183100714e+02 
       8.213469537518e-01       1.141883997548e+02 
       9.196980813302e-01       8.835916592960e+01 
       1.075112183810e+00       6.172629112403e+01 
       1.322697471132e+00       3.804270117676e+01 
       1.662328205042e+00       2.209792900402e+01 
       2.092692408506e+00       1.266916705526e+01 
       2.634543445090e+00       7.203285781933e+00 
       3.316693691389e+00       4.065114199726e+00 
       4.175469971226e+00       2.278557563654e+00 
       5.256605252960e+00       1.269352090900e+00 
       6.617673932723e+00       7.031313581147e-01 
       8.331157880872e+00       3.874773167758e-01 
       1.048830636590e+01       2.125085357382e-01 
       1.320399541071e+01       1.160350620757e-01 
       1.662284535976e+01       6.309726445490e-02 
       2.092692243973e+01       3.417784532110e-02 
       2.634543445002e+01       1.844362524255e-02 
       3.316693691389e+01       9.916240960578e-03 
       4.175469971226e+01       5.310908374600e-03 
       5.256605252960e+01       2.832186487704e-03 
       6.617673932723e+01       1.502200105855e-03 
