# Matter power spectrum P(k) at redshift z=99
# for k=1.04775e-05 to 66.1767 h/Mpc,
# number of wavenumbers equal to 130
#    1:k (h/Mpc)              2:P (Mpc/h)^3        
       1.047750691046e-05       7.261927680862e-03 
       1.319039970183e-05       9.069258201849e-03 
       1.660572937635e-05       1.132639106725e-02 
       2.090537469327e-05       1.414527123399e-02 
       2.631830744443e-05       1.766569584058e-02 
       3.313278603720e-05       2.206225515942e-02 
       4.171170630578e-05       2.755297766277e-02 
       5.251192703764e-05       3.441013522947e-02 
       6.610859936996e-05       4.297372172778e-02 
       8.322579568497e-05       5.366826852944e-02 
       1.047750691046e-04       6.702379872775e-02 
       1.319039970183e-04       8.370193441286e-02 
       1.660572937635e-04       1.045283355384e-01 
       2.090537469327e-04       1.305329134104e-01 
       2.631830744443e-04       1.629994506605e-01 
       3.313278603720e-04       2.035264004601e-01 
       4.171170630578e-04       2.541004744243e-01 
       5.251192703764e-04       3.171839528557e-01 
       6.610859936996e-04       3.958147256513e-01 
       8.322579568497e-04       4.937136006275e-01 
       1.047750691046e-03       6.153841636041e-01 
       1.319039970183e-03       7.661720592927e-01 
       1.660572937635e-03       9.522588016475e-01 
       2.090537469327e-03       1.180312991699e+00 
       2.631830744443e-03       1.456802684686e+00 
       3.313278603720e-03       1.786503854047e+00 
       4.171170630578e-03       2.169896192126e+00 
       5.251192703764e-03       2.599430630719e+00 
       6.610859936996e-03       3.055668715524e+00 
       8.322579568497e-03       3.505725598654e+00 
       1.047750691046e-02       3.905491133464e+00 
       1.319039970183e-02       4.200915272325e+00 
       1.660572937633e-02       4.325061030861e+00 
       2.090537453514e-02       4.210200716304e+00 
       2.631818545635e-02       3.825150081303e+00 
       3.311571692125e-02       3.229063216324e+00 
       4.113809243311e-02       2.627730698460e+00 
       4.792590854610e-02       2.280790469907e+00 
       5.284436902701e-02       2.110082588347e+00 
       5.689644391095e-02       2.003538116199e+00 
       6.051252627066e-02       1.923057454379e+00 
       6.388413457411e-02       1.852730040789e+00 
       6.711249296401e-02       1.784564645381e+00 
       7.025823437965e-02       1.714274993604e+00 
       7.336115587705e-02       1.639813886176e+00 
       7.644928796912e-02       1.560663783730e+00 
       7.954353299775e-02       1.477455986672e+00 
       8.266024078725e-02       1.391696438895e+00 
       8.581273398637e-02       1.305461816814e+00 
       8.901225918437e-02       1.221126474162e+00 
       9.226860540985e-02       1.141079579079e+00 
       9.559052048996e-02       1.067452004561e+00 
       9.898599946599e-02       1.001889418341e+00 
       1.024624891378e-01       9.453830942910e-01 
       1.060270359164e-01       8.981497465625e-01 
       1.096863943056e-01       8.596127589716e-01 
       1.134471073830e-01       8.284050917070e-01 
       1.173155669539e-01       8.024680536200e-01 
       1.212980586983e-01       7.792295771043e-01 
       1.254007961065e-01       7.559188286971e-01 
       1.296299459934e-01       7.299822564704e-01 
       1.339916477160e-01       6.995927348471e-01 
       1.384920277736e-01       6.640787335583e-01 
       1.431372111762e-01       6.241460544633e-01 
       1.479333307714e-01       5.817646189219e-01 
       1.528865355934e-01       5.396939049181e-01 
       1.580029992204e-01       5.008142536526e-01 
       1.632889290723e-01       4.673988628995e-01 
       1.687505775527e-01       4.405345677816e-01 
       1.743942559171e-01       4.198651593105e-01 
       1.802263517371e-01       4.036598818520e-01 
       1.862533508214e-01       3.893590842614e-01 
       1.924818644494e-01       3.741341659011e-01 
       1.989186627765e-01       3.558020661008e-01 
       2.055707152847e-01       3.339997444512e-01 
       2.124452391818e-01       3.102662451602e-01 
       2.195497567139e-01       2.871229654713e-01 
       2.268921624510e-01       2.668081934351e-01 
       2.344808017550e-01       2.504830101584e-01 
       2.423245618548e-01       2.378331809773e-01 
       2.504329772620e-01       2.271115523420e-01 
       2.588163516754e-01       2.161190897729e-01 
       2.674858990930e-01       2.035455055553e-01 
       2.764539076010e-01       1.895988667493e-01 
       2.857339303080e-01       1.757568025950e-01 
       2.953410092148e-01       1.636994566445e-01 
       3.052919395542e-01       1.539061296295e-01 
       3.156055844677e-01       1.455312389446e-01 
       3.263032530092e-01       1.372504710716e-01 
       3.374091587054e-01       1.283024788091e-01 
       3.489509817175e-01       1.191713862676e-01 
       3.609605657343e-01       1.108074063485e-01 
       3.734747921333e-01       1.036450093961e-01 
       3.865366902904e-01       9.714147216768e-02 
       4.001968667448e-01       9.061568027975e-02 
       4.145153713076e-01       8.403705595771e-02 
       4.295641718077e-01       7.789129861247e-02 
       4.454304922144e-01       7.234148436482e-02 
       4.622214006969e-01       6.709375271418e-02 
       4.800702491654e-01       6.189204772038e-02 
       4.991459272112e-01       5.692629809091e-02 
       5.196665217302e-01       5.231622121564e-02 
       5.419201087032e-01       4.783266434503e-02 
       5.662975451962e-01       4.348700450138e-02 
       5.933463737275e-01       3.933112722658e-02 
       6.238638458458e-01       3.525340956814e-02 
       6.590669257916e-01       3.126289984335e-02 
       7.009246080454e-01       2.728725227019e-02 
       7.528593308799e-01       2.327844932001e-02 
       8.213469537518e-01       1.914822348589e-02 
       9.196980813302e-01       1.481705194935e-02 
       1.075112183810e+00       1.035090088514e-02 
       1.322697471132e+00       6.379435156130e-03 
       1.662328205042e+00       3.705676731898e-03 
       2.092692408506e+00       2.124535539541e-03 
       2.634543445090e+00       1.207955977578e-03 
       3.316693691389e+00       6.817047495260e-04 
       4.175469971226e+00       3.821155851498e-04 
       5.256605252960e+00       2.128697266509e-04 
       6.617673932723e+00       1.179175407769e-04 
       8.331157880872e+00       6.498226971711e-05 
       1.048830636590e+01       3.564086586918e-05 
       1.320399541071e+01       1.946168207927e-05 
       1.662284535976e+01       1.058367052754e-05 
       2.092692243973e+01       5.733504023103e-06 
       2.634543445002e+01       3.094576219896e-06 
       3.316693691389e+01       1.664274117259e-06 
       4.175469971226e+01       8.917989055189e-07 
       5.256605252960e+01       4.760152362473e-07 
       6.617673932723e+01       2.529545942691e-07 
