# Matter power spectrum P(k) at redshift z=0
# for k=1.04775e-05 to 66.1767 h/Mpc,
# number of wavenumbers equal to 130
#    1:k (h/Mpc)              2:P (Mpc/h)^3        
       1.047750691046e-05       5.020964811308e+01 
       1.319039970183e-05       6.270562594777e+01 
       1.660572937635e-05       7.831147247912e+01 
       2.090537469327e-05       9.780108069295e+01 
       2.631830744443e-05       1.221408203810e+02 
       3.313278603720e-05       1.525374501932e+02 
       4.171170630578e-05       1.904975994009e+02 
       5.251192703764e-05       2.379022224249e+02 
       6.610859936996e-05       2.970989227882e+02 
       8.322579568497e-05       3.710167318946e+02 
       1.047750691046e-04       4.633080766742e+02 
       1.319039970183e-04       5.785234129339e+02 
       1.660572937635e-04       7.223242666092e+02 
       2.090537469327e-04       9.017396271824e+02 
       2.631830744443e-04       1.125468123750e+03 
       3.313278603720e-04       1.404223053681e+03 
       4.171170630578e-04       1.751108028790e+03 
       5.251192703764e-04       2.181998448133e+03 
       6.610859936996e-04       2.715889983592e+03 
       8.322579568497e-04       3.375152337132e+03 
       1.047750691046e-03       4.185552174308e+03 
       1.319039970183e-03       5.175742741814e+03 
       1.660572937635e-03       6.376123051789e+03 
       2.090537469327e-03       7.815671866291e+03 
       2.631830744443e-03       9.517783069111e+03 
       3.313278603720e-03       1.149357460344e+04 
       4.171170630578e-03       1.373266008932e+04 
       5.251192703764e-03       1.619063614410e+04 
       6.610859936996e-03       1.877460417817e+04 
       8.322579568497e-03       2.132606720009e+04 
       1.047750691046e-02       2.360548452243e+04 
       1.319039970183e-02       2.528218657157e+04 
       1.660572937633e-02       2.595026104526e+04 
       2.090537453514e-02       2.520935878706e+04 
       2.631818545635e-02       2.287036012243e+04 
       3.311571692125e-02       1.928624963794e+04 
       4.113809243311e-02       1.568426130287e+04 
       4.792590854610e-02       1.361062258879e+04 
       5.284436902701e-02       1.259131146645e+04 
       5.689644391095e-02       1.195556388938e+04 
       6.051252627066e-02       1.147546684113e+04 
       6.388413457411e-02       1.105587731326e+04 
       6.711249296401e-02       1.064897479415e+04 
       7.025823437965e-02       1.022926983582e+04 
       7.336115587705e-02       9.784512426581e+03 
       7.644928796912e-02       9.311672584695e+03 
       7.954353299775e-02       8.814513130844e+03 
       8.266024078725e-02       8.302173744780e+03 
       8.581273398637e-02       7.786956561645e+03 
       8.901225918437e-02       7.283244248591e+03 
       9.226860540985e-02       6.805224637643e+03 
       9.559052048996e-02       6.365603919995e+03 
       9.898599946599e-02       5.974403392744e+03 
       1.024624891378e-01       5.637362356406e+03 
       1.060270359164e-01       5.355807346659e+03 
       1.096863943056e-01       5.126249841227e+03 
       1.134471073830e-01       4.940506322886e+03 
       1.173155669539e-01       4.786171881740e+03 
       1.212980586983e-01       4.647941955229e+03 
       1.254007961065e-01       4.509157910390e+03 
       1.296299459934e-01       4.354562550886e+03 
       1.339916477160e-01       4.173219767874e+03 
       1.384920277736e-01       3.961166379039e+03 
       1.431372111762e-01       3.722677340048e+03 
       1.479333307714e-01       3.469564748836e+03 
       1.528865355934e-01       3.218359311779e+03 
       1.580029992204e-01       2.986264091001e+03 
       1.632889290723e-01       2.786960104058e+03 
       1.687505775527e-01       2.626823110447e+03 
       1.743942559171e-01       2.503761752692e+03 
       1.802263517371e-01       2.407329984624e+03 
       1.862533508214e-01       2.322226133699e+03 
       1.924818644494e-01       2.231535875088e+03 
       1.989186627765e-01       2.122171135087e+03 
       2.055707152847e-01       1.992017238162e+03 
       2.124452391818e-01       1.850316774746e+03 
       2.195497567139e-01       1.712167332150e+03 
       2.268921624510e-01       1.590981141702e+03 
       2.344808017550e-01       1.493665070214e+03 
       2.423245618548e-01       1.418312825750e+03 
       2.504329772620e-01       1.354463146104e+03 
       2.588163516754e-01       1.288927265132e+03 
       2.674858990930e-01       1.213932304365e+03 
       2.764539076010e-01       1.130687653941e+03 
       2.857339303080e-01       1.048092952687e+03 
       2.953410092148e-01       9.761784442990e+02 
       3.052919395542e-01       9.178049192157e+02 
       3.156055844677e-01       8.678917460467e+02 
       3.263032530092e-01       8.185214028324e+02 
       3.374091587054e-01       7.651430045997e+02 
       3.489509817175e-01       7.106701575547e+02 
       3.609605657343e-01       6.607828917346e+02 
       3.734747921333e-01       6.180816648991e+02 
       3.865366902904e-01       5.793070983618e+02 
       4.001968667448e-01       5.403909541341e+02 
       4.145153713076e-01       5.011495638040e+02 
       4.295641718077e-01       4.644973076538e+02 
       4.454304922144e-01       4.314071688650e+02 
       4.622214006969e-01       4.001080037107e+02 
       4.800702491654e-01       3.690842595381e+02 
       4.991459272112e-01       3.394741644458e+02 
       5.196665217302e-01       3.119808325722e+02 
       5.419201087032e-01       2.852439277512e+02 
       5.662975451962e-01       2.593289402788e+02 
       5.933463737275e-01       2.345455436830e+02 
       6.238638458458e-01       2.102294922250e+02 
       6.590669257916e-01       1.864329559750e+02 
       7.009246080454e-01       1.627232501797e+02 
       7.528593308799e-01       1.388175204303e+02 
       8.213469537518e-01       1.141879631917e+02 
       9.196980813302e-01       8.835874938390e+01 
       1.075112183810e+00       6.172562137127e+01 
       1.322697471132e+00       3.804290561786e+01 
       1.662328205042e+00       2.209783633511e+01 
       2.092692408506e+00       1.266906242940e+01 
       2.634543445090e+00       7.203194974739e+00 
       3.316693691389e+00       4.065110858068e+00 
       4.175469971226e+00       2.278579639205e+00 
       5.256605252960e+00       1.269325103773e+00 
       6.617673932723e+00       7.031151379667e-01 
       8.331157880872e+00       3.874618343420e-01 
       1.048830636590e+01       2.124971043323e-01 
       1.320399541071e+01       1.160235966941e-01 
       1.662284535976e+01       6.308705706731e-02 
       2.092692243973e+01       3.416824676694e-02 
       2.634543445002e+01       1.843571335375e-02 
       3.316693691389e+01       9.909585982745e-03 
       4.175469971226e+01       5.305620144223e-03 
       5.256605252960e+01       2.828226819837e-03 
       6.617673932723e+01       1.499661513683e-03 
