# Matter power spectrum P(k) at redshift z=0
# for k=1.04775e-05 to 66.1767 h/Mpc,
# number of wavenumbers equal to 130
#    1:k (h/Mpc)              2:P (Mpc/h)^3        
       1.047750691046e-05       5.020964811307e+01 
       1.319039970183e-05       6.270562594779e+01 
       1.660572937635e-05       7.831147247912e+01 
       2.090537469327e-05       9.780108069295e+01 
       2.631830744443e-05       1.221408203809e+02 
       3.313278603720e-05       1.525374501932e+02 
       4.171170630578e-05       1.904975994009e+02 
       5.251192703764e-05       2.379022224249e+02 
       6.610859936996e-05       2.970989227882e+02 
       8.322579568497e-05       3.710167318946e+02 
       1.047750691046e-04       4.633080766742e+02 
       1.319039970183e-04       5.785234129337e+02 
       1.660572937635e-04       7.223242666092e+02 
       2.090537469327e-04       9.017396271824e+02 
       2.631830744443e-04       1.125468123750e+03 
       3.313278603720e-04       1.404223053681e+03 
       4.171170630578e-04       1.751108028790e+03 
       5.251192703764e-04       2.181998448133e+03 
       6.610859936996e-04       2.715889983592e+03 
       8.322579568497e-04       3.375152337134e+03 
       1.047750691046e-03       4.185552174309e+03 
       1.319039970183e-03       5.175742738730e+03 
       1.660572937635e-03       6.376123051788e+03 
       2.090537469327e-03       7.815671868417e+03 
       2.631830744443e-03       9.517783069111e+03 
       3.313278603720e-03       1.149357460345e+04 
       4.171170630578e-03       1.373266010478e+04 
       5.251192703764e-03       1.619063614401e+04 
       6.610859936996e-03       1.877460420116e+04 
       8.322579568497e-03       2.132606829545e+04 
       1.047750691046e-02       2.360547726564e+04 
       1.319039970183e-02       2.528218531482e+04 
       1.660572937633e-02       2.595027728132e+04 
       2.090537453514e-02       2.520933999569e+04 
       2.631818545635e-02       2.287034488858e+04 
       3.311571692125e-02       1.928626363640e+04 
       4.113809243311e-02       1.568431530441e+04 
       4.792590854610e-02       1.361062731491e+04 
       5.284436902701e-02       1.259132043914e+04 
       5.689644391095e-02       1.195556912878e+04 
       6.051252627066e-02       1.147549767557e+04 
       6.388413457411e-02       1.105589473096e+04 
       6.711249296401e-02       1.064899494147e+04 
       7.025823437965e-02       1.022926694826e+04 
       7.336115587705e-02       9.784509222347e+03 
       7.644928796912e-02       9.311631104102e+03 
       7.954353299775e-02       8.814543649038e+03 
       8.266024078725e-02       8.302181838596e+03 
       8.581273398637e-02       7.786958788346e+03 
       8.901225918437e-02       7.283204511170e+03 
       9.226860540985e-02       6.805216511063e+03 
       9.559052048996e-02       6.365598509955e+03 
       9.898599946599e-02       5.974411309601e+03 
       1.024624891378e-01       5.637359018965e+03 
       1.060270359164e-01       5.355805730043e+03 
       1.096863943056e-01       5.126260912616e+03 
       1.134471073830e-01       4.940505968065e+03 
       1.173155669539e-01       4.786168343127e+03 
       1.212980586983e-01       4.647967153388e+03 
       1.254007961065e-01       4.509151919618e+03 
       1.296299459934e-01       4.354556341229e+03 
       1.339916477160e-01       4.173230552848e+03 
       1.384920277736e-01       3.961171393132e+03 
       1.431372111762e-01       3.722668932942e+03 
       1.479333307714e-01       3.469559064993e+03 
       1.528865355934e-01       3.218360083625e+03 
       1.580029992204e-01       2.986274421287e+03 
       1.632889290723e-01       2.786955850712e+03 
       1.687505775527e-01       2.626815876070e+03 
       1.743942559171e-01       2.503763781978e+03 
       1.802263517371e-01       2.407337197053e+03 
       1.862533508214e-01       2.322227761462e+03 
       1.924818644494e-01       2.231544694169e+03 
       1.989186627765e-01       2.122179141263e+03 
       2.055707152847e-01       1.992017484465e+03 
       2.124452391818e-01       1.850320932375e+03 
       2.195497567139e-01       1.712161460134e+03 
       2.268921624510e-01       1.590983778599e+03 
       2.344808017550e-01       1.493662496428e+03 
       2.423245618548e-01       1.418313916348e+03 
       2.504329772620e-01       1.354463558131e+03 
       2.588163516754e-01       1.288929592946e+03 
       2.674858990930e-01       1.213927077664e+03 
       2.764539076010e-01       1.130687100276e+03 
       2.857339303080e-01       1.048093993683e+03 
       2.953410092148e-01       9.761765188588e+02 
       3.052919395542e-01       9.178073243175e+02 
       3.156055844677e-01       8.678960868149e+02 
       3.263032530092e-01       8.185217979104e+02 
       3.374091587054e-01       7.651432602407e+02 
       3.489509817175e-01       7.106655681579e+02 
       3.609605657343e-01       6.607818695789e+02 
       3.734747921333e-01       6.180814969558e+02 
       3.865366902904e-01       5.793033683537e+02 
       4.001968667448e-01       5.403903461256e+02 
       4.145153713076e-01       5.011495395407e+02 
       4.295641718077e-01       4.644960573064e+02 
       4.454304922144e-01       4.314073365575e+02 
       4.622214006969e-01       4.001075423727e+02 
       4.800702491654e-01       3.690847140065e+02 
       4.991459272112e-01       3.394754681624e+02 
       5.196665217302e-01       3.119820918882e+02 
       5.419201087032e-01       2.852455860323e+02 
       5.662975451962e-01       2.593283805629e+02 
       5.933463737275e-01       2.345473460311e+02 
       6.238638458458e-01       2.102292626558e+02 
       6.590669257916e-01       1.864320331328e+02 
       7.009246080454e-01       1.627241970594e+02 
       7.528593308799e-01       1.388172973726e+02 
       8.213469537518e-01       1.141884322670e+02 
       9.196980813302e-01       8.835857216825e+01 
       1.075112183810e+00       6.172566912285e+01 
       1.322697471132e+00       3.804236545088e+01 
       1.662328205042e+00       2.209782637121e+01 
       2.092692408506e+00       1.266901345203e+01 
       2.634543445090e+00       7.203205259191e+00 
       3.316693691389e+00       4.064981087222e+00 
       4.175469971226e+00       2.278400076133e+00 
       5.256605252960e+00       1.269076193369e+00 
       6.617673932723e+00       7.027809427528e-01 
       8.331157880872e+00       3.870194879424e-01 
       1.048830636590e+01       2.119199349213e-01 
       1.320399541071e+01       1.152816604749e-01 
       1.662284535976e+01       6.214445740144e-02 
       2.092692243973e+01       3.298928055024e-02 
       2.634543445002e+01       1.699712529661e-02 
       3.316693691389e+01       8.224355230640e-03 
       4.175469971226e+01       3.460376149197e-03 
       5.256605252960e+01       1.032245329765e-03 
       6.617673932723e+01       8.895688618931e-05 
