# Matter power spectrum P(k) at redshift z=0
# for k=1.04775e-05 to 66.1767 h/Mpc,
# number of wavenumbers equal to 130
#    1:k (h/Mpc)              2:P (Mpc/h)^3        
       1.047750691046e-05       5.020964811312e+01 
       1.319039970183e-05       6.270562594781e+01 
       1.660572937635e-05       7.831147247912e+01 
       2.090537469327e-05       9.780108069295e+01 
       2.631830744443e-05       1.221408203809e+02 
       3.313278603720e-05       1.525374501932e+02 
       4.171170630578e-05       1.904975994010e+02 
       5.251192703764e-05       2.379022224249e+02 
       6.610859936996e-05       2.970989227880e+02 
       8.322579568497e-05       3.710167318946e+02 
       1.047750691046e-04       4.633080766742e+02 
       1.319039970183e-04       5.785234129335e+02 
       1.660572937635e-04       7.223242666092e+02 
       2.090537469327e-04       9.017396271824e+02 
       2.631830744443e-04       1.125468123750e+03 
       3.313278603720e-04       1.404223053681e+03 
       4.171170630578e-04       1.751108028789e+03 
       5.251192703764e-04       2.181998448133e+03 
       6.610859936996e-04       2.715889983592e+03 
       8.322579568497e-04       3.375152337134e+03 
       1.047750691046e-03       4.185552174297e+03 
       1.319039970183e-03       5.175742742345e+03 
       1.660572937635e-03       6.376123051786e+03 
       2.090537469327e-03       7.815671865110e+03 
       2.631830744443e-03       9.517783069103e+03 
       3.313278603720e-03       1.149357460344e+04 
       4.171170630578e-03       1.373266011913e+04 
       5.251192703764e-03       1.619063613494e+04 
       6.610859936996e-03       1.877460426271e+04 
       8.322579568497e-03       2.132606806546e+04 
       1.047750691046e-02       2.360548368039e+04 
       1.319039970183e-02       2.528218813235e+04 
       1.660572937633e-02       2.595028127942e+04 
       2.090537453514e-02       2.520936484539e+04 
       2.631818545635e-02       2.287034553439e+04 
       3.311571692125e-02       1.928622800165e+04 
       4.113809243311e-02       1.568431080514e+04 
       4.792590854610e-02       1.361063253236e+04 
       5.284436902701e-02       1.259127752131e+04 
       5.689644391095e-02       1.195556439267e+04 
       6.051252627066e-02       1.147552429903e+04 
       6.388413457411e-02       1.105592312154e+04 
       6.711249296401e-02       1.064905810345e+04 
       7.025823437965e-02       1.022931328443e+04 
       7.336115587705e-02       9.784559058033e+03 
       7.644928796912e-02       9.311699936567e+03 
       7.954353299775e-02       8.814541646597e+03 
       8.266024078725e-02       8.302210153099e+03 
       8.581273398637e-02       7.786986868340e+03 
       8.901225918437e-02       7.283238352498e+03 
       9.226860540985e-02       6.805208764950e+03 
       9.559052048996e-02       6.365670495230e+03 
       9.898599946599e-02       5.974417306136e+03 
       1.024624891378e-01       5.637354020834e+03 
       1.060270359164e-01       5.355804775973e+03 
       1.096863943056e-01       5.126263984454e+03 
       1.134471073830e-01       4.940504368217e+03 
       1.173155669539e-01       4.786179492730e+03 
       1.212980586983e-01       4.647937314445e+03 
       1.254007961065e-01       4.509149764742e+03 
       1.296299459934e-01       4.354553113560e+03 
       1.339916477160e-01       4.173204999854e+03 
       1.384920277736e-01       3.961182674138e+03 
       1.431372111762e-01       3.722676363501e+03 
       1.479333307714e-01       3.469555151727e+03 
       1.528865355934e-01       3.218317422136e+03 
       1.580029992204e-01       2.986263528605e+03 
       1.632889290723e-01       2.786952991626e+03 
       1.687505775527e-01       2.626809722384e+03 
       1.743942559171e-01       2.503759257280e+03 
       1.802263517371e-01       2.407311450135e+03 
       1.862533508214e-01       2.322222501765e+03 
       1.924818644494e-01       2.231531729569e+03 
       1.989186627765e-01       2.122186847214e+03 
       2.055707152847e-01       1.992029832306e+03 
       2.124452391818e-01       1.850317922494e+03 
       2.195497567139e-01       1.712158433353e+03 
       2.268921624510e-01       1.590976322917e+03 
       2.344808017550e-01       1.493657033718e+03 
       2.423245618548e-01       1.418306175362e+03 
       2.504329772620e-01       1.354451146760e+03 
       2.588163516754e-01       1.288932805562e+03 
       2.674858990930e-01       1.213937465182e+03 
       2.764539076010e-01       1.130684832788e+03 
       2.857339303080e-01       1.048087179746e+03 
       2.953410092148e-01       9.761721995886e+02 
       3.052919395542e-01       9.178024197970e+02 
       3.156055844677e-01       8.678846210310e+02 
       3.263032530092e-01       8.185236412548e+02 
       3.374091587054e-01       7.651397565188e+02 
       3.489509817175e-01       7.106601447647e+02 
       3.609605657343e-01       6.607771831574e+02 
       3.734747921333e-01       6.180804540645e+02 
       3.865366902904e-01       5.793021069840e+02 
       4.001968667448e-01       5.403814279970e+02 
       4.145153713076e-01       5.011440224729e+02 
       4.295641718077e-01       4.644949224597e+02 
       4.454304922144e-01       4.314010136037e+02 
       4.622214006969e-01       4.001085805718e+02 
       4.800702491654e-01       3.690838237834e+02 
       4.991459272112e-01       3.394707595750e+02 
       5.196665217302e-01       3.119800039328e+02 
       5.419201087032e-01       2.852424492686e+02 
       5.662975451962e-01       2.593266418892e+02 
       5.933463737275e-01       2.345444167123e+02 
       6.238638458458e-01       2.102285973244e+02 
       6.590669257916e-01       1.864321696369e+02 
       7.009246080454e-01       1.627237540350e+02 
       7.528593308799e-01       1.388179256066e+02 
       8.213469537518e-01       1.141877761808e+02 
       9.196980813302e-01       8.835866930509e+01 
       1.075112183810e+00       6.172555103438e+01 
       1.322697471132e+00       3.804261211868e+01 
       1.662328205042e+00       2.209760916614e+01 
       2.092692408506e+00       1.266895211932e+01 
       2.634543445090e+00       7.203064337980e+00 
       3.316693691389e+00       4.064892496452e+00 
       4.175469971226e+00       2.278263889094e+00 
       5.256605252960e+00       1.269058572995e+00 
       6.617673932723e+00       7.027962135970e-01 
       8.331157880872e+00       3.870715583480e-01 
       1.048830636590e+01       2.120229369581e-01 
       1.320399541071e+01       1.154415755579e-01 
       1.662284535976e+01       6.236827951594e-02 
       2.092692243973e+01       3.328397483294e-02 
       2.634543445002e+01       1.735990845232e-02 
       3.316693691389e+01       8.635282316432e-03 
       4.175469971226e+01       3.870414003992e-03 
       5.256605252960e+01       1.355256288221e-03 
       6.617673932723e+01       2.276029909244e-04 
