# Matter power spectrum P(k) at redshift z=0
# for k=1.04775e-05 to 66.1767 h/Mpc,
# number of wavenumbers equal to 130
#    1:k (h/Mpc)              2:P (Mpc/h)^3        
       1.047750691046e-05       5.020964811308e+01 
       1.319039970183e-05       6.270562594780e+01 
       1.660572937635e-05       7.831147247912e+01 
       2.090537469327e-05       9.780108069296e+01 
       2.631830744443e-05       1.221408203810e+02 
       3.313278603720e-05       1.525374501932e+02 
       4.171170630578e-05       1.904975994009e+02 
       5.251192703764e-05       2.379022224249e+02 
       6.610859936996e-05       2.970989227880e+02 
       8.322579568497e-05       3.710167318946e+02 
       1.047750691046e-04       4.633080766742e+02 
       1.319039970183e-04       5.785234129337e+02 
       1.660572937635e-04       7.223242666092e+02 
       2.090537469327e-04       9.017396271824e+02 
       2.631830744443e-04       1.125468123750e+03 
       3.313278603720e-04       1.404223053681e+03 
       4.171170630578e-04       1.751108028790e+03 
       5.251192703764e-04       2.181998448133e+03 
       6.610859936996e-04       2.715889983591e+03 
       8.322579568497e-04       3.375152337134e+03 
       1.047750691046e-03       4.185552174307e+03 
       1.319039970183e-03       5.175742741820e+03 
       1.660572937635e-03       6.376123051779e+03 
       2.090537469327e-03       7.815671904758e+03 
       2.631830744443e-03       9.517783069112e+03 
       3.313278603720e-03       1.149357460346e+04 
       4.171170630578e-03       1.373266011884e+04 
       5.251192703764e-03       1.619063614529e+04 
       6.610859936996e-03       1.877460424595e+04 
       8.322579568497e-03       2.132607232025e+04 
       1.047750691046e-02       2.360548216206e+04 
       1.319039970183e-02       2.528218594300e+04 
       1.660572937633e-02       2.595026165636e+04 
       2.090537453514e-02       2.520935388899e+04 
       2.631818545635e-02       2.287032900568e+04 
       3.311571692125e-02       1.928619597861e+04 
       4.113809243311e-02       1.568429156117e+04 
       4.792590854610e-02       1.361063517789e+04 
       5.284436902701e-02       1.259129544162e+04 
       5.689644391095e-02       1.195557717080e+04 
       6.051252627066e-02       1.147546853160e+04 
       6.388413457411e-02       1.105587500639e+04 
       6.711249296401e-02       1.064901408611e+04 
       7.025823437965e-02       1.022931781665e+04 
       7.336115587705e-02       9.784565292599e+03 
       7.644928796912e-02       9.311635106544e+03 
       7.954353299775e-02       8.814511685571e+03 
       8.266024078725e-02       8.302111196913e+03 
       8.581273398637e-02       7.786956369646e+03 
       8.901225918437e-02       7.283214926244e+03 
       9.226860540985e-02       6.805158931941e+03 
       9.559052048996e-02       6.365621137765e+03 
       9.898599946599e-02       5.974365042482e+03 
       1.024624891378e-01       5.637323222464e+03 
       1.060270359164e-01       5.355792543070e+03 
       1.096863943056e-01       5.126224036188e+03 
       1.134471073830e-01       4.940478092125e+03 
       1.173155669539e-01       4.786155590210e+03 
       1.212980586983e-01       4.647936359266e+03 
       1.254007961065e-01       4.509150019158e+03 
       1.296299459934e-01       4.354548640552e+03 
       1.339916477160e-01       4.173211589655e+03 
       1.384920277736e-01       3.961162876142e+03 
       1.431372111762e-01       3.722666574560e+03 
       1.479333307714e-01       3.469558349422e+03 
       1.528865355934e-01       3.218339973080e+03 
       1.580029992204e-01       2.986291177865e+03 
       1.632889290723e-01       2.786960627566e+03 
       1.687505775527e-01       2.626827594205e+03 
       1.743942559171e-01       2.503752843349e+03 
       1.802263517371e-01       2.407338582744e+03 
       1.862533508214e-01       2.322249660135e+03 
       1.924818644494e-01       2.231552026479e+03 
       1.989186627765e-01       2.122180458405e+03 
       2.055707152847e-01       1.992021792842e+03 
       2.124452391818e-01       1.850320382079e+03 
       2.195497567139e-01       1.712170768676e+03 
       2.268921624510e-01       1.590993210352e+03 
       2.344808017550e-01       1.493670864998e+03 
       2.423245618548e-01       1.418308659331e+03 
       2.504329772620e-01       1.354464940679e+03 
       2.588163516754e-01       1.288933470027e+03 
       2.674858990930e-01       1.213933684580e+03 
       2.764539076010e-01       1.130690996695e+03 
       2.857339303080e-01       1.048099037760e+03 
       2.953410092148e-01       9.761819362700e+02 
       3.052919395542e-01       9.178056458573e+02 
       3.156055844677e-01       8.678977735867e+02 
       3.263032530092e-01       8.185247822902e+02 
       3.374091587054e-01       7.651474506846e+02 
       3.489509817175e-01       7.106720609626e+02 
       3.609605657343e-01       6.607828447282e+02 
       3.734747921333e-01       6.180854027849e+02 
       3.865366902904e-01       5.793096445102e+02 
       4.001968667448e-01       5.403890586918e+02 
       4.145153713076e-01       5.011498230545e+02 
       4.295641718077e-01       4.644978535395e+02 
       4.454304922144e-01       4.314083038483e+02 
       4.622214006969e-01       4.001117365251e+02 
       4.800702491654e-01       3.690886897566e+02 
       4.991459272112e-01       3.394751660391e+02 
       5.196665217302e-01       3.119842797383e+02 
       5.419201087032e-01       2.852468625697e+02 
       5.662975451962e-01       2.593299454472e+02 
       5.933463737275e-01       2.345467167013e+02 
       6.238638458458e-01       2.102295330650e+02 
       6.590669257916e-01       1.864333060957e+02 
       7.009246080454e-01       1.627246900095e+02 
       7.528593308799e-01       1.388183985745e+02 
       8.213469537518e-01       1.141878259463e+02 
       9.196980813302e-01       8.835881367351e+01 
       1.075112183810e+00       6.172579232315e+01 
       1.322697471132e+00       3.804255883328e+01 
       1.662328205042e+00       2.209783808922e+01 
       2.092692408506e+00       1.266911254872e+01 
       2.634543445090e+00       7.203271563691e+00 
       3.316693691389e+00       4.065122667919e+00 
       4.175469971226e+00       2.278604439948e+00 
       5.256605252960e+00       1.269332975951e+00 
       6.617673932723e+00       7.031276369316e-01 
       8.331157880872e+00       3.874701790052e-01 
       1.048830636590e+01       2.125067702963e-01 
       1.320399541071e+01       1.160332358984e-01 
       1.662284535976e+01       6.309499058495e-02 
       2.092692243973e+01       3.417514989566e-02 
       2.634543445002e+01       1.844128263279e-02 
       3.316693691389e+01       9.913637032756e-03 
       4.175469971226e+01       5.308252609447e-03 
       5.256605252960e+01       2.829170605641e-03 
       6.617673932723e+01       1.498683180521e-03 
