# Matter power spectrum P(k) at redshift z=99
# for k=1.04775e-05 to 66.1767 h/Mpc,
# number of wavenumbers equal to 130
#    1:k (h/Mpc)              2:P (Mpc/h)^3        
       1.047750691046e-05       7.261927680876e-03 
       1.319039970183e-05       9.069258201867e-03 
       1.660572937635e-05       1.132639106728e-02 
       2.090537469327e-05       1.414527123402e-02 
       2.631830744443e-05       1.766569584062e-02 
       3.313278603720e-05       2.206225515947e-02 
       4.171170630578e-05       2.755297766282e-02 
       5.251192703764e-05       3.441013522954e-02 
       6.610859936996e-05       4.297372172786e-02 
       8.322579568497e-05       5.366826852955e-02 
       1.047750691046e-04       6.702379872788e-02 
       1.319039970183e-04       8.370193441302e-02 
       1.660572937635e-04       1.045283355386e-01 
       2.090537469327e-04       1.305329134106e-01 
       2.631830744443e-04       1.629994506609e-01 
       3.313278603720e-04       2.035264004605e-01 
       4.171170630578e-04       2.541004744247e-01 
       5.251192703764e-04       3.171839528563e-01 
       6.610859936996e-04       3.958147256520e-01 
       8.322579568497e-04       4.937136006288e-01 
       1.047750691046e-03       6.153841636049e-01 
       1.319039970183e-03       7.661720592670e-01 
       1.660572937635e-03       9.522588016424e-01 
       2.090537469327e-03       1.180312991696e+00 
       2.631830744443e-03       1.456802684678e+00 
       3.313278603720e-03       1.786503854020e+00 
       4.171170630578e-03       2.169896194590e+00 
       5.251192703764e-03       2.599430630638e+00 
       6.610859936996e-03       3.055668705579e+00 
       8.322579568497e-03       3.505725272762e+00 
       1.047750691046e-02       3.905490996368e+00 
       1.319039970183e-02       4.200915377950e+00 
       1.660572937633e-02       4.325063570937e+00 
       2.090537453514e-02       4.210197582029e+00 
       2.631818545635e-02       3.825153469254e+00 
       3.311571692125e-02       3.229059026343e+00 
       4.113809243311e-02       2.627734552851e+00 
       4.792590854610e-02       2.280796513210e+00 
       5.284436902701e-02       2.110087154585e+00 
       5.689644391095e-02       2.003541730820e+00 
       6.051252627066e-02       1.923061742796e+00 
       6.388413457411e-02       1.852736026805e+00 
       6.711249296401e-02       1.784563235035e+00 
       7.025823437965e-02       1.714276277870e+00 
       7.336115587705e-02       1.639813501632e+00 
       7.644928796912e-02       1.560661232019e+00 
       7.954353299775e-02       1.477457011928e+00 
       8.266024078725e-02       1.391699326058e+00 
       8.581273398637e-02       1.305461627821e+00 
       8.901225918437e-02       1.221126442174e+00 
       9.226860540985e-02       1.141080806510e+00 
       9.559052048996e-02       1.067453936354e+00 
       9.898599946599e-02       1.001889095427e+00 
       1.024624891378e-01       9.453810946257e-01 
       1.060270359164e-01       8.981494507144e-01 
       1.096863943056e-01       8.596124825609e-01 
       1.134471073830e-01       8.284057331326e-01 
       1.173155669539e-01       8.024672795113e-01 
       1.212980586983e-01       7.792302453773e-01 
       1.254007961065e-01       7.559196436678e-01 
       1.296299459934e-01       7.299845059874e-01 
       1.339916477160e-01       6.995931728415e-01 
       1.384920277736e-01       6.640801988638e-01 
       1.431372111762e-01       6.241476766865e-01 
       1.479333307714e-01       5.817663845905e-01 
       1.528865355934e-01       5.396903069412e-01 
       1.580029992204e-01       5.008137702591e-01 
       1.632889290723e-01       4.673982882772e-01 
       1.687505775527e-01       4.405347449694e-01 
       1.743942559171e-01       4.198652921778e-01 
       1.802263517371e-01       4.036592178849e-01 
       1.862533508214e-01       3.893623620276e-01 
       1.924818644494e-01       3.741395622009e-01 
       1.989186627765e-01       3.558060844528e-01 
       2.055707152847e-01       3.340036612563e-01 
       2.124452391818e-01       3.102657917153e-01 
       2.195497567139e-01       2.871224317593e-01 
       2.268921624510e-01       2.668084149283e-01 
       2.344808017550e-01       2.504838080086e-01 
       2.423245618548e-01       2.378333192435e-01 
       2.504329772620e-01       2.271121740975e-01 
       2.588163516754e-01       2.161195527259e-01 
       2.674858990930e-01       2.035472495659e-01 
       2.764539076010e-01       1.895975474950e-01 
       2.857339303080e-01       1.757569917406e-01 
       2.953410092148e-01       1.636989100167e-01 
       3.052919395542e-01       1.539062135843e-01 
       3.156055844677e-01       1.455306639013e-01 
       3.263032530092e-01       1.372502802838e-01 
       3.374091587054e-01       1.283018599711e-01 
       3.489509817175e-01       1.191711291818e-01 
       3.609605657343e-01       1.108073503174e-01 
       3.734747921333e-01       1.036451209599e-01 
       3.865366902904e-01       9.714111801651e-02 
       4.001968667448e-01       9.061524972835e-02 
       4.145153713076e-01       8.403693633999e-02 
       4.295641718077e-01       7.789102260640e-02 
       4.454304922144e-01       7.234176846609e-02 
       4.622214006969e-01       6.709356430500e-02 
       4.800702491654e-01       6.189166777039e-02 
       4.991459272112e-01       5.692608580284e-02 
       5.196665217302e-01       5.231600609459e-02 
       5.419201087032e-01       4.783252549191e-02 
       5.662975451962e-01       4.348671431169e-02 
       5.933463737275e-01       3.933106962820e-02 
       6.238638458458e-01       3.525330354741e-02 
       6.590669257916e-01       3.126278130504e-02 
       7.009246080454e-01       2.728707150783e-02 
       7.528593308799e-01       2.327828851727e-02 
       8.213469537518e-01       1.914810126756e-02 
       9.196980813302e-01       1.481681454035e-02 
       1.075112183810e+00       1.035075963510e-02 
       1.322697471132e+00       6.379293651439e-03 
       1.662328205042e+00       3.705497442370e-03 
       2.092692408506e+00       2.124364621652e-03 
       2.634543445090e+00       1.207788144631e-03 
       3.316693691389e+00       6.815352173453e-04 
       4.175469971226e+00       3.819459883523e-04 
       5.256605252960e+00       2.126955815174e-04 
       6.617673932723e+00       1.177409632263e-04 
       8.331157880872e+00       6.479994888387e-05 
       1.048830636590e+01       3.544920142495e-05 
       1.320399541071e+01       1.925752089879e-05 
       1.662284535976e+01       1.036141725410e-05 
       2.092692243973e+01       5.488391351641e-06 
       2.634543445002e+01       2.823183465354e-06 
       3.316693691389e+01       1.367863961078e-06 
       4.175469971226e+01       5.820335943126e-07 
       5.256605252960e+01       1.818225088222e-07 
       6.617673932723e+01       2.098042408030e-08 
