# Matter power spectrum P(k) at redshift z=0
# for k=1.04775e-05 to 66.1767 h/Mpc,
# number of wavenumbers equal to 130
#    1:k (h/Mpc)              2:P (Mpc/h)^3        
       1.047750691046e-05       5.020964811312e+01 
       1.319039970183e-05       6.270562594778e+01 
       1.660572937635e-05       7.831147247912e+01 
       2.090537469327e-05       9.780108069296e+01 
       2.631830744443e-05       1.221408203809e+02 
       3.313278603720e-05       1.525374501932e+02 
       4.171170630578e-05       1.904975994010e+02 
       5.251192703764e-05       2.379022224249e+02 
       6.610859936996e-05       2.970989227882e+02 
       8.322579568497e-05       3.710167318945e+02 
       1.047750691046e-04       4.633080766742e+02 
       1.319039970183e-04       5.785234129339e+02 
       1.660572937635e-04       7.223242666091e+02 
       2.090537469327e-04       9.017396271822e+02 
       2.631830744443e-04       1.125468123749e+03 
       3.313278603720e-04       1.404223053680e+03 
       4.171170630578e-04       1.751108028790e+03 
       5.251192703764e-04       2.181998448131e+03 
       6.610859936996e-04       2.715889983588e+03 
       8.322579568497e-04       3.375152337126e+03 
       1.047750691046e-03       4.185552174284e+03 
       1.319039970183e-03       5.175742742805e+03 
       1.660572937635e-03       6.376123051704e+03 
       2.090537469327e-03       7.815671861946e+03 
       2.631830744443e-03       9.517783068802e+03 
       3.313278603720e-03       1.149357460282e+04 
       4.171170630578e-03       1.373266013003e+04 
       5.251192703764e-03       1.619063580919e+04 
       6.610859936996e-03       1.877460425353e+04 
       8.322579568497e-03       2.132611376842e+04 
       1.047750691046e-02       2.360547608923e+04 
       1.319039970183e-02       2.528219791415e+04 
       1.660572937633e-02       2.595034737996e+04 
       2.090537453514e-02       2.520934058851e+04 
       2.631818545635e-02       2.287025968161e+04 
       3.311571692125e-02       1.928619710807e+04 
       4.113809243311e-02       1.568415297103e+04 
       4.792590854610e-02       1.361062055736e+04 
       5.284436902701e-02       1.259129995601e+04 
       5.689644391095e-02       1.195548607677e+04 
       6.051252627066e-02       1.147549766575e+04 
       6.388413457411e-02       1.105568538337e+04 
       6.711249296401e-02       1.064889436895e+04 
       7.025823437965e-02       1.022930006213e+04 
       7.336115587705e-02       9.784555896418e+03 
       7.644928796912e-02       9.311708666366e+03 
       7.954353299775e-02       8.814537461936e+03 
       8.266024078725e-02       8.302186755116e+03 
       8.581273398637e-02       7.786959978608e+03 
       8.901225918437e-02       7.283215479924e+03 
       9.226860540985e-02       6.805221676905e+03 
       9.559052048996e-02       6.365635070374e+03 
       9.898599946599e-02       5.974386762239e+03 
       1.024624891378e-01       5.637327063006e+03 
       1.060270359164e-01       5.355791493627e+03 
       1.096863943056e-01       5.126235521698e+03 
       1.134471073830e-01       4.940473006842e+03 
       1.173155669539e-01       4.786153410520e+03 
       1.212980586983e-01       4.647932744316e+03 
       1.254007961065e-01       4.509040902367e+03 
       1.296299459934e-01       4.354543032568e+03 
       1.339916477160e-01       4.173139964327e+03 
       1.384920277736e-01       3.961172735234e+03 
       1.431372111762e-01       3.722598679902e+03 
       1.479333307714e-01       3.469549389858e+03 
       1.528865355934e-01       3.218319884195e+03 
       1.580029992204e-01       2.986245169332e+03 
       1.632889290723e-01       2.786946785190e+03 
       1.687505775527e-01       2.626812900087e+03 
       1.743942559171e-01       2.503753145493e+03 
       1.802263517371e-01       2.407295193674e+03 
       1.862533508214e-01       2.322252194904e+03 
       1.924818644494e-01       2.231562505068e+03 
       1.989186627765e-01       2.122203734743e+03 
       2.055707152847e-01       1.992036482045e+03 
       2.124452391818e-01       1.850303619218e+03 
       2.195497567139e-01       1.712160301045e+03 
       2.268921624510e-01       1.590966977901e+03 
       2.344808017550e-01       1.493653056154e+03 
       2.423245618548e-01       1.418303928250e+03 
       2.504329772620e-01       1.354441126671e+03 
       2.588163516754e-01       1.288929570153e+03 
       2.674858990930e-01       1.213904684327e+03 
       2.764539076010e-01       1.130677090541e+03 
       2.857339303080e-01       1.048083892819e+03 
       2.953410092148e-01       9.761711143170e+02 
       3.052919395542e-01       9.178003670336e+02 
       3.156055844677e-01       8.678843935034e+02 
       3.263032530092e-01       8.185218286334e+02 
       3.374091587054e-01       7.651394238190e+02 
       3.489509817175e-01       7.106557329574e+02 
       3.609605657343e-01       6.607734725487e+02 
       3.734747921333e-01       6.180777624447e+02 
       3.865366902904e-01       5.792980167277e+02 
       4.001968667448e-01       5.403787429310e+02 
       4.145153713076e-01       5.011384937357e+02 
       4.295641718077e-01       4.644906228441e+02 
       4.454304922144e-01       4.313973799624e+02 
       4.622214006969e-01       4.001059782988e+02 
       4.800702491654e-01       3.690794263463e+02 
       4.991459272112e-01       3.394664648136e+02 
       5.196665217302e-01       3.119756970003e+02 
       5.419201087032e-01       2.852385229172e+02 
       5.662975451962e-01       2.593229720217e+02 
       5.933463737275e-01       2.345403623279e+02 
       6.238638458458e-01       2.102251576621e+02 
       6.590669257916e-01       1.864281280768e+02 
       7.009246080454e-01       1.627201539905e+02 
       7.528593308799e-01       1.388137672800e+02 
       8.213469537518e-01       1.141839035827e+02 
       9.196980813302e-01       8.835458663565e+01 
       1.075112183810e+00       6.172169512062e+01 
       1.322697471132e+00       3.803818411317e+01 
       1.662328205042e+00       2.209367570548e+01 
       2.092692408506e+00       1.266484576385e+01 
       2.634543445090e+00       7.199133460254e+00 
       3.316693691389e+00       4.061086526966e+00 
       4.175469971226e+00       2.274716339086e+00 
       5.256605252960e+00       1.265625623903e+00 
       6.617673932723e+00       6.996145968663e-01 
       8.331157880872e+00       3.841678492844e-01 
       1.048830636590e+01       2.094243534692e-01 
       1.320399541071e+01       1.131761656866e-01 
       1.662284535976e+01       6.046791998912e-02 
       2.092692243973e+01       3.178227331836e-02 
       2.634543445002e+01       1.628621682094e-02 
       3.316693691389e+01       8.006122921702e-03 
       4.175469971226e+01       3.665202412693e-03 
       5.256605252960e+01       1.476470916838e-03 
       6.617673932723e+01       4.659908382772e-04 
