# Matter power spectrum P(k) at redshift z=0
# for k=1.04775e-05 to 67.6233 h/Mpc,
# number of wavenumbers equal to 246
#    1:k (h/Mpc)              2:P (Mpc/h)^3        
       1.047750691046e-05       5.020964811314e+01 
       1.131335172503e-05       5.407050701925e+01 
       1.221587619537e-05       5.822819068443e+01 
       1.319039970183e-05       6.270562594777e+01 
       1.424266597921e-05       6.752732240880e+01 
       1.537887696968e-05       7.271977206173e+01 
       1.660572937635e-05       7.831147247912e+01 
       1.793045413292e-05       8.433311821988e+01 
       1.936085902198e-05       9.081778249833e+01 
       2.090537469327e-05       9.780108069296e+01 
       2.257310435294e-05       1.053213197893e+02 
       2.437387741694e-05       1.134197377890e+02 
       2.631830744443e-05       1.221408203809e+02 
       2.841785469300e-05       1.315324642470e+02 
       3.068489366414e-05       1.416462094881e+02 
       3.313278603720e-05       1.525374501932e+02 
       3.577595942169e-05       1.642660688414e+02 
       3.862999239199e-05       1.768963506307e+02 
       4.171170630578e-05       1.904975994010e+02 
       4.503926444729e-05       2.051444491974e+02 
       4.863227907969e-05       2.209171465549e+02 
       5.251192703764e-05       2.379022224249e+02 
       5.670107454120e-05       2.561927927626e+02 
       6.122441196689e-05       2.758890444040e+02 
       6.610859936996e-05       2.970989227882e+02 
       7.138242361596e-05       3.199385560802e+02 
       7.707696804727e-05       3.445329783680e+02 
       8.322579568497e-05       3.710167318945e+02 
       8.986514704559e-05       3.995346444203e+02 
       9.703415373875e-05       4.302425407383e+02 
       1.047750691046e-04       4.633080766742e+02 
       1.131335172503e-04       4.989116271565e+02 
       1.221587619537e-04       5.372471950929e+02 
       1.319039970183e-04       5.785234129339e+02 
       1.424266597921e-04       6.229645936045e+02 
       1.537887696968e-04       6.708118490405e+02 
       1.660572937635e-04       7.223242666092e+02 
       1.793045413292e-04       7.777801558972e+02 
       1.936085902198e-04       8.374783614140e+02 
       2.090537469327e-04       9.017396271824e+02 
       2.257310435294e-04       9.709080268041e+02 
       2.437387741694e-04       1.045352449493e+03 
       2.631830744443e-04       1.125468123750e+03 
       2.841785469300e-04       1.211678180495e+03 
       3.068489366414e-04       1.304435250150e+03 
       3.313278603720e-04       1.404223053681e+03 
       3.577595942169e-04       1.511558014616e+03 
       3.862999239199e-04       1.626990837759e+03 
       4.171170630578e-04       1.751108028791e+03 
       4.503926444729e-04       1.884533382872e+03 
       4.863227907969e-04       2.027929378112e+03 
       5.251192703764e-04       2.181998448133e+03 
       5.670107454121e-04       2.347484102755e+03 
       6.122441196689e-04       2.525171871366e+03 
       6.610859936996e-04       2.715889983592e+03 
       7.138242361596e-04       2.920509688380e+03 
       7.707696804727e-04       3.139945100279e+03 
       8.322579568497e-04       3.375152337582e+03 
       8.986514704559e-04       3.627127831141e+03 
       9.703415373875e-04       3.896905453136e+03 
       1.047750691046e-03       4.185552174299e+03 
       1.131335172503e-03       4.494162430373e+03 
       1.221587619537e-03       4.823850706488e+03 
       1.319039970183e-03       5.175742742761e+03 
       1.424266597921e-03       5.551019596909e+03 
       1.537887696968e-03       5.950788340557e+03 
       1.660572937635e-03       6.376123051787e+03 
       1.793045413292e-03       6.828073901452e+03 
       1.936085902198e-03       7.307625381066e+03 
       2.090537469327e-03       7.815671914783e+03 
       2.257310435294e-03       8.352990375805e+03 
       2.437387741694e-03       8.920211064348e+03 
       2.631830744443e-03       9.517783069112e+03 
       2.841785469300e-03       1.014593704435e+04 
       3.068489366414e-03       1.080464502780e+04 
       3.313278603720e-03       1.149357460346e+04 
       3.577595942169e-03       1.221203621722e+04 
       3.862999239199e-03       1.295892539446e+04 
       4.171170630578e-03       1.373266012697e+04 
       4.503926444729e-03       1.453111835625e+04 
       4.863227907969e-03       1.535154985293e+04 
       5.251192703764e-03       1.619063614515e+04 
       5.670107454120e-03       1.704431257751e+04 
       6.122441196689e-03       1.790755939661e+04 
       6.610859936996e-03       1.877460424875e+04 
       7.138242361596e-03       1.963872430440e+04 
       7.707696804727e-03       2.049215714909e+04 
       8.322579568496e-03       2.132607232076e+04 
       8.986514704559e-03       2.213055160637e+04 
       9.703415373875e-03       2.289445472459e+04 
       1.047750691046e-02       2.360548720344e+04 
       1.131335172503e-02       2.425023006389e+04 
       1.221587619537e-02       2.481424193577e+04 
       1.319039970183e-02       2.528218624979e+04 
       1.424266597920e-02       2.563813870627e+04 
       1.537887696964e-02       2.586606952815e+04 
       1.660572937560e-02       2.595027963473e+04 
       1.793045412207e-02       2.587633037089e+04 
       1.936085889642e-02       2.563219888387e+04 
       2.090537351881e-02       2.520934880932e+04 
       2.257309534705e-02       2.460446285754e+04 
       2.437382002240e-02       2.382091411500e+04 
       2.631799943729e-02       2.287042946778e+04 
       2.841644544598e-02       2.177453605674e+04 
       3.067933354524e-02       2.056553088824e+04 
       3.311368469821e-02       1.928730955786e+04 
       3.571840442514e-02       1.799398520938e+04 
       3.847720347390e-02       1.674685630297e+04 
       4.135335537314e-02       1.560461649666e+04 
       4.429361666563e-02       1.461033812244e+04 
       4.724366437916e-02       1.378054914821e+04 
       5.016480834039e-02       1.310509109410e+04 
       5.303989618930e-02       1.255714440176e+04 
       5.586870668205e-02       1.210429200530e+04 
       5.866042679206e-02       1.171467450069e+04 
       6.142798931504e-02       1.136050630578e+04 
       6.418496438662e-02       1.101854855182e+04 
       6.694418832236e-02       1.067069872711e+04 
       6.971731104453e-02       1.030357053436e+04 
       7.251476154108e-02       9.908996836799e+03 
       7.534587669814e-02       9.483761434870e+03 
       7.821907664495e-02       9.029499114046e+03 
       8.114203771084e-02       8.552281921872e+03 
       8.412184533139e-02       8.061913075304e+03 
       8.716512277352e-02       7.570753742190e+03 
       9.027813693913e-02       7.092469262222e+03 
       9.346688429613e-02       6.640516814735e+03 
       9.673716026122e-02       6.226682076519e+03 
       1.000946150608e-01       5.859907767180e+03 
       1.035447986307e-01       5.545246152479e+03 
       1.070931966524e-01       5.283154860373e+03 
       1.107452594180e-01       5.069420761450e+03 
       1.145064248899e-01       4.895240962781e+03 
       1.183821370656e-01       4.747844383162e+03 
       1.223778605591e-01       4.611738836676e+03 
       1.264990921707e-01       4.470617997949e+03 
       1.307513701078e-01       4.310266191597e+03 
       1.351402814485e-01       4.121377030207e+03 
       1.396714683894e-01       3.902065270079e+03 
       1.443506337875e-01       3.658641687761e+03 
       1.491835464900e-01       3.404462896667e+03 
       1.541760469368e-01       3.156667045456e+03 
       1.593340535209e-01       2.931979977236e+03 
       1.646635701934e-01       2.742372217023e+03 
       1.701706958081e-01       2.592259125710e+03 
       1.758616357070e-01       2.477241045776e+03 
       1.817427160581e-01       2.385186485572e+03 
       1.878204014651e-01       2.300365310475e+03 
       1.941013163855e-01       2.205757697677e+03 
       2.005922709060e-01       2.090813370667e+03 
       2.073002914514e-01       1.956468804967e+03 
       2.142326570343e-01       1.814188254634e+03 
       2.213969417044e-01       1.679281529274e+03 
       2.288010639201e-01       1.563847402786e+03 
       2.364533436625e-01       1.472688440141e+03 
       2.443625682390e-01       1.401512906796e+03 
       2.525380678946e-01       1.338412280834e+03 
       2.609898025770e-01       1.270901493648e+03 
       2.697284614969e-01       1.193382900292e+03 
       2.787655775073e-01       1.109338794219e+03 
       2.881136588192e-01       1.028768827518e+03 
       2.977863412019e-01       9.604794618736e+02 
       3.077985646248e-01       9.050213503505e+02 
       3.181667793367e-01       8.561419051319e+02 
       3.289091877084e-01       8.061886466262e+02 
       3.400460298905e-01       7.523884922954e+02 
       3.515999235695e-01       6.989207481415e+02 
       3.635962710278e-01       6.510606965361e+02 
       3.760637505499e-01       6.101207595772e+02 
       3.890349143014e-01       5.721310844023e+02 
       4.025469215929e-01       5.337812675953e+02 
       4.166424455447e-01       4.956317617828e+02 
       4.313708034899e-01       4.604692697215e+02 
       4.467893781976e-01       4.287768173111e+02 
       4.629654198623e-01       3.987723251453e+02 
       4.799783500912e-01       3.692405055184e+02 
       4.979227318246e-01       3.412402047779e+02 
       5.169121269689e-01       3.154826722451e+02 
       5.370841403262e-01       2.908347478474e+02 
       5.586070463286e-01       2.671059719562e+02 
       5.816885093582e-01       2.448091348748e+02 
       6.065870143577e-01       2.235681341667e+02 
       6.336266466978e-01       2.032098576456e+02 
       6.632156057925e-01       1.838786678799e+02 
       6.958678637575e-01       1.653544989960e+02 
       7.322247983784e-01       1.476950533175e+02 
       7.730680193171e-01       1.308337918348e+02 
       8.193049551574e-01       1.148306834127e+02 
       8.718988013754e-01       9.976220592591e+01 
       9.317218028590e-01       8.577735475238e+01 
       9.993660906273e-01       7.305434770368e+01 
       1.075037109879e+00       6.173553023456e+01 
       1.158653485387e+00       5.187849054254e+01 
       1.250099156961e+00       4.343961796061e+01 
       1.349432400897e+00       3.628865305318e+01 
       1.456947456991e+00       3.026705201904e+01 
       1.573135110893e+00       2.521360661538e+01 
       1.698621895119e+00       2.098085988770e+01 
       1.834127512423e+00       1.744109384146e+01 
       1.980444933977e+00       1.448425715756e+01 
       2.138435191130e+00       1.201734046161e+01 
       2.309029198543e+00       9.961443231832e+00 
       2.493232376993e+00       8.249893566907e+00 
       2.692130394536e+00       6.826475230677e+00 
       2.906895533764e+00       5.643898491707e+00 
       3.138793596840e+00       4.662334989478e+00 
       3.389191365541e+00       3.848308234057e+00 
       3.659564656886e+00       3.173842515680e+00 
       3.951507021438e+00       2.615505143229e+00 
       4.266739135513e+00       2.153649283863e+00 
       4.607118942658e+00       1.771898287156e+00 
       4.974652604172e+00       1.456598528791e+00 
       5.371506323193e+00       1.196342897683e+00 
       5.800019112071e+00       9.816741683662e-01 
       6.262716578240e+00       8.046999591164e-01 
       6.762325809881e+00       6.588810734566e-01 
       7.301791449077e+00       5.387955905936e-01 
       7.884293047211e+00       4.399354585397e-01 
       8.513263804891e+00       3.585811355556e-01 
       9.192410806865e+00       2.916465312485e-01 
       9.925736871166e+00       2.365861939666e-01 
       1.071756414128e+01       1.913004852990e-01 
       1.157255956041e+01       1.540533575379e-01 
       1.249576237789e+01       1.234253535750e-01 
       1.349261385000e+01       9.824237479520e-02 
       1.456898931011e+01       7.754830547134e-02 
       1.573123279727e+01       6.056195168540e-02 
       1.698619444729e+01       4.664405219083e-02 
       1.834127086665e+01       3.528157621408e-02 
       1.980444872733e+01       2.605978581433e-02 
       2.138435183937e+01       1.864646228014e-02 
       2.309029197863e+01       1.277632797650e-02 
       2.493232376942e+01       8.236310661245e-03 
       2.692130394533e+01       4.852379979847e-03 
       2.906895533764e+01       2.475141705552e-03 
       3.138793596840e+01       9.674929819629e-04 
       3.389191365541e+01       1.924617690576e-04 
       3.659564656886e+01       2.939886120712e-06 
       3.951507021438e+01       2.359182372745e-04 
       4.266739135513e+01       7.132808576450e-04 
       4.607118942658e+01       1.251582488667e-03 
       4.974652604172e+01       1.681918487751e-03 
       5.371506323193e+01       1.877415789619e-03 
       5.800019112071e+01       1.781347533809e-03 
       6.262716578240e+01       1.425425599061e-03 
       6.762325809881e+01       9.239655887680e-04 
