# Matter power spectrum P(k) at redshift z=99
# for k=1.04775e-05 to 66.1767 h/Mpc,
# number of wavenumbers equal to 130
#    1:k (h/Mpc)              2:P (Mpc/h)^3        
       1.047750691046e-05       7.261927680862e-03 
       1.319039970183e-05       9.069258201849e-03 
       1.660572937635e-05       1.132639106725e-02 
       2.090537469327e-05       1.414527123399e-02 
       2.631830744443e-05       1.766569584058e-02 
       3.313278603720e-05       2.206225515943e-02 
       4.171170630578e-05       2.755297766277e-02 
       5.251192703764e-05       3.441013522948e-02 
       6.610859936996e-05       4.297372172778e-02 
       8.322579568497e-05       5.366826852945e-02 
       1.047750691046e-04       6.702379872775e-02 
       1.319039970183e-04       8.370193441286e-02 
       1.660572937635e-04       1.045283355384e-01 
       2.090537469327e-04       1.305329134104e-01 
       2.631830744443e-04       1.629994506606e-01 
       3.313278603720e-04       2.035264004602e-01 
       4.171170630578e-04       2.541004744243e-01 
       5.251192703764e-04       3.171839528558e-01 
       6.610859936996e-04       3.958147256514e-01 
       8.322579568497e-04       4.937136006287e-01 
       1.047750691046e-03       6.153841636042e-01 
       1.319039970183e-03       7.661720592905e-01 
       1.660572937635e-03       9.522588016470e-01 
       2.090537469327e-03       1.180312991700e+00 
       2.631830744443e-03       1.456802684685e+00 
       3.313278603720e-03       1.786503854041e+00 
       4.171170630578e-03       2.169896193294e+00 
       5.251192703764e-03       2.599430630717e+00 
       6.610859936996e-03       3.055668700011e+00 
       8.322579568497e-03       3.505725598413e+00 
       1.047750691046e-02       3.905491660873e+00 
       1.319039970183e-02       4.200915386233e+00 
       1.660572937633e-02       4.325061725130e+00 
       2.090537453514e-02       4.210202220983e+00 
       2.631818545635e-02       3.825150528320e+00 
       3.311571692125e-02       3.229058452664e+00 
       4.113809243311e-02       2.627729323503e+00 
       4.792590854610e-02       2.280799577140e+00 
       5.284436902701e-02       2.110087764119e+00 
       5.689644391095e-02       2.003538680401e+00 
       6.051252627066e-02       1.923053991952e+00 
       6.388413457411e-02       1.852733531706e+00 
       6.711249296401e-02       1.784564541527e+00 
       7.025823437965e-02       1.714276029562e+00 
       7.336115587705e-02       1.639814819485e+00 
       7.644928796912e-02       1.560662505080e+00 
       7.954353299775e-02       1.477457490454e+00 
       8.266024078725e-02       1.391694731799e+00 
       8.581273398637e-02       1.305462993423e+00 
       8.901225918437e-02       1.221126583675e+00 
       9.226860540985e-02       1.141079780332e+00 
       9.559052048996e-02       1.067453362204e+00 
       9.898599946599e-02       1.001888779393e+00 
       1.024624891378e-01       9.453818946350e-01 
       1.060270359164e-01       8.981498179905e-01 
       1.096863943056e-01       8.596151565712e-01 
       1.134471073830e-01       8.284056167750e-01 
       1.173155669539e-01       8.024682701280e-01 
       1.212980586983e-01       7.792284287362e-01 
       1.254007961065e-01       7.559184539676e-01 
       1.296299459934e-01       7.299824938637e-01 
       1.339916477160e-01       6.995924481192e-01 
       1.384920277736e-01       6.640786038333e-01 
       1.431372111762e-01       6.241451975788e-01 
       1.479333307714e-01       5.817632203130e-01 
       1.528865355934e-01       5.396933981208e-01 
       1.580029992204e-01       5.008142823198e-01 
       1.632889290723e-01       4.673981185653e-01 
       1.687505775527e-01       4.405341334342e-01 
       1.743942559171e-01       4.198658460552e-01 
       1.802263517371e-01       4.036594843506e-01 
       1.862533508214e-01       3.893585715612e-01 
       1.924818644494e-01       3.741352577177e-01 
       1.989186627765e-01       3.558022279227e-01 
       2.055707152847e-01       3.339993505170e-01 
       2.124452391818e-01       3.102665253628e-01 
       2.195497567139e-01       2.871222540210e-01 
       2.268921624510e-01       2.668083157102e-01 
       2.344808017550e-01       2.504837192706e-01 
       2.423245618548e-01       2.378335436645e-01 
       2.504329772620e-01       2.271113676720e-01 
       2.588163516754e-01       2.161193579147e-01 
       2.674858990930e-01       2.035453898995e-01 
       2.764539076010e-01       1.895981998065e-01 
       2.857339303080e-01       1.757569879818e-01 
       2.953410092148e-01       1.636993054637e-01 
       3.052919395542e-01       1.539065820674e-01 
       3.156055844677e-01       1.455311298572e-01 
       3.263032530092e-01       1.372509260105e-01 
       3.374091587054e-01       1.283024530488e-01 
       3.489509817175e-01       1.191712377306e-01 
       3.609605657343e-01       1.108071496586e-01 
       3.734747921333e-01       1.036450862543e-01 
       3.865366902904e-01       9.714138924562e-02 
       4.001968667448e-01       9.061544730289e-02 
       4.145153713076e-01       8.403708252289e-02 
       4.295641718077e-01       7.789130319532e-02 
       4.454304922144e-01       7.234176576832e-02 
       4.622214006969e-01       6.709381675656e-02 
       4.800702491654e-01       6.189153077824e-02 
       4.991459272112e-01       5.692619679312e-02 
       5.196665217302e-01       5.231616372123e-02 
       5.419201087032e-01       4.783257847372e-02 
       5.662975451962e-01       4.348703078831e-02 
       5.933463737275e-01       3.933108800309e-02 
       6.238638458458e-01       3.525334873453e-02 
       6.590669257916e-01       3.126287037038e-02 
       7.009246080454e-01       2.728737717274e-02 
       7.528593308799e-01       2.327846213739e-02 
       8.213469537518e-01       1.914827607402e-02 
       9.196980813302e-01       1.481704209294e-02 
       1.075112183810e+00       1.035090411657e-02 
       1.322697471132e+00       6.379447871964e-03 
       1.662328205042e+00       3.705682786698e-03 
       2.092692408506e+00       2.124526899707e-03 
       2.634543445090e+00       1.207961841594e-03 
       3.316693691389e+00       6.817015856012e-04 
       4.175469971226e+00       3.821121255295e-04 
       5.256605252960e+00       2.128658807280e-04 
       6.617673932723e+00       1.179121591517e-04 
       8.331157880872e+00       6.497690077455e-05 
       1.048830636590e+01       3.563488066811e-05 
       1.320399541071e+01       1.945516504990e-05 
       1.662284535976e+01       1.057613706228e-05 
       2.092692243973e+01       5.724635927822e-06 
       2.634543445002e+01       3.084018244075e-06 
       3.316693691389e+01       1.651492671980e-06 
       4.175469971226e+01       8.762552043309e-07 
       5.256605252960e+01       4.571710008831e-07 
       6.617673932723e+01       2.304686359647e-07 
