# Matter power spectrum P(k) at redshift z=0
# for k=1.04775e-05 to 66.1767 h/Mpc,
# number of wavenumbers equal to 130
#    1:k (h/Mpc)              2:P (Mpc/h)^3        
       1.047750691046e-05       5.020964811306e+01 
       1.319039970183e-05       6.270562594778e+01 
       1.660572937635e-05       7.831147247912e+01 
       2.090537469327e-05       9.780108069297e+01 
       2.631830744443e-05       1.221408203810e+02 
       3.313278603720e-05       1.525374501932e+02 
       4.171170630578e-05       1.904975994010e+02 
       5.251192703764e-05       2.379022224249e+02 
       6.610859936996e-05       2.970989227883e+02 
       8.322579568497e-05       3.710167318945e+02 
       1.047750691046e-04       4.633080766742e+02 
       1.319039970183e-04       5.785234129340e+02 
       1.660572937635e-04       7.223242666092e+02 
       2.090537469327e-04       9.017396271823e+02 
       2.631830744443e-04       1.125468123750e+03 
       3.313278603720e-04       1.404223053681e+03 
       4.171170630578e-04       1.751108028789e+03 
       5.251192703764e-04       2.181998448132e+03 
       6.610859936996e-04       2.715889983590e+03 
       8.322579568497e-04       3.375152337129e+03 
       1.047750691046e-03       4.185552174305e+03 
       1.319039970183e-03       5.175742737969e+03 
       1.660572937635e-03       6.376123051722e+03 
       2.090537469327e-03       7.815671863250e+03 
       2.631830744443e-03       9.517783068996e+03 
       3.313278603720e-03       1.149357460323e+04 
       4.171170630578e-03       1.373266011851e+04 
       5.251192703764e-03       1.619063601993e+04 
       6.610859936996e-03       1.877460423789e+04 
       8.322579568497e-03       2.132611393100e+04 
       1.047750691046e-02       2.360548670454e+04 
       1.319039970183e-02       2.528219157636e+04 
       1.660572937633e-02       2.595026470020e+04 
       2.090537453514e-02       2.520943427417e+04 
       2.631818545635e-02       2.287029742364e+04 
       3.311571692125e-02       1.928623808597e+04 
       4.113809243311e-02       1.568425432417e+04 
       4.792590854610e-02       1.361059219293e+04 
       5.284436902701e-02       1.259132936059e+04 
       5.689644391095e-02       1.195552856887e+04 
       6.051252627066e-02       1.147551234451e+04 
       6.388413457411e-02       1.105573384456e+04 
       6.711249296401e-02       1.064894937253e+04 
       7.025823437965e-02       1.022927852919e+04 
       7.336115587705e-02       9.784553555186e+03 
       7.644928796912e-02       9.311497555938e+03 
       7.954353299775e-02       8.814560637166e+03 
       8.266024078725e-02       8.302166659036e+03 
       8.581273398637e-02       7.786960417548e+03 
       8.901225918437e-02       7.283255032861e+03 
       9.226860540985e-02       6.805183706177e+03 
       9.559052048996e-02       6.365616514675e+03 
       9.898599946599e-02       5.974361527635e+03 
       1.024624891378e-01       5.637337011222e+03 
       1.060270359164e-01       5.355788091455e+03 
       1.096863943056e-01       5.126218599431e+03 
       1.134471073830e-01       4.940471445477e+03 
       1.173155669539e-01       4.786166472577e+03 
       1.212980586983e-01       4.647929066355e+03 
       1.254007961065e-01       4.509039988724e+03 
       1.296299459934e-01       4.354544658729e+03 
       1.339916477160e-01       4.173239464410e+03 
       1.384920277736e-01       3.961175897667e+03 
       1.431372111762e-01       3.722599606207e+03 
       1.479333307714e-01       3.469548534485e+03 
       1.528865355934e-01       3.218317969737e+03 
       1.580029992204e-01       2.986246199497e+03 
       1.632889290723e-01       2.786944449598e+03 
       1.687505775527e-01       2.626805236433e+03 
       1.743942559171e-01       2.503755639157e+03 
       1.802263517371e-01       2.407301796064e+03 
       1.862533508214e-01       2.322254813378e+03 
       1.924818644494e-01       2.231568751726e+03 
       1.989186627765e-01       2.122206665832e+03 
       2.055707152847e-01       1.992044743963e+03 
       2.124452391818e-01       1.850296088187e+03 
       2.195497567139e-01       1.712156965010e+03 
       2.268921624510e-01       1.590969478555e+03 
       2.344808017550e-01       1.493655054929e+03 
       2.423245618548e-01       1.418303581946e+03 
       2.504329772620e-01       1.354443383666e+03 
       2.588163516754e-01       1.288930386483e+03 
       2.674858990930e-01       1.213903987321e+03 
       2.764539076010e-01       1.130679542354e+03 
       2.857339303080e-01       1.048086646494e+03 
       2.953410092148e-01       9.761717139277e+02 
       3.052919395542e-01       9.178045983715e+02 
       3.156055844677e-01       8.678824433259e+02 
       3.263032530092e-01       8.185213689040e+02 
       3.374091587054e-01       7.651470984592e+02 
       3.489509817175e-01       7.106597804337e+02 
       3.609605657343e-01       6.607785017765e+02 
       3.734747921333e-01       6.180792449234e+02 
       3.865366902904e-01       5.792999740317e+02 
       4.001968667448e-01       5.403813715355e+02 
       4.145153713076e-01       5.011424841567e+02 
       4.295641718077e-01       4.644934563030e+02 
       4.454304922144e-01       4.314000863082e+02 
       4.622214006969e-01       4.001080555386e+02 
       4.800702491654e-01       3.690813135843e+02 
       4.991459272112e-01       3.394690156556e+02 
       5.196665217302e-01       3.119802319955e+02 
       5.419201087032e-01       2.852416250541e+02 
       5.662975451962e-01       2.593257577796e+02 
       5.933463737275e-01       2.345436896601e+02 
       6.238638458458e-01       2.102273322291e+02 
       6.590669257916e-01       1.864307793389e+02 
       7.009246080454e-01       1.627227417189e+02 
       7.528593308799e-01       1.388163247528e+02 
       8.213469537518e-01       1.141863547466e+02 
       9.196980813302e-01       8.835700783544e+01 
       1.075112183810e+00       6.172430797623e+01 
       1.322697471132e+00       3.804069111752e+01 
       1.662328205042e+00       2.209630905505e+01 
       2.092692408506e+00       1.266751208074e+01 
       2.634543445090e+00       7.201692773824e+00 
       3.316693691389e+00       4.063591347255e+00 
       4.175469971226e+00       2.277155910226e+00 
       5.256605252960e+00       1.267958561170e+00 
       6.617673932723e+00       7.018178729593e-01 
       8.331157880872e+00       3.862426055769e-01 
       1.048830636590e+01       2.113592306786e-01 
       1.320399541071e+01       1.149714697421e-01 
       1.662284535976e+01       6.211827271283e-02 
       2.092692243973e+01       3.328458645615e-02 
       2.634543445002e+01       1.763568102677e-02 
       3.316693691389e+01       9.193323339627e-03 
       4.175469971226e+01       4.672920177576e-03 
       5.256605252960e+01       2.280464995802e-03 
       6.617673932723e+01       1.039447364738e-03 
