# Matter power spectrum P(k) at redshift z=0
# for k=1.04775e-05 to 66.1767 h/Mpc,
# number of wavenumbers equal to 130
#    1:k (h/Mpc)              2:P (Mpc/h)^3        
       1.047750691046e-05       5.020964811308e+01 
       1.319039970183e-05       6.270562594775e+01 
       1.660572937635e-05       7.831147247912e+01 
       2.090537469327e-05       9.780108069297e+01 
       2.631830744443e-05       1.221408203809e+02 
       3.313278603720e-05       1.525374501932e+02 
       4.171170630578e-05       1.904975994012e+02 
       5.251192703764e-05       2.379022224241e+02 
       6.610859936996e-05       2.970989227883e+02 
       8.322579568497e-05       3.710167318941e+02 
       1.047750691046e-04       4.633080766732e+02 
       1.319039970183e-04       5.785234129321e+02 
       1.660572937635e-04       7.223242666052e+02 
       2.090537469327e-04       9.017396271744e+02 
       2.631830744443e-04       1.125468123734e+03 
       3.313278603720e-04       1.404223053649e+03 
       4.171170630578e-04       1.751108028727e+03 
       5.251192703764e-04       2.181998448009e+03 
       6.610859936996e-04       2.715889983348e+03 
       8.322579568497e-04       3.375152336649e+03 
       1.047750691046e-03       4.185552173350e+03 
       1.319039970183e-03       5.175742738811e+03 
       1.660572937635e-03       6.376123047732e+03 
       2.090537469327e-03       7.815671906202e+03 
       2.631830744443e-03       9.517783051280e+03 
       3.313278603720e-03       1.149357456718e+04 
       4.171170630578e-03       1.373266001638e+04 
       5.251192703764e-03       1.619061167314e+04 
       6.610859936996e-03       1.877461751456e+04 
       8.322579568497e-03       2.132610370918e+04 
       1.047750691046e-02       2.360554586312e+04 
       1.319039970183e-02       2.528217002318e+04 
       1.660572937633e-02       2.595034845131e+04 
       2.090537453514e-02       2.520925494007e+04 
       2.631818545635e-02       2.287014025113e+04 
       3.311571692125e-02       1.928608887115e+04 
       4.113809243311e-02       1.568411906267e+04 
       4.792590854610e-02       1.361050298261e+04 
       5.284436902701e-02       1.259118254814e+04 
       5.689644391095e-02       1.195546437513e+04 
       6.051252627066e-02       1.147539394196e+04 
       6.388413457411e-02       1.105553744329e+04 
       6.711249296401e-02       1.064873261079e+04 
       7.025823437965e-02       1.022919610697e+04 
       7.336115587705e-02       9.784444199919e+03 
       7.644928796912e-02       9.311567719085e+03 
       7.954353299775e-02       8.814348486959e+03 
       8.266024078725e-02       8.301770607767e+03 
       8.581273398637e-02       7.786768877004e+03 
       8.901225918437e-02       7.283035982205e+03 
       9.226860540985e-02       6.805003887193e+03 
       9.559052048996e-02       6.365427388401e+03 
       9.898599946599e-02       5.974206043327e+03 
       1.024624891378e-01       5.637132867902e+03 
       1.060270359164e-01       5.355575905834e+03 
       1.096863943056e-01       5.126016414853e+03 
       1.134471073830e-01       4.940226255425e+03 
       1.173155669539e-01       4.785888215850e+03 
       1.212980586983e-01       4.647652228010e+03 
       1.254007961065e-01       4.508737413258e+03 
       1.296299459934e-01       4.354215007237e+03 
       1.339916477160e-01       4.172890837347e+03 
       1.384920277736e-01       3.960786989778e+03 
       1.431372111762e-01       3.722199785537e+03 
       1.479333307714e-01       3.469142268166e+03 
       1.528865355934e-01       3.217887440155e+03 
       1.580029992204e-01       2.985790823607e+03 
       1.632889290723e-01       2.786468226221e+03 
       1.687505775527e-01       2.626307668029e+03 
       1.743942559171e-01       2.503227498280e+03 
       1.802263517371e-01       2.406737585434e+03 
       1.862533508214e-01       2.321661885720e+03 
       1.924818644494e-01       2.230918748218e+03 
       1.989186627765e-01       2.121517050473e+03 
       2.055707152847e-01       1.991304096318e+03 
       2.124452391818e-01       1.849551037787e+03 
       2.195497567139e-01       1.711376533175e+03 
       2.268921624510e-01       1.590158364971e+03 
       2.344808017550e-01       1.492800080363e+03 
       2.423245618548e-01       1.417406020892e+03 
       2.504329772620e-01       1.353492540850e+03 
       2.588163516754e-01       1.287924131337e+03 
       2.674858990930e-01       1.212872043174e+03 
       2.764539076010e-01       1.129565759242e+03 
       2.857339303080e-01       1.046923406870e+03 
       2.953410092148e-01       9.749540880183e+02 
       3.052919395542e-01       9.165174732669e+02 
       3.156055844677e-01       8.665350761208e+02 
       3.263032530092e-01       8.170933291722e+02 
       3.374091587054e-01       7.636405949889e+02 
       3.489509817175e-01       7.091021931245e+02 
       3.609605657343e-01       6.591405938755e+02 
       3.734747921333e-01       6.163567625139e+02 
       3.865366902904e-01       5.774891214931e+02 
       4.001968667448e-01       5.384802834931e+02 
       4.145153713076e-01       4.991464733560e+02 
       4.295641718077e-01       4.623967560057e+02 
       4.454304922144e-01       4.291950477296e+02 
       4.622214006969e-01       3.977842013588e+02 
       4.800702491654e-01       3.666373208058e+02 
       4.991459272112e-01       3.368928756786e+02 
       5.196665217302e-01       3.092579521407e+02 
       5.419201087032e-01       2.823626621644e+02 
       5.662975451962e-01       2.562742761924e+02 
       5.933463737275e-01       2.312980125840e+02 
       6.238638458458e-01       2.067632969900e+02 
       6.590669257916e-01       1.827150341389e+02 
       7.009246080454e-01       1.587088072844e+02 
       7.528593308799e-01       1.344332980059e+02 
       8.213469537518e-01       1.093227228865e+02 
       9.196980813302e-01       8.282245036023e+01 
       1.075112183810e+00       5.519549265721e+01 
       1.322697471132e+00       3.018076435764e+01 
       1.662328205042e+00       1.311012519963e+01 
       2.092692408506e+00       3.650083639866e+00 
       2.634543445090e+00       1.312488492439e-01 
       3.316693691389e+00       7.376353673295e-01 
       4.175469971226e+00       1.883880578929e+00 
       5.256605252960e+00       7.228364636143e-01 
       6.617673932723e+00       6.590619447538e-02 
       8.331157880872e+00       2.866605707999e-01 
       1.048830636590e+01       3.361379035167e-02 
       1.320399541071e+01       2.879556154669e-03 
       1.662284535976e+01       2.384734262945e-03 
       2.092692243973e+01       2.675619416121e-05 
       2.634543445002e+01       4.881353946930e-05 
       3.316693691389e+01       5.652955126996e-07 
       4.175469971226e+01       7.301231007733e-09 
       5.256605252960e+01       1.980055299498e-09 
       6.617673932723e+01       3.501096115736e-11 
