# Matter power spectrum P(k) at redshift z=99
# for k=1.04775e-05 to 67.6233 h/Mpc,
# number of wavenumbers equal to 246
#    1:k (h/Mpc)              2:P (Mpc/h)^3        
       1.047750691046e-05       7.261927681867e-03 
       1.131335172503e-05       7.820331653514e-03 
       1.221587619537e-05       8.421675996620e-03 
       1.319039970183e-05       9.069258203104e-03 
       1.424266597921e-05       9.766638413485e-03 
       1.537887696968e-05       1.051764070947e-02 
       1.660572937635e-05       1.132639106882e-02 
       1.793045413292e-05       1.219733232884e-02 
       1.936085902198e-05       1.313524225961e-02 
       2.090537469327e-05       1.414527123595e-02 
       2.257310435294e-05       1.523296274034e-02 
       2.437387741694e-05       1.640429446515e-02 
       2.631830744443e-05       1.766569584302e-02 
       2.841785469300e-05       1.902408737268e-02 
       3.068489366414e-05       2.048692973056e-02 
       3.313278603720e-05       2.206225516248e-02 
       3.577595942169e-05       2.375870707767e-02 
       3.862999239199e-05       2.558560730556e-02 
       4.171170630578e-05       2.755297766658e-02 
       4.503926444729e-05       2.967161930884e-02 
       4.863227907969e-05       3.195316454675e-02 
       5.251192703764e-05       3.441013523423e-02 
       5.670107454120e-05       3.705601726986e-02 
       6.122441196689e-05       3.990533418349e-02 
       6.610859936996e-05       4.297372173371e-02 
       7.138242361596e-05       4.627802147254e-02 
       7.707696804727e-05       4.983636200152e-02 
       8.322579568497e-05       5.366826853685e-02 
       8.986514704559e-05       5.779476401518e-02 
       9.703415373875e-05       6.223848251368e-02 
       1.047750691046e-04       6.702379873698e-02 
       1.131335172503e-04       7.217695162057e-02 
       1.221587619537e-04       7.772619082916e-02 
       1.319039970183e-04       8.370193442436e-02 
       1.424266597921e-04       9.013692518380e-02 
       1.537887696968e-04       9.706641254233e-02 
       1.660572937635e-04       1.045283355527e-01 
       1.793045413292e-04       1.125635350420e-01 
       1.936085902198e-04       1.212159616424e-01 
       2.090537469327e-04       1.305329134281e-01 
       2.257310435294e-04       1.405652847901e-01 
       2.437387741694e-04       1.513678304356e-01 
       2.631830744443e-04       1.629994506824e-01 
       2.841785469300e-04       1.755234923327e-01 
       3.068489366414e-04       1.890080672676e-01 
       3.313278603720e-04       2.035264004870e-01 
       3.577595942169e-04       2.191571806301e-01 
       3.862999239199e-04       2.359849440410e-01 
       4.171170630578e-04       2.541004744569e-01 
       4.503926444729e-04       2.736012083536e-01 
       4.863227907969e-04       2.945916794467e-01 
       5.251192703764e-04       3.171839528945e-01 
       5.670107454121e-04       3.414980768044e-01 
       6.122441196689e-04       3.676625417440e-01 
       6.610859936996e-04       3.958147256961e-01 
       7.138242361596e-04       4.261013289815e-01 
       7.707696804727e-04       4.586787797829e-01 
       8.322579568497e-04       4.937136006780e-01 
       8.986514704559e-04       5.313826807535e-01 
       9.703415373875e-04       5.718734978712e-01 
       1.047750691046e-03       6.153841636502e-01 
       1.131335172503e-03       6.621233246918e-01 
       1.221587619537e-03       7.123098228360e-01 
       1.319039970183e-03       7.661720592848e-01 
       1.424266597921e-03       8.239546306601e-01 
       1.537887696968e-03       8.859011182783e-01 
       1.660572937635e-03       9.522588016091e-01 
       1.793045413292e-03       1.023280100827e+00 
       1.936085902198e-03       1.099216305614e+00 
       2.090537469327e-03       1.180312991505e+00 
       2.257310435294e-03       1.266804116900e+00 
       2.437387741694e-03       1.358904854438e+00 
       2.631830744443e-03       1.456802684140e+00 
       2.841785469300e-03       1.560646891421e+00 
       3.068489366414e-03       1.670536063267e+00 
       3.313278603720e-03       1.786503852751e+00 
       3.577595942169e-03       1.908502931091e+00 
       3.862999239199e-03       2.036387730642e+00 
       4.171170630578e-03       2.169896190177e+00 
       4.503926444729e-03       2.308631877777e+00 
       4.863227907969e-03       2.452047288894e+00 
       5.251192703764e-03       2.599430624927e+00 
       5.670107454120e-03       2.749896927218e+00 
       6.122441196689e-03       2.902386507042e+00 
       6.610859936996e-03       3.055668694002e+00 
       7.138242361596e-03       3.208356450145e+00 
       7.707696804727e-03       3.358923878164e+00 
       8.322579568496e-03       3.505725575973e+00 
       8.986514704559e-03       3.647009406909e+00 
       9.703415373875e-03       3.780923273248e+00 
       1.047750691046e-02       3.905490156447e+00 
       1.131335172503e-02       4.018587580083e+00 
       1.221587619537e-02       4.117901526184e+00 
       1.319039970183e-02       4.200915286498e+00 
       1.424266597920e-02       4.264942261481e+00 
       1.537887696964e-02       4.307219281466e+00 
       1.660572937560e-02       4.325061946637e+00 
       1.793045412207e-02       4.316057464460e+00 
       1.936085889642e-02       4.278231100016e+00 
       2.090537351881e-02       4.210201828001e+00 
       2.257309534705e-02       4.111419208328e+00 
       2.437382002240e-02       3.982420996161e+00 
       2.631799943729e-02       3.825165284323e+00 
       2.841644544598e-02       3.643280530123e+00 
       3.067933354524e-02       3.442192501515e+00 
       3.311368469821e-02       3.229242047072e+00 
       3.571840442514e-02       3.013505105917e+00 
       3.847720347390e-02       2.805289061303e+00 
       4.135335537314e-02       2.614408898534e+00 
       4.429361666563e-02       2.448131936910e+00 
       4.724366437916e-02       2.309239244116e+00 
       5.016480834039e-02       2.196111693968e+00 
       5.303989618930e-02       2.104365104847e+00 
       5.586870668205e-02       2.028460307786e+00 
       5.866042679206e-02       1.963149116153e+00 
       6.142798931504e-02       1.903778665582e+00 
       6.418496438662e-02       1.846482298457e+00 
       6.694418832236e-02       1.788195614436e+00 
       6.971731104453e-02       1.726711204253e+00 
       7.251476154108e-02       1.660649955133e+00 
       7.534587669814e-02       1.589467532465e+00 
       7.821907664495e-02       1.513434811308e+00 
       8.114203771084e-02       1.433565366655e+00 
       8.412184533139e-02       1.351486281756e+00 
       8.716512277352e-02       1.269269446539e+00 
       9.027813693913e-02       1.189190057280e+00 
       9.346688429613e-02       1.113499210808e+00 
       9.673716026122e-02       1.044175749825e+00 
       1.000946150608e-01       9.827037749670e-01 
       1.035447986307e-01       9.299421105888e-01 
       1.070931966524e-01       8.859563953484e-01 
       1.107452594180e-01       8.500673743829e-01 
       1.145064248899e-01       8.207989507146e-01 
       1.183821370656e-01       7.960203104967e-01 
       1.223778605591e-01       7.731410149781e-01 
       1.264990921707e-01       7.494487129891e-01 
       1.307513701078e-01       7.225543341385e-01 
       1.351402814485e-01       6.909051163701e-01 
       1.396714683894e-01       6.541789837541e-01 
       1.443506337875e-01       6.134227774651e-01 
       1.491835464900e-01       5.708644153654e-01 
       1.541760469368e-01       5.293591450335e-01 
       1.593340535209e-01       4.917054873563e-01 
       1.646635701934e-01       4.599149786591e-01 
       1.701706958081e-01       4.347235510758e-01 
       1.758616357070e-01       4.154024447136e-01 
       1.817427160581e-01       3.999300029314e-01 
       1.878204014651e-01       3.856792532343e-01 
       1.941013163855e-01       3.698080779408e-01 
       2.005922709060e-01       3.505445849630e-01 
       2.073002914514e-01       3.280400109330e-01 
       2.142326570343e-01       3.042076610050e-01 
       2.213969417044e-01       2.816042545830e-01 
       2.288010639201e-01       2.622495128426e-01 
       2.364533436625e-01       2.469536895045e-01 
       2.443625682390e-01       2.350052402091e-01 
       2.525380678946e-01       2.244125750733e-01 
       2.609898025770e-01       2.130876385724e-01 
       2.697284614969e-01       2.000936454320e-01 
       2.787655775073e-01       1.860106787947e-01 
       2.881136588192e-01       1.725081477024e-01 
       2.977863412019e-01       1.610569127383e-01 
       3.077985646248e-01       1.517517861355e-01 
       3.181667793367e-01       1.435496108811e-01 
       3.289091877084e-01       1.351716342204e-01 
       3.400460298905e-01       1.261540449695e-01 
       3.515999235695e-01       1.171914751313e-01 
       3.635962710278e-01       1.091661730667e-01 
       3.760637505499e-01       1.022982827504e-01 
       3.890349143014e-01       9.592628587164e-02 
       4.025469215929e-01       8.949615778694e-02 
       4.166424455447e-01       8.309996518555e-02 
       4.313708034899e-01       7.720334288030e-02 
       4.467893781976e-01       7.188817535158e-02 
       4.629654198623e-01       6.685619042678e-02 
       4.799783500912e-01       6.190463168387e-02 
       4.979227318246e-01       5.720895350622e-02 
       5.169121269689e-01       5.288901514683e-02 
       5.370841403262e-01       4.875567017970e-02 
       5.586070463286e-01       4.477646624535e-02 
       5.816885093582e-01       4.103697272923e-02 
       6.065870143577e-01       3.747460084041e-02 
       6.336266466978e-01       3.406051394145e-02 
       6.632156057925e-01       3.081831885432e-02 
       6.958678637575e-01       2.771157453112e-02 
       7.322247983784e-01       2.474978063859e-02 
       7.730680193171e-01       2.192152142596e-02 
       8.193049551574e-01       1.923741693951e-02 
       8.718988013754e-01       1.670970860451e-02 
       9.317218028590e-01       1.436374159994e-02 
       9.993660906273e-01       1.222910820301e-02 
       1.075037109879e+00       1.032991582658e-02 
       1.158653485387e+00       8.675750367210e-03 
       1.250099156961e+00       7.259260807529e-03 
       1.349432400897e+00       6.058621295232e-03 
       1.456947456991e+00       5.047259532548e-03 
       1.573135110893e+00       4.198116644024e-03 
       1.698621895119e+00       3.486482468625e-03 
       1.834127512423e+00       2.890901629848e-03 
       1.980444933977e+00       2.392937153545e-03 
       2.138435191130e+00       1.976959966365e-03 
       2.309029198543e+00       1.629760298839e-03 
       2.493232376993e+00       1.340156070824e-03 
       2.692130394536e+00       1.098722177847e-03 
       2.906895533764e+00       8.975428643538e-04 
       3.138793596840e+00       7.299561979668e-04 
       3.389191365541e+00       5.903925290609e-04 
       3.659564656886e+00       4.742129463097e-04 
       3.951507021438e+00       3.775383368554e-04 
       4.266739135513e+00       2.971796181227e-04 
       4.607118942658e+00       2.305042167687e-04 
       4.974652604172e+00       1.753682228141e-04 
       5.371506323193e+00       1.300441917396e-04 
       5.800019112071e+00       9.315184018170e-05 
       6.262716578240e+00       6.360372135674e-05 
       6.762325809881e+00       4.054385007304e-05 
       7.301791449077e+00       2.328423780152e-05 
       7.884293047211e+00       1.123504988556e-05 
       8.513263804891e+00       3.827494991526e-06 
       9.192410806865e+00       4.302655724997e-07 
       9.925736871166e+00       2.752220143126e-07 
       1.071756414128e+01       2.411050497442e-06 
       1.157255956041e+01       5.711508622337e-06 
       1.249576237789e+01       8.969470912318e-06 
       1.349261385000e+01       1.108704834254e-05 
       1.456898931011e+01       1.133803461005e-05 
       1.573123279727e+01       9.616881219171e-06 
       1.698619444729e+01       6.533811831642e-06 
       1.834127086665e+01       3.226211729980e-06 
       1.980444872733e+01       8.570725046202e-07 
       2.138435183937e+01       6.621783231802e-09 
       2.309029197863e+01       3.500658931189e-07 
       2.493232376942e+01       9.499771613590e-07 
       2.692130394533e+01       1.033314725484e-06 
       2.906895533764e+01       5.822709283565e-07 
       3.138793596840e+01       1.258222270036e-07 
       3.389191365541e+01       4.710834025237e-10 
       3.659564656886e+01       4.725169084612e-08 
       3.951507021438e+01       4.015758399872e-08 
       4.266739135513e+01       4.797704580087e-09 
       4.607118942658e+01       8.261924103594e-10 
       4.974652604172e+01       5.352675734583e-10 
       5.371506323193e+01       8.385582975161e-10 
       5.800019112071e+01       1.125967994188e-09 
       6.262716578240e+01       1.254817614269e-10 
       6.762325809881e+01       8.571578256894e-10 
