# Matter power spectrum P(k) at redshift z=99
# for k=1.04775e-05 to 67.6233 h/Mpc,
# number of wavenumbers equal to 246
#    1:k (h/Mpc)              2:P (Mpc/h)^3        
       1.047750691046e-05       7.261927680861e-03 
       1.131335172503e-05       7.820331652431e-03 
       1.221587619537e-05       8.421675995454e-03 
       1.319039970183e-05       9.069258201848e-03 
       1.424266597921e-05       9.766638412133e-03 
       1.537887696968e-05       1.051764070801e-02 
       1.660572937635e-05       1.132639106725e-02 
       1.793045413292e-05       1.219733232715e-02 
       1.936085902198e-05       1.313524225779e-02 
       2.090537469327e-05       1.414527123399e-02 
       2.257310435294e-05       1.523296273823e-02 
       2.437387741694e-05       1.640429446288e-02 
       2.631830744443e-05       1.766569584058e-02 
       2.841785469300e-05       1.902408737005e-02 
       3.068489366414e-05       2.048692972772e-02 
       3.313278603720e-05       2.206225515942e-02 
       3.577595942169e-05       2.375870707438e-02 
       3.862999239199e-05       2.558560730202e-02 
       4.171170630578e-05       2.755297766277e-02 
       4.503926444729e-05       2.967161930473e-02 
       4.863227907969e-05       3.195316454233e-02 
       5.251192703764e-05       3.441013522947e-02 
       5.670107454120e-05       3.705601726470e-02 
       6.122441196689e-05       3.990533417796e-02 
       6.610859936996e-05       4.297372172777e-02 
       7.138242361596e-05       4.627802146614e-02 
       7.707696804727e-05       4.983636199464e-02 
       8.322579568497e-05       5.366826852944e-02 
       8.986514704559e-05       5.779476400720e-02 
       9.703415373875e-05       6.223848250510e-02 
       1.047750691046e-04       6.702379872774e-02 
       1.131335172503e-04       7.217695161063e-02 
       1.221587619537e-04       7.772619081845e-02 
       1.319039970183e-04       8.370193441285e-02 
       1.424266597921e-04       9.013692517140e-02 
       1.537887696968e-04       9.706641252902e-02 
       1.660572937635e-04       1.045283355384e-01 
       1.793045413292e-04       1.125635350266e-01 
       1.936085902198e-04       1.212159616259e-01 
       2.090537469327e-04       1.305329134104e-01 
       2.257310435294e-04       1.405652847711e-01 
       2.437387741694e-04       1.513678304151e-01 
       2.631830744443e-04       1.629994506605e-01 
       2.841785469300e-04       1.755234923092e-01 
       3.068489366414e-04       1.890080672425e-01 
       3.313278603720e-04       2.035264004601e-01 
       3.577595942169e-04       2.191571806013e-01 
       3.862999239199e-04       2.359849440104e-01 
       4.171170630578e-04       2.541004744243e-01 
       4.503926444729e-04       2.736012083189e-01 
       4.863227907969e-04       2.945916794099e-01 
       5.251192703764e-04       3.171839528557e-01 
       5.670107454121e-04       3.414980767635e-01 
       6.122441196689e-04       3.676625417011e-01 
       6.610859936996e-04       3.958147256513e-01 
       7.138242361596e-04       4.261013289358e-01 
       7.707696804727e-04       4.586787797352e-01 
       8.322579568497e-04       4.937136006295e-01 
       8.986514704559e-04       5.313826807049e-01 
       9.703415373875e-04       5.718734978233e-01 
       1.047750691046e-03       6.153841636040e-01 
       1.131335172503e-03       6.621233246495e-01 
       1.221587619537e-03       7.123098227986e-01 
       1.319039970183e-03       7.661720592749e-01 
       1.424266597921e-03       8.239546306468e-01 
       1.537887696968e-03       8.859011182851e-01 
       1.660572937635e-03       9.522588016481e-01 
       1.793045413292e-03       1.023280100902e+00 
       1.936085902198e-03       1.099216305740e+00 
       2.090537469327e-03       1.180312991699e+00 
       2.257310435294e-03       1.266804117186e+00 
       2.437387741694e-03       1.358904854835e+00 
       2.631830744443e-03       1.456802684686e+00 
       2.841785469300e-03       1.560646892157e+00 
       3.068489366414e-03       1.670536064244e+00 
       3.313278603720e-03       1.786503854039e+00 
       3.577595942169e-03       1.908502932769e+00 
       3.862999239199e-03       2.036387732815e+00 
       4.171170630578e-03       2.169896194793e+00 
       4.503926444729e-03       2.308631881359e+00 
       4.863227907969e-03       2.452047293460e+00 
       5.251192703764e-03       2.599430630722e+00 
       5.670107454120e-03       2.749896934599e+00 
       6.122441196689e-03       2.902386516275e+00 
       6.610859936996e-03       3.055668711551e+00 
       7.138242361596e-03       3.208356464662e+00 
       7.707696804727e-03       3.358923895391e+00 
       8.322579568496e-03       3.505725148470e+00 
       8.986514704559e-03       3.647009714618e+00 
       9.703415373875e-03       3.780923307820e+00 
       1.047750691046e-02       3.905491179325e+00 
       1.131335172503e-02       4.018587644554e+00 
       1.221587619537e-02       4.117901583092e+00 
       1.319039970183e-02       4.200915350253e+00 
       1.424266597920e-02       4.264940825438e+00 
       1.537887696964e-02       4.307218631426e+00 
       1.660572937560e-02       4.325065613095e+00 
       1.793045412207e-02       4.316058677879e+00 
       1.936085889642e-02       4.278230162250e+00 
       2.090537351881e-02       4.210203693183e+00 
       2.257309534705e-02       4.111416206601e+00 
       2.437382002240e-02       3.982422909726e+00 
       2.631799943729e-02       3.825168670446e+00 
       2.841644544598e-02       3.643281937008e+00 
       3.067933354524e-02       3.442189283106e+00 
       3.311368469821e-02       3.229235422513e+00 
       3.571840442514e-02       3.013521688250e+00 
       3.847720347390e-02       2.805280547688e+00 
       4.135335537314e-02       2.614404622210e+00 
       4.429361666563e-02       2.448129743787e+00 
       4.724366437916e-02       2.309239348264e+00 
       5.016480834039e-02       2.196113649793e+00 
       5.303989618930e-02       2.104364665149e+00 
       5.586870668205e-02       2.028465170612e+00 
       5.866042679206e-02       1.963149595709e+00 
       6.142798931504e-02       1.903782976722e+00 
       6.418496438662e-02       1.846480281406e+00 
       6.694418832236e-02       1.788198492792e+00 
       6.971731104453e-02       1.726716727870e+00 
       7.251476154108e-02       1.660652498147e+00 
       7.534587669814e-02       1.589469713222e+00 
       7.821907664495e-02       1.513440129989e+00 
       8.114203771084e-02       1.433568086476e+00 
       8.412184533139e-02       1.351490616801e+00 
       8.716512277352e-02       1.269275693198e+00 
       9.027813693913e-02       1.189193541557e+00 
       9.346688429613e-02       1.113502355939e+00 
       9.673716026122e-02       1.044181793554e+00 
       1.000946150608e-01       9.827067332705e-01 
       1.035447986307e-01       9.299384013787e-01 
       1.070931966524e-01       8.859592325913e-01 
       1.107452594180e-01       8.500718814424e-01 
       1.145064248899e-01       8.208029431286e-01 
       1.183821370656e-01       7.960257957967e-01 
       1.223778605591e-01       7.731423024411e-01 
       1.264990921707e-01       7.494527333222e-01 
       1.307513701078e-01       7.225582491929e-01 
       1.351402814485e-01       6.909076298691e-01 
       1.396714683894e-01       6.541816683890e-01 
       1.443506337875e-01       6.134262159578e-01 
       1.491835464900e-01       5.708680827800e-01 
       1.541760469368e-01       5.293636598487e-01 
       1.593340535209e-01       4.917110021938e-01 
       1.646635701934e-01       4.599198023041e-01 
       1.701706958081e-01       4.347284006814e-01 
       1.758616357070e-01       4.154075970940e-01 
       1.817427160581e-01       3.999362787272e-01 
       1.878204014651e-01       3.856821910898e-01 
       1.941013163855e-01       3.698085568574e-01 
       2.005922709060e-01       3.505460639342e-01 
       2.073002914514e-01       3.280433798520e-01 
       2.142326570343e-01       3.042134634623e-01 
       2.213969417044e-01       2.816126058315e-01 
       2.288010639201e-01       2.622572742816e-01 
       2.364533436625e-01       2.469619611950e-01 
       2.443625682390e-01       2.350133295428e-01 
       2.525380678946e-01       2.244178111419e-01 
       2.609898025770e-01       2.130943851809e-01 
       2.697284614969e-01       2.001008489072e-01 
       2.787655775073e-01       1.860202728421e-01 
       2.881136588192e-01       1.725171914117e-01 
       2.977863412019e-01       1.610659178082e-01 
       3.077985646248e-01       1.517605926200e-01 
       3.181667793367e-01       1.435591802877e-01 
       3.289091877084e-01       1.351814498274e-01 
       3.400460298905e-01       1.261641231629e-01 
       3.515999235695e-01       1.172018446459e-01 
       3.635962710278e-01       1.091770924803e-01 
       3.760637505499e-01       1.023096354858e-01 
       3.890349143014e-01       9.593780148847e-02 
       4.025469215929e-01       8.950806075234e-02 
       4.166424455447e-01       8.311180631413e-02 
       4.313708034899e-01       7.721547836944e-02 
       4.467893781976e-01       7.190053089214e-02 
       4.629654198623e-01       6.686900499775e-02 
       4.799783500912e-01       6.191767955294e-02 
       4.979227318246e-01       5.722229932107e-02 
       5.169121269689e-01       5.290285972853e-02 
       5.370841403262e-01       4.876977964093e-02 
       5.586070463286e-01       4.479088579685e-02 
       5.816885093582e-01       4.105184271280e-02 
       6.065870143577e-01       3.749002537388e-02 
       6.336266466978e-01       3.407634172351e-02 
       6.632156057925e-01       3.083459860477e-02 
       6.958678637575e-01       2.772828552622e-02 
       7.322247983784e-01       2.476714019853e-02 
       7.730680193171e-01       2.193958180022e-02 
       8.193049551574e-01       1.925616557072e-02 
       8.718988013754e-01       1.672927183787e-02 
       9.317218028590e-01       1.438420292698e-02 
       9.993660906273e-01       1.225067480165e-02 
       1.075037109879e+00       1.035260870942e-02 
       1.158653485387e+00       8.699724370997e-03 
       1.250099156961e+00       7.284579515690e-03 
       1.349432400897e+00       6.085470016461e-03 
       1.456947456991e+00       5.075719134556e-03 
       1.573135110893e+00       4.228309289093e-03 
       1.698621895119e+00       3.518532214386e-03 
       1.834127512423e+00       2.924992774275e-03 
       1.980444933977e+00       2.429159106957e-03 
       2.138435191130e+00       2.015513586200e-03 
       2.309029198543e+00       1.670775042082e-03 
       2.493232376993e+00       1.383790081709e-03 
       2.692130394536e+00       1.145131613165e-03 
       2.906895533764e+00       9.468574478174e-04 
       3.138793596840e+00       7.822854291356e-04 
       3.389191365541e+00       6.458203413225e-04 
       3.659564656886e+00       5.327672915511e-04 
       3.951507021438e+00       4.391832737916e-04 
       4.266739135513e+00       3.617852284137e-04 
       4.607118942658e+00       2.978266335098e-04 
       4.974652604172e+00       2.450103486356e-04 
       5.371506323193e+00       2.014329908784e-04 
       5.800019112071e+00       1.655024345206e-04 
       6.262716578240e+00       1.358989514463e-04 
       6.762325809881e+00       1.115250201524e-04 
       7.301791449077e+00       9.147061470904e-05 
       7.884293047211e+00       7.498006961185e-05 
       8.513263804891e+00       6.142979602226e-05 
       9.192410806865e+00       5.030111340792e-05 
       9.925736871166e+00       4.116718746223e-05 
       1.071756414128e+01       3.367460562071e-05 
       1.157255956041e+01       2.753191044412e-05 
       1.249576237789e+01       2.249851639467e-05 
       1.349261385000e+01       1.837637263336e-05 
       1.456898931011e+01       1.500211244478e-05 
       1.573123279727e+01       1.224108412115e-05 
       1.698619444729e+01       9.983332284448e-06 
       1.834127086665e+01       8.137559726591e-06 
       1.980444872733e+01       6.629369627461e-06 
       2.138435183937e+01       5.397515192916e-06 
       2.309029197863e+01       4.391659724739e-06 
       2.493232376942e+01       3.570610624102e-06 
       2.692130394533e+01       2.900635949523e-06 
       2.906895533764e+01       2.354060112191e-06 
       3.138793596840e+01       1.908228531607e-06 
       3.389191365541e+01       1.544641211190e-06 
       3.659564656886e+01       1.248123135633e-06 
       3.951507021438e+01       1.006340759214e-06 
       4.266739135513e+01       8.091572955310e-07 
       4.607118942658e+01       6.483421418881e-07 
       4.974652604172e+01       5.171733763797e-07 
       5.371506323193e+01       4.102010939807e-07 
       5.800019112071e+01       3.229700969047e-07 
       6.262716578240e+01       2.518917233260e-07 
       6.762325809881e+01       1.940512301971e-07 
