# Matter power spectrum P(k) at redshift z=0
# for k=1.04775e-05 to 66.1767 h/Mpc,
# number of wavenumbers equal to 130
#    1:k (h/Mpc)              2:P (Mpc/h)^3        
       1.047750691046e-05       5.020964811312e+01 
       1.319039970183e-05       6.270562594779e+01 
       1.660572937635e-05       7.831147247912e+01 
       2.090537469327e-05       9.780108069295e+01 
       2.631830744443e-05       1.221408203809e+02 
       3.313278603720e-05       1.525374501932e+02 
       4.171170630578e-05       1.904975994010e+02 
       5.251192703764e-05       2.379022224249e+02 
       6.610859936996e-05       2.970989227881e+02 
       8.322579568497e-05       3.710167318946e+02 
       1.047750691046e-04       4.633080766742e+02 
       1.319039970183e-04       5.785234129338e+02 
       1.660572937635e-04       7.223242666092e+02 
       2.090537469327e-04       9.017396271824e+02 
       2.631830744443e-04       1.125468123750e+03 
       3.313278603720e-04       1.404223053681e+03 
       4.171170630578e-04       1.751108028790e+03 
       5.251192703764e-04       2.181998448133e+03 
       6.610859936996e-04       2.715889983592e+03 
       8.322579568497e-04       3.375152337134e+03 
       1.047750691046e-03       4.185552174308e+03 
       1.319039970183e-03       5.175742741394e+03 
       1.660572937635e-03       6.376123051776e+03 
       2.090537469327e-03       7.815671865024e+03 
       2.631830744443e-03       9.517783069112e+03 
       3.313278603720e-03       1.149357460343e+04 
       4.171170630578e-03       1.373266007473e+04 
       5.251192703764e-03       1.619063614560e+04 
       6.610859936996e-03       1.877460392577e+04 
       8.322579568497e-03       2.132607231890e+04 
       1.047750691046e-02       2.360548690035e+04 
       1.319039970183e-02       2.528218657440e+04 
       1.660572937633e-02       2.595029222556e+04 
       2.090537453514e-02       2.520936289074e+04 
       2.631818545635e-02       2.287033536302e+04 
       3.311571692125e-02       1.928631569240e+04 
       4.113809243311e-02       1.568423007927e+04 
       4.792590854610e-02       1.361062188971e+04 
       5.284436902701e-02       1.259130949821e+04 
       5.689644391095e-02       1.195556635522e+04 
       6.051252627066e-02       1.147547362123e+04 
       6.388413457411e-02       1.105589768558e+04 
       6.711249296401e-02       1.064900809829e+04 
       7.025823437965e-02       1.022930266895e+04 
       7.336115587705e-02       9.784533414885e+03 
       7.644928796912e-02       9.311652309616e+03 
       7.954353299775e-02       8.814538379277e+03 
       8.266024078725e-02       8.302117722180e+03 
       8.581273398637e-02       7.786960004334e+03 
       8.901225918437e-02       7.283177268429e+03 
       9.226860540985e-02       6.805150822375e+03 
       9.559052048996e-02       6.365625752978e+03 
       9.898599946599e-02       5.974391937149e+03 
       1.024624891378e-01       5.637320689246e+03 
       1.060270359164e-01       5.355772208877e+03 
       1.096863943056e-01       5.126240991579e+03 
       1.134471073830e-01       4.940482114921e+03 
       1.173155669539e-01       4.786174885717e+03 
       1.212980586983e-01       4.647960332086e+03 
       1.254007961065e-01       4.509153105439e+03 
       1.296299459934e-01       4.354554706526e+03 
       1.339916477160e-01       4.173219361992e+03 
       1.384920277736e-01       3.961169393766e+03 
       1.431372111762e-01       3.722681835368e+03 
       1.479333307714e-01       3.469557305551e+03 
       1.528865355934e-01       3.218339471855e+03 
       1.580029992204e-01       2.986293752155e+03 
       1.632889290723e-01       2.786965171793e+03 
       1.687505775527e-01       2.626830482311e+03 
       1.743942559171e-01       2.503755348034e+03 
       1.802263517371e-01       2.407339338457e+03 
       1.862533508214e-01       2.322252168499e+03 
       1.924818644494e-01       2.231555254393e+03 
       1.989186627765e-01       2.122191017584e+03 
       2.055707152847e-01       1.992028479434e+03 
       2.124452391818e-01       1.850321361893e+03 
       2.195497567139e-01       1.712185367616e+03 
       2.268921624510e-01       1.590990893039e+03 
       2.344808017550e-01       1.493668914482e+03 
       2.423245618548e-01       1.418309311030e+03 
       2.504329772620e-01       1.354466034333e+03 
       2.588163516754e-01       1.288934883895e+03 
       2.674858990930e-01       1.213940798512e+03 
       2.764539076010e-01       1.130690922560e+03 
       2.857339303080e-01       1.048098419006e+03 
       2.953410092148e-01       9.761823137446e+02 
       3.052919395542e-01       9.178119607306e+02 
       3.156055844677e-01       8.678976393288e+02 
       3.263032530092e-01       8.185285528705e+02 
       3.374091587054e-01       7.651479700503e+02 
       3.489509817175e-01       7.106703281772e+02 
       3.609605657343e-01       6.607857402998e+02 
       3.734747921333e-01       6.180871892107e+02 
       3.865366902904e-01       5.793116214158e+02 
       4.001968667448e-01       5.403925856785e+02 
       4.145153713076e-01       5.011517447255e+02 
       4.295641718077e-01       4.644999372316e+02 
       4.454304922144e-01       4.314100547915e+02 
       4.622214006969e-01       4.001143893215e+02 
       4.800702491654e-01       3.690901000760e+02 
       4.991459272112e-01       3.394766289160e+02 
       5.196665217302e-01       3.119856516885e+02 
       5.419201087032e-01       2.852463151621e+02 
       5.662975451962e-01       2.593300003370e+02 
       5.933463737275e-01       2.345486097437e+02 
       6.238638458458e-01       2.102309295263e+02 
       6.590669257916e-01       1.864340535734e+02 
       7.009246080454e-01       1.627248008876e+02 
       7.528593308799e-01       1.388184975929e+02 
       8.213469537518e-01       1.141880213756e+02 
       9.196980813302e-01       8.835953045172e+01 
       1.075112183810e+00       6.172622458695e+01 
       1.322697471132e+00       3.804270831498e+01 
       1.662328205042e+00       2.209799750250e+01 
       2.092692408506e+00       1.266919285892e+01 
       2.634543445090e+00       7.203367433845e+00 
       3.316693691389e+00       4.065166875582e+00 
       4.175469971226e+00       2.278633546707e+00 
       5.256605252960e+00       1.269357164680e+00 
       6.617673932723e+00       7.031379580112e-01 
       8.331157880872e+00       3.874789745028e-01 
       1.048830636590e+01       2.125113684824e-01 
       1.320399541071e+01       1.160373354892e-01 
       1.662284535976e+01       6.309941263475e-02 
       2.092692243973e+01       3.417985507856e-02 
       2.634543445002e+01       1.844624956878e-02 
       3.316693691389e+01       9.919115895072e-03 
       4.175469971226e+01       5.314676453402e-03 
       5.256605252960e+01       2.836726577549e-03 
       6.617673932723e+01       1.507689496719e-03 
