# Matter power spectrum P(k) at redshift z=0
# for k=1.04775e-05 to 66.1767 h/Mpc,
# number of wavenumbers equal to 130
#    1:k (h/Mpc)              2:P (Mpc/h)^3        
       1.047750691046e-05       5.020964811312e+01 
       1.319039970183e-05       6.270562594778e+01 
       1.660572937635e-05       7.831147247912e+01 
       2.090537469327e-05       9.780108069295e+01 
       2.631830744443e-05       1.221408203809e+02 
       3.313278603720e-05       1.525374501932e+02 
       4.171170630578e-05       1.904975994010e+02 
       5.251192703764e-05       2.379022224249e+02 
       6.610859936996e-05       2.970989227882e+02 
       8.322579568497e-05       3.710167318946e+02 
       1.047750691046e-04       4.633080766742e+02 
       1.319039970183e-04       5.785234129334e+02 
       1.660572937635e-04       7.223242666091e+02 
       2.090537469327e-04       9.017396271823e+02 
       2.631830744443e-04       1.125468123750e+03 
       3.313278603720e-04       1.404223053681e+03 
       4.171170630578e-04       1.751108028789e+03 
       5.251192703764e-04       2.181998448132e+03 
       6.610859936996e-04       2.715889983590e+03 
       8.322579568497e-04       3.375152337129e+03 
       1.047750691046e-03       4.185552174292e+03 
       1.319039970183e-03       5.175742741990e+03 
       1.660572937635e-03       6.376123051693e+03 
       2.090537469327e-03       7.815671851154e+03 
       2.631830744443e-03       9.517783068966e+03 
       3.313278603720e-03       1.149357460316e+04 
       4.171170630578e-03       1.373266010987e+04 
       5.251192703764e-03       1.619063598699e+04 
       6.610859936996e-03       1.877460418626e+04 
       8.322579568497e-03       2.132611390729e+04 
       1.047750691046e-02       2.360548124689e+04 
       1.319039970183e-02       2.528219280239e+04 
       1.660572937633e-02       2.595026848955e+04 
       2.090537453514e-02       2.520946712851e+04 
       2.631818545635e-02       2.287027229032e+04 
       3.311571692125e-02       1.928621453743e+04 
       4.113809243311e-02       1.568420273173e+04 
       4.792590854610e-02       1.361062192901e+04 
       5.284436902701e-02       1.259131959282e+04 
       5.689644391095e-02       1.195552845253e+04 
       6.051252627066e-02       1.147552866168e+04 
       6.388413457411e-02       1.105571273831e+04 
       6.711249296401e-02       1.064893690358e+04 
       7.025823437965e-02       1.022931146994e+04 
       7.336115587705e-02       9.784552073663e+03 
       7.644928796912e-02       9.311625637461e+03 
       7.954353299775e-02       8.814545050177e+03 
       8.266024078725e-02       8.302186630249e+03 
       8.581273398637e-02       7.786953951465e+03 
       8.901225918437e-02       7.283260804108e+03 
       9.226860540985e-02       6.805180376498e+03 
       9.559052048996e-02       6.365597615929e+03 
       9.898599946599e-02       5.974404976964e+03 
       1.024624891378e-01       5.637329854862e+03 
       1.060270359164e-01       5.355754207979e+03 
       1.096863943056e-01       5.126229947560e+03 
       1.134471073830e-01       4.940508535478e+03 
       1.173155669539e-01       4.786166949428e+03 
       1.212980586983e-01       4.647921418741e+03 
       1.254007961065e-01       4.509054697809e+03 
       1.296299459934e-01       4.354539165791e+03 
       1.339916477160e-01       4.173183189411e+03 
       1.384920277736e-01       3.961176467586e+03 
       1.431372111762e-01       3.722661581895e+03 
       1.479333307714e-01       3.469553711405e+03 
       1.528865355934e-01       3.218293049845e+03 
       1.580029992204e-01       2.986242161707e+03 
       1.632889290723e-01       2.786931220552e+03 
       1.687505775527e-01       2.626784574404e+03 
       1.743942559171e-01       2.503735465403e+03 
       1.802263517371e-01       2.407288451678e+03 
       1.862533508214e-01       2.322203789167e+03 
       1.924818644494e-01       2.231503620288e+03 
       1.989186627765e-01       2.122133415671e+03 
       2.055707152847e-01       1.991983949494e+03 
       2.124452391818e-01       1.850285657011e+03 
       2.195497567139e-01       1.712123519968e+03 
       2.268921624510e-01       1.590936183134e+03 
       2.344808017550e-01       1.493618176756e+03 
       2.423245618548e-01       1.418265066401e+03 
       2.504329772620e-01       1.354415663357e+03 
       2.588163516754e-01       1.288876058777e+03 
       2.674858990930e-01       1.213879585005e+03 
       2.764539076010e-01       1.130628144301e+03 
       2.857339303080e-01       1.048035526739e+03 
       2.953410092148e-01       9.761187155004e+02 
       3.052919395542e-01       9.177382786330e+02 
       3.156055844677e-01       8.678254745677e+02 
       3.263032530092e-01       8.184499181279e+02 
       3.374091587054e-01       7.650643013110e+02 
       3.489509817175e-01       7.105840973393e+02 
       3.609605657343e-01       6.606939814295e+02 
       3.734747921333e-01       6.179898372948e+02 
       3.865366902904e-01       5.792105983991e+02 
       4.001968667448e-01       5.402858632724e+02 
       4.145153713076e-01       5.010416463596e+02 
       4.295641718077e-01       4.643822194648e+02 
       4.454304922144e-01       4.312843568737e+02 
       4.622214006969e-01       3.999834648412e+02 
       4.800702491654e-01       3.689521825970e+02 
       4.991459272112e-01       3.393306081551e+02 
       5.196665217302e-01       3.118294346180e+02 
       5.419201087032e-01       2.850820955921e+02 
       5.662975451962e-01       2.591562626992e+02 
       5.933463737275e-01       2.343608079364e+02 
       6.238638458458e-01       2.100290214926e+02 
       6.590669257916e-01       1.862164567726e+02 
       7.009246080454e-01       1.624878917046e+02 
       7.528593308799e-01       1.385562622683e+02 
       8.213469537518e-01       1.138928725075e+02 
       9.196980813302e-01       8.801546799876e+01 
       1.075112183810e+00       6.130405188532e+01 
       1.322697471132e+00       3.749387088751e+01 
       1.662328205042e+00       2.137661166709e+01 
       2.092692408506e+00       1.174191999748e+01 
       2.634543445090e+00       6.055016701896e+00 
       3.316693691389e+00       2.729402120495e+00 
       4.175469971226e+00       8.879546229993e-01 
       5.256605252960e+00       9.226715745265e-02 
       6.617673932723e+00       5.280791330685e-02 
       8.331157880872e+00       2.874546137885e-01 
       1.048830636590e+01       2.085813303167e-01 
       1.320399541071e+01       9.919775213504e-04 
       1.662284535976e+01       6.741159567093e-02 
       2.092692243973e+01       4.177656293174e-04 
       2.634543445002e+01       1.115632437203e-02 
       3.316693691389e+01       4.569613626084e-03 
       4.175469971226e+01       1.217035050795e-03 
       5.256605252960e+01       1.084964048562e-04 
       6.617673932723e+01       2.225049289990e-05 
