# Matter power spectrum P(k) at redshift z=99
# for k=1.04775e-05 to 66.1767 h/Mpc,
# number of wavenumbers equal to 130
#    1:k (h/Mpc)              2:P (Mpc/h)^3        
       1.047750691046e-05       7.261927680862e-03 
       1.319039970183e-05       9.069258201849e-03 
       1.660572937635e-05       1.132639106725e-02 
       2.090537469327e-05       1.414527123399e-02 
       2.631830744443e-05       1.766569584058e-02 
       3.313278603720e-05       2.206225515942e-02 
       4.171170630578e-05       2.755297766277e-02 
       5.251192703764e-05       3.441013522947e-02 
       6.610859936996e-05       4.297372172778e-02 
       8.322579568497e-05       5.366826852944e-02 
       1.047750691046e-04       6.702379872775e-02 
       1.319039970183e-04       8.370193441286e-02 
       1.660572937635e-04       1.045283355384e-01 
       2.090537469327e-04       1.305329134104e-01 
       2.631830744443e-04       1.629994506605e-01 
       3.313278603720e-04       2.035264004601e-01 
       4.171170630578e-04       2.541004744243e-01 
       5.251192703764e-04       3.171839528557e-01 
       6.610859936996e-04       3.958147256513e-01 
       8.322579568497e-04       4.937136006270e-01 
       1.047750691046e-03       6.153841636042e-01 
       1.319039970183e-03       7.661720592805e-01 
       1.660572937635e-03       9.522588016472e-01 
       2.090537469327e-03       1.180312991699e+00 
       2.631830744443e-03       1.456802684686e+00 
       3.313278603720e-03       1.786503854038e+00 
       4.171170630578e-03       2.169896194139e+00 
       5.251192703764e-03       2.599430630720e+00 
       6.610859936996e-03       3.055668691379e+00 
       8.322579568497e-03       3.505725598344e+00 
       1.047750691046e-02       3.905491412938e+00 
       1.319039970183e-02       4.200915279467e+00 
       1.660572937633e-02       4.325065451658e+00 
       2.090537453514e-02       4.210201036714e+00 
       2.631818545635e-02       3.825152209564e+00 
       3.311571692125e-02       3.229060541961e+00 
       4.113809243311e-02       2.627729765263e+00 
       4.792590854610e-02       2.280795094363e+00 
       5.284436902701e-02       2.110086777388e+00 
       5.689644391095e-02       2.003534150536e+00 
       6.051252627066e-02       1.923057211035e+00 
       6.388413457411e-02       1.852734726717e+00 
       6.711249296401e-02       1.784561964313e+00 
       7.025823437965e-02       1.714277543257e+00 
       7.336115587705e-02       1.639813734096e+00 
       7.644928796912e-02       1.560662892772e+00 
       7.954353299775e-02       1.477457857369e+00 
       8.266024078725e-02       1.391698432021e+00 
       8.581273398637e-02       1.305463307232e+00 
       8.901225918437e-02       1.221122981675e+00 
       9.226860540985e-02       1.141080380939e+00 
       9.559052048996e-02       1.067454193883e+00 
       9.898599946599e-02       1.001891329788e+00 
       1.024624891378e-01       9.453807251067e-01 
       1.060270359164e-01       8.981485976247e-01 
       1.096863943056e-01       8.596132256359e-01 
       1.134471073830e-01       8.284041597391e-01 
       1.173155669539e-01       8.024678866242e-01 
       1.212980586983e-01       7.792269614163e-01 
       1.254007961065e-01       7.559186766934e-01 
       1.296299459934e-01       7.299827311599e-01 
       1.339916477160e-01       6.995933307932e-01 
       1.384920277736e-01       6.640792668937e-01 
       1.431372111762e-01       6.241477484260e-01 
       1.479333307714e-01       5.817630666936e-01 
       1.528865355934e-01       5.396935075691e-01 
       1.580029992204e-01       5.008146354660e-01 
       1.632889290723e-01       4.673992134715e-01 
       1.687505775527e-01       4.405351017886e-01 
       1.743942559171e-01       4.198658434650e-01 
       1.802263517371e-01       4.036600573481e-01 
       1.862533508214e-01       3.893594222761e-01 
       1.924818644494e-01       3.741350782281e-01 
       1.989186627765e-01       3.558026775540e-01 
       2.055707152847e-01       3.340003093453e-01 
       2.124452391818e-01       3.102677116394e-01 
       2.195497567139e-01       2.871224029127e-01 
       2.268921624510e-01       2.668081241130e-01 
       2.344808017550e-01       2.504833293476e-01 
       2.423245618548e-01       2.378336262897e-01 
       2.504329772620e-01       2.271114841908e-01 
       2.588163516754e-01       2.161181856151e-01 
       2.674858990930e-01       2.035456841202e-01 
       2.764539076010e-01       1.895980903364e-01 
       2.857339303080e-01       1.757569063713e-01 
       2.953410092148e-01       1.636991354611e-01 
       3.052919395542e-01       1.539064513785e-01 
       3.156055844677e-01       1.455313287573e-01 
       3.263032530092e-01       1.372504149565e-01 
       3.374091587054e-01       1.283022719236e-01 
       3.489509817175e-01       1.191716851152e-01 
       3.609605657343e-01       1.108070894072e-01 
       3.734747921333e-01       1.036449829246e-01 
       3.865366902904e-01       9.714168317676e-02 
       4.001968667448e-01       9.061562260083e-02 
       4.145153713076e-01       8.403706142608e-02 
       4.295641718077e-01       7.789133507185e-02 
       4.454304922144e-01       7.234167603334e-02 
       4.622214006969e-01       6.709383695297e-02 
       4.800702491654e-01       6.189190174694e-02 
       4.991459272112e-01       5.692640772667e-02 
       5.196665217302e-01       5.231609899784e-02 
       5.419201087032e-01       4.783271407803e-02 
       5.662975451962e-01       4.348701008426e-02 
       5.933463737275e-01       3.933120517301e-02 
       6.238638458458e-01       3.525342881628e-02 
       6.590669257916e-01       3.126288083377e-02 
       7.009246080454e-01       2.728734438413e-02 
       7.528593308799e-01       2.327839659635e-02 
       8.213469537518e-01       1.914817686132e-02 
       9.196980813302e-01       1.481700594182e-02 
       1.075112183810e+00       1.035091987558e-02 
       1.322697471132e+00       6.379452830943e-03 
       1.662328205042e+00       3.705666409394e-03 
       2.092692408506e+00       2.124542230866e-03 
       2.634543445090e+00       1.207963191033e-03 
       3.316693691389e+00       6.817043645214e-04 
       4.175469971226e+00       3.821173709124e-04 
       5.256605252960e+00       2.128702088459e-04 
       6.617673932723e+00       1.179177939121e-04 
       8.331157880872e+00       6.498322742703e-05 
       1.048830636590e+01       3.564135802354e-05 
       1.320399541071e+01       1.946248460512e-05 
       1.662284535976e+01       1.058436871017e-05 
       2.092692243973e+01       5.734109989144e-06 
       2.634543445002e+01       3.095125510205e-06 
       3.316693691389e+01       1.664767115324e-06 
       4.175469971226e+01       8.922432165261e-07 
       5.256605252960e+01       4.764125991564e-07 
       6.617673932723e+01       2.533140537241e-07 
