# Matter power spectrum P(k) at redshift z=0
# for k=1.04775e-05 to 67.6233 h/Mpc,
# number of wavenumbers equal to 246
#    1:k (h/Mpc)              2:P (Mpc/h)^3        
       1.047750691046e-05       5.020964811309e+01 
       1.131335172503e-05       5.407050701928e+01 
       1.221587619537e-05       5.822819068660e+01 
       1.319039970183e-05       6.270562594784e+01 
       1.424266597921e-05       6.752732240880e+01 
       1.537887696968e-05       7.271977206173e+01 
       1.660572937635e-05       7.831147247912e+01 
       1.793045413292e-05       8.433311821988e+01 
       1.936085902198e-05       9.081778249833e+01 
       2.090537469327e-05       9.780108069296e+01 
       2.257310435294e-05       1.053213197893e+02 
       2.437387741694e-05       1.134197377890e+02 
       2.631830744443e-05       1.221408203809e+02 
       2.841785469300e-05       1.315324642468e+02 
       3.068489366414e-05       1.416462094881e+02 
       3.313278603720e-05       1.525374501932e+02 
       3.577595942169e-05       1.642660688414e+02 
       3.862999239199e-05       1.768963506307e+02 
       4.171170630578e-05       1.904975994010e+02 
       4.503926444729e-05       2.051444491974e+02 
       4.863227907969e-05       2.209171465549e+02 
       5.251192703764e-05       2.379022224249e+02 
       5.670107454120e-05       2.561927927857e+02 
       6.122441196689e-05       2.758890444040e+02 
       6.610859936996e-05       2.970989227882e+02 
       7.138242361596e-05       3.199385560802e+02 
       7.707696804727e-05       3.445329783680e+02 
       8.322579568497e-05       3.710167318945e+02 
       8.986514704559e-05       3.995346444203e+02 
       9.703415373875e-05       4.302425407383e+02 
       1.047750691046e-04       4.633080766742e+02 
       1.131335172503e-04       4.989116271564e+02 
       1.221587619537e-04       5.372471950929e+02 
       1.319039970183e-04       5.785234129337e+02 
       1.424266597921e-04       6.229645936045e+02 
       1.537887696968e-04       6.708118490405e+02 
       1.660572937635e-04       7.223242666092e+02 
       1.793045413292e-04       7.777801560534e+02 
       1.936085902198e-04       8.374783614140e+02 
       2.090537469327e-04       9.017396271823e+02 
       2.257310435294e-04       9.709080268040e+02 
       2.437387741694e-04       1.045352449493e+03 
       2.631830744443e-04       1.125468123750e+03 
       2.841785469300e-04       1.211678180494e+03 
       3.068489366414e-04       1.304435250150e+03 
       3.313278603720e-04       1.404223053681e+03 
       3.577595942169e-04       1.511558014616e+03 
       3.862999239199e-04       1.626990837806e+03 
       4.171170630578e-04       1.751108028789e+03 
       4.503926444729e-04       1.884533382871e+03 
       4.863227907969e-04       2.027929378111e+03 
       5.251192703764e-04       2.181998448132e+03 
       5.670107454121e-04       2.347484102753e+03 
       6.122441196689e-04       2.525171871362e+03 
       6.610859936996e-04       2.715889983589e+03 
       7.138242361596e-04       2.920509688380e+03 
       7.707696804727e-04       3.139945100275e+03 
       8.322579568497e-04       3.375152337577e+03 
       8.986514704559e-04       3.627127831133e+03 
       9.703415373875e-04       3.896905453127e+03 
       1.047750691046e-03       4.185552174317e+03 
       1.131335172503e-03       4.494162430359e+03 
       1.221587619537e-03       4.823850706482e+03 
       1.319039970183e-03       5.175742742763e+03 
       1.424266597921e-03       5.551019596874e+03 
       1.537887696968e-03       5.950788340521e+03 
       1.660572937635e-03       6.376123051670e+03 
       1.793045413292e-03       6.828073901387e+03 
       1.936085902198e-03       7.307625380989e+03 
       2.090537469327e-03       7.815671921035e+03 
       2.257310435294e-03       8.352990375692e+03 
       2.437387741694e-03       8.920211064207e+03 
       2.631830744443e-03       9.517783068907e+03 
       2.841785469300e-03       1.014593704409e+04 
       3.068489366414e-03       1.080464502772e+04 
       3.313278603720e-03       1.149357460300e+04 
       3.577595942169e-03       1.221203621669e+04 
       3.862999239199e-03       1.295892539379e+04 
       4.171170630578e-03       1.373266012864e+04 
       4.503926444729e-03       1.453111835520e+04 
       4.863227907969e-03       1.535154981552e+04 
       5.251192703764e-03       1.619063592342e+04 
       5.670107454120e-03       1.704431256467e+04 
       6.122441196689e-03       1.790755952467e+04 
       6.610859936996e-03       1.877460425938e+04 
       7.138242361596e-03       1.963872471474e+04 
       7.707696804727e-03       2.049215712071e+04 
       8.322579568496e-03       2.132611385832e+04 
       8.986514704559e-03       2.213054917678e+04 
       9.703415373875e-03       2.289445611737e+04 
       1.047750691046e-02       2.360548960659e+04 
       1.131335172503e-02       2.425022747501e+04 
       1.221587619537e-02       2.481423912375e+04 
       1.319039970183e-02       2.528219698967e+04 
       1.424266597920e-02       2.563814473483e+04 
       1.537887696964e-02       2.586610492801e+04 
       1.660572937560e-02       2.595030175918e+04 
       1.793045412207e-02       2.587637626896e+04 
       1.936085889642e-02       2.563221188941e+04 
       2.090537351881e-02       2.520935745441e+04 
       2.257309534705e-02       2.460462928242e+04 
       2.437382002240e-02       2.382084972991e+04 
       2.631799943729e-02       2.287038102441e+04 
       2.841644544598e-02       2.177447182334e+04 
       3.067933354524e-02       2.056553168613e+04 
       3.311368469821e-02       1.928723923703e+04 
       3.571840442514e-02       1.799398437846e+04 
       3.847720347390e-02       1.674687923905e+04 
       4.135335537314e-02       1.560456153074e+04 
       4.429361666563e-02       1.461027668902e+04 
       4.724366437916e-02       1.378048130441e+04 
       5.016480834039e-02       1.310503458678e+04 
       5.303989618930e-02       1.255711279693e+04 
       5.586870668205e-02       1.210424218105e+04 
       5.866042679206e-02       1.171466178896e+04 
       6.142798931504e-02       1.136050252609e+04 
       6.418496438662e-02       1.101861199499e+04 
       6.694418832236e-02       1.067067889163e+04 
       6.971731104453e-02       1.030340160391e+04 
       7.251476154108e-02       9.909054795615e+03 
       7.534587669814e-02       9.483658490687e+03 
       7.821907664495e-02       9.029337500951e+03 
       8.114203771084e-02       8.552161012555e+03 
       8.412184533139e-02       8.061957671089e+03 
       8.716512277352e-02       7.570803068470e+03 
       9.027813693913e-02       7.092506777268e+03 
       9.346688429613e-02       6.640507269835e+03 
       9.673716026122e-02       6.226711455234e+03 
       1.000946150608e-01       5.859942611265e+03 
       1.035447986307e-01       5.545247727887e+03 
       1.070931966524e-01       5.283163171223e+03 
       1.107452594180e-01       5.069456328772e+03 
       1.145064248899e-01       4.895280708157e+03 
       1.183821370656e-01       4.747841480025e+03 
       1.223778605591e-01       4.611717241299e+03 
       1.264990921707e-01       4.470617774205e+03 
       1.307513701078e-01       4.310282450948e+03 
       1.351402814485e-01       4.121402797484e+03 
       1.396714683894e-01       3.902064505394e+03 
       1.443506337875e-01       3.658654920112e+03 
       1.491835464900e-01       3.404471853285e+03 
       1.541760469368e-01       3.156641442605e+03 
       1.593340535209e-01       2.931933284419e+03 
       1.646635701934e-01       2.742353203083e+03 
       1.701706958081e-01       2.592234012085e+03 
       1.758616357070e-01       2.477211465384e+03 
       1.817427160581e-01       2.385168432494e+03 
       1.878204014651e-01       2.300342224629e+03 
       1.941013163855e-01       2.205771984358e+03 
       2.005922709060e-01       2.090841068282e+03 
       2.073002914514e-01       1.956460713474e+03 
       2.142326570343e-01       1.814174243062e+03 
       2.213969417044e-01       1.679269418667e+03 
       2.288010639201e-01       1.563848805687e+03 
       2.364533436625e-01       1.472667142011e+03 
       2.443625682390e-01       1.401511345649e+03 
       2.525380678946e-01       1.338420107269e+03 
       2.609898025770e-01       1.270899701409e+03 
       2.697284614969e-01       1.193356339776e+03 
       2.787655775073e-01       1.109329989734e+03 
       2.881136588192e-01       1.028761417671e+03 
       2.977863412019e-01       9.604742161089e+02 
       3.077985646248e-01       9.050161736978e+02 
       3.181667793367e-01       8.561332799381e+02 
       3.289091877084e-01       8.061776507300e+02 
       3.400460298905e-01       7.523806615913e+02 
       3.515999235695e-01       6.989147504046e+02 
       3.635962710278e-01       6.510484056784e+02 
       3.760637505499e-01       6.101169318909e+02 
       3.890349143014e-01       5.721251778275e+02 
       4.025469215929e-01       5.337743856440e+02 
       4.166424455447e-01       4.956210642045e+02 
       4.313708034899e-01       4.604632144429e+02 
       4.467893781976e-01       4.287684941080e+02 
       4.629654198623e-01       3.987672894503e+02 
       4.799783500912e-01       3.692341691798e+02 
       4.979227318246e-01       3.412349445334e+02 
       5.169121269689e-01       3.154767914540e+02 
       5.370841403262e-01       2.908283906479e+02 
       5.586070463286e-01       2.671006207253e+02 
       5.816885093582e-01       2.448035201372e+02 
       6.065870143577e-01       2.235644168188e+02 
       6.336266466978e-01       2.032067500414e+02 
       6.632156057925e-01       1.838753572253e+02 
       6.958678637575e-01       1.653509083095e+02 
       7.322247983784e-01       1.476921444275e+02 
       7.730680193171e-01       1.308311185647e+02 
       8.193049551574e-01       1.148285776954e+02 
       8.718988013754e-01       9.975981547755e+01 
       9.317218028590e-01       8.577503638980e+01 
       9.993660906273e-01       7.305165771391e+01 
       1.075037109879e+00       6.173275430865e+01 
       1.158653485387e+00       5.187602082152e+01 
       1.250099156961e+00       4.343719629135e+01 
       1.349432400897e+00       3.628604817418e+01 
       1.456947456991e+00       3.026507706407e+01 
       1.573135110893e+00       2.521159926827e+01 
       1.698621895119e+00       2.097909983762e+01 
       1.834127512423e+00       1.743950062069e+01 
       1.980444933977e+00       1.448278036988e+01 
       2.138435191130e+00       1.201608555654e+01 
       2.309029198543e+00       9.960372174210e+00 
       2.493232376993e+00       8.249050154420e+00 
       2.692130394536e+00       6.825794117002e+00 
       2.906895533764e+00       5.643515440283e+00 
       3.138793596840e+00       4.662161337875e+00 
       3.389191365541e+00       3.848479324021e+00 
       3.659564656886e+00       3.174319135685e+00 
       3.951507021438e+00       2.616270283633e+00 
       4.266739135513e+00       2.154791610081e+00 
       4.607118942658e+00       1.773417645132e+00 
       4.974652604172e+00       1.458498576260e+00 
       5.371506323193e+00       1.198691523667e+00 
       5.800019112071e+00       9.844824928640e-01 
       6.262716578240e+00       8.079952890944e-01 
       6.762325809881e+00       6.626976328820e-01 
       7.301791449077e+00       5.431626375923e-01 
       7.884293047211e+00       4.448862816543e-01 
       8.513263804891e+00       3.641305681784e-01 
       9.192410806865e+00       2.978232100861e-01 
       9.925736871166e+00       2.434127052678e-01 
       1.071756414128e+01       1.987893424818e-01 
       1.157255956041e+01       1.622149848518e-01 
       1.249576237789e+01       1.322587788654e-01 
       1.349261385000e+01       1.077348702325e-01 
       1.456898931011e+01       8.767118146772e-02 
       1.573123279727e+01       7.126767105808e-02 
       1.698619444729e+01       5.786356922980e-02 
       1.834127086665e+01       4.691749563280e-02 
       1.980444872733e+01       3.798434533951e-02 
       2.138435183937e+01       3.069952311837e-02 
       2.309029197863e+01       2.476330345950e-02 
       2.493232376942e+01       1.993000038542e-02 
       2.692130394533e+01       1.599796045458e-02 
       2.906895533764e+01       1.280264585111e-02 
       3.138793596840e+01       1.020858219795e-02 
       3.389191365541e+01       8.105934933698e-03 
       3.659564656886e+01       6.404352056074e-03 
       3.951507021438e+01       5.030045347799e-03 
       4.266739135513e+01       3.922763623637e-03 
       4.607118942658e+01       3.033330584622e-03 
       4.974652604172e+01       2.321744774574e-03 
       5.371506323193e+01       1.755247097165e-03 
       5.800019112071e+01       1.307148110854e-03 
       6.262716578240e+01       9.556713897227e-04 
       6.762325809881e+01       6.830152781521e-04 
