# Matter power spectrum P(k) at redshift z=0
# for k=1.04775e-05 to 66.1767 h/Mpc,
# number of wavenumbers equal to 130
#    1:k (h/Mpc)              2:P (Mpc/h)^3        
       1.047750691046e-05       5.020964811308e+01 
       1.319039970183e-05       6.270562594777e+01 
       1.660572937635e-05       7.831147247912e+01 
       2.090537469327e-05       9.780108069295e+01 
       2.631830744443e-05       1.221408203809e+02 
       3.313278603720e-05       1.525374501932e+02 
       4.171170630578e-05       1.904975994010e+02 
       5.251192703764e-05       2.379022224249e+02 
       6.610859936996e-05       2.970989227880e+02 
       8.322579568497e-05       3.710167318946e+02 
       1.047750691046e-04       4.633080766742e+02 
       1.319039970183e-04       5.785234129331e+02 
       1.660572937635e-04       7.223242666092e+02 
       2.090537469327e-04       9.017396271824e+02 
       2.631830744443e-04       1.125468123750e+03 
       3.313278603720e-04       1.404223053681e+03 
       4.171170630578e-04       1.751108028790e+03 
       5.251192703764e-04       2.181998448133e+03 
       6.610859936996e-04       2.715889983592e+03 
       8.322579568497e-04       3.375152337134e+03 
       1.047750691046e-03       4.185552174308e+03 
       1.319039970183e-03       5.175742744059e+03 
       1.660572937635e-03       6.376123051779e+03 
       2.090537469327e-03       7.815671868414e+03 
       2.631830744443e-03       9.517783069112e+03 
       3.313278603720e-03       1.149357460345e+04 
       4.171170630578e-03       1.373266012833e+04 
       5.251192703764e-03       1.619063614560e+04 
       6.610859936996e-03       1.877460424102e+04 
       8.322579568497e-03       2.132606823462e+04 
       1.047750691046e-02       2.360548256320e+04 
       1.319039970183e-02       2.528218555833e+04 
       1.660572937633e-02       2.595028855943e+04 
       2.090537453514e-02       2.520935900028e+04 
       2.631818545635e-02       2.287036720270e+04 
       3.311571692125e-02       1.928628556421e+04 
       4.113809243311e-02       1.568428574836e+04 
       4.792590854610e-02       1.361062587025e+04 
       5.284436902701e-02       1.259130208137e+04 
       5.689644391095e-02       1.195556539494e+04 
       6.051252627066e-02       1.147547326148e+04 
       6.388413457411e-02       1.105589878483e+04 
       6.711249296401e-02       1.064897713339e+04 
       7.025823437965e-02       1.022929531384e+04 
       7.336115587705e-02       9.784523973107e+03 
       7.644928796912e-02       9.311681938301e+03 
       7.954353299775e-02       8.814549537977e+03 
       8.266024078725e-02       8.302107212842e+03 
       8.581273398637e-02       7.786967523067e+03 
       8.901225918437e-02       7.283184125091e+03 
       9.226860540985e-02       6.805177257487e+03 
       9.559052048996e-02       6.365644221011e+03 
       9.898599946599e-02       5.974392408098e+03 
       1.024624891378e-01       5.637334120204e+03 
       1.060270359164e-01       5.355767535679e+03 
       1.096863943056e-01       5.126244958052e+03 
       1.134471073830e-01       4.940479507326e+03 
       1.173155669539e-01       4.786165141031e+03 
       1.212980586983e-01       4.647933761536e+03 
       1.254007961065e-01       4.509156007200e+03 
       1.296299459934e-01       4.354558534024e+03 
       1.339916477160e-01       4.173215906113e+03 
       1.384920277736e-01       3.961162562898e+03 
       1.431372111762e-01       3.722686972460e+03 
       1.479333307714e-01       3.469554984882e+03 
       1.528865355934e-01       3.218346250941e+03 
       1.580029992204e-01       2.986290490377e+03 
       1.632889290723e-01       2.786965428567e+03 
       1.687505775527e-01       2.626827451260e+03 
       1.743942559171e-01       2.503753472046e+03 
       1.802263517371e-01       2.407344372072e+03 
       1.862533508214e-01       2.322249079549e+03 
       1.924818644494e-01       2.231550725455e+03 
       1.989186627765e-01       2.122190345722e+03 
       2.055707152847e-01       1.992033355369e+03 
       2.124452391818e-01       1.850321975561e+03 
       2.195497567139e-01       1.712181554771e+03 
       2.268921624510e-01       1.590986109444e+03 
       2.344808017550e-01       1.493670262605e+03 
       2.423245618548e-01       1.418312896155e+03 
       2.504329772620e-01       1.354468106060e+03 
       2.588163516754e-01       1.288936506787e+03 
       2.674858990930e-01       1.213939133192e+03 
       2.764539076010e-01       1.130695074062e+03 
       2.857339303080e-01       1.048099249371e+03 
       2.953410092148e-01       9.761828556651e+02 
       3.052919395542e-01       9.178106628967e+02 
       3.156055844677e-01       8.679003939791e+02 
       3.263032530092e-01       8.185262753376e+02 
       3.374091587054e-01       7.651471147826e+02 
       3.489509817175e-01       7.106718741705e+02 
       3.609605657343e-01       6.607869336323e+02 
       3.734747921333e-01       6.180861885081e+02 
       3.865366902904e-01       5.793119057186e+02 
       4.001968667448e-01       5.403916676543e+02 
       4.145153713076e-01       5.011508517909e+02 
       4.295641718077e-01       4.644994458748e+02 
       4.454304922144e-01       4.314103306534e+02 
       4.622214006969e-01       4.001138924607e+02 
       4.800702491654e-01       3.690892059901e+02 
       4.991459272112e-01       3.394771026562e+02 
       5.196665217302e-01       3.119859118970e+02 
       5.419201087032e-01       2.852479344960e+02 
       5.662975451962e-01       2.593316317396e+02 
       5.933463737275e-01       2.345479364509e+02 
       6.238638458458e-01       2.102304315659e+02 
       6.590669257916e-01       1.864335541961e+02 
       7.009246080454e-01       1.627249196934e+02 
       7.528593308799e-01       1.388186141837e+02 
       8.213469537518e-01       1.141882080311e+02 
       9.196980813302e-01       8.835936283983e+01 
       1.075112183810e+00       6.172604940553e+01 
       1.322697471132e+00       3.804278102817e+01 
       1.662328205042e+00       2.209801278363e+01 
       2.092692408506e+00       1.266921497009e+01 
       2.634543445090e+00       7.203342580280e+00 
       3.316693691389e+00       4.065156769229e+00 
       4.175469971226e+00       2.278630262307e+00 
       5.256605252960e+00       1.269354342669e+00 
       6.617673932723e+00       7.031385446797e-01 
       8.331157880872e+00       3.874781969979e-01 
       1.048830636590e+01       2.125119790303e-01 
       1.320399541071e+01       1.160371071599e-01 
       1.662284535976e+01       6.309882821465e-02 
       2.092692243973e+01       3.417952023412e-02 
       2.634543445002e+01       1.844619396831e-02 
       3.316693691389e+01       9.919198230032e-03 
       4.175469971226e+01       5.314606392612e-03 
       5.256605252960e+01       2.836702359235e-03 
       6.617673932723e+01       1.507697614685e-03 
