# Matter power spectrum P(k) at redshift z=99
# for k=1.04775e-05 to 66.1767 h/Mpc,
# number of wavenumbers equal to 130
#    1:k (h/Mpc)              2:P (Mpc/h)^3        
       1.047750691046e-05       7.261927680868e-03 
       1.319039970183e-05       9.069258201856e-03 
       1.660572937635e-05       1.132639106726e-02 
       2.090537469327e-05       1.414527123400e-02 
       2.631830744443e-05       1.766569584059e-02 
       3.313278603720e-05       2.206225515944e-02 
       4.171170630578e-05       2.755297766279e-02 
       5.251192703764e-05       3.441013522950e-02 
       6.610859936996e-05       4.297372172781e-02 
       8.322579568497e-05       5.366826852949e-02 
       1.047750691046e-04       6.702379872780e-02 
       1.319039970183e-04       8.370193441293e-02 
       1.660572937635e-04       1.045283355385e-01 
       2.090537469327e-04       1.305329134105e-01 
       2.631830744443e-04       1.629994506607e-01 
       3.313278603720e-04       2.035264004603e-01 
       4.171170630578e-04       2.541004744245e-01 
       5.251192703764e-04       3.171839528559e-01 
       6.610859936996e-04       3.958147256516e-01 
       8.322579568497e-04       4.937136006280e-01 
       1.047750691046e-03       6.153841636043e-01 
       1.319039970183e-03       7.661720592427e-01 
       1.660572937635e-03       9.522588016425e-01 
       2.090537469327e-03       1.180312991698e+00 
       2.631830744443e-03       1.456802684683e+00 
       3.313278603720e-03       1.786503854036e+00 
       4.171170630578e-03       2.169896192180e+00 
       5.251192703764e-03       2.599430630687e+00 
       6.610859936996e-03       3.055668715649e+00 
       8.322579568497e-03       3.505725166687e+00 
       1.047750691046e-02       3.905491305309e+00 
       1.319039970183e-02       4.200915465451e+00 
       1.660572937633e-02       4.325063510389e+00 
       2.090537453514e-02       4.210199875753e+00 
       2.631818545635e-02       3.825152263408e+00 
       3.311571692125e-02       3.229076760865e+00 
       4.113809243311e-02       2.627727422707e+00 
       4.792590854610e-02       2.280795582031e+00 
       5.284436902701e-02       2.110088482172e+00 
       5.689644391095e-02       2.003539779710e+00 
       6.051252627066e-02       1.923055856695e+00 
       6.388413457411e-02       1.852732095667e+00 
       6.711249296401e-02       1.784565202618e+00 
       7.025823437965e-02       1.714275990094e+00 
       7.336115587705e-02       1.639813599604e+00 
       7.644928796912e-02       1.560660198587e+00 
       7.954353299775e-02       1.477457648958e+00 
       8.266024078725e-02       1.391695865493e+00 
       8.581273398637e-02       1.305461090405e+00 
       8.901225918437e-02       1.221126942502e+00 
       9.226860540985e-02       1.141077263917e+00 
       9.559052048996e-02       1.067452615555e+00 
       9.898599946599e-02       1.001887328454e+00 
       1.024624891378e-01       9.453829348500e-01 
       1.060270359164e-01       8.981504041278e-01 
       1.096863943056e-01       8.596133104723e-01 
       1.134471073830e-01       8.284053310851e-01 
       1.173155669539e-01       8.024666493309e-01 
       1.212980586983e-01       7.792269443967e-01 
       1.254007961065e-01       7.559192687134e-01 
       1.296299459934e-01       7.299823758472e-01 
       1.339916477160e-01       6.995925714450e-01 
       1.384920277736e-01       6.640787660351e-01 
       1.431372111762e-01       6.241465433159e-01 
       1.479333307714e-01       5.817645697339e-01 
       1.528865355934e-01       5.396908790450e-01 
       1.580029992204e-01       5.008137004565e-01 
       1.632889290723e-01       4.673987224663e-01 
       1.687505775527e-01       4.405339101141e-01 
       1.743942559171e-01       4.198657286018e-01 
       1.802263517371e-01       4.036588790226e-01 
       1.862533508214e-01       3.893625243255e-01 
       1.924818644494e-01       3.741386696325e-01 
       1.989186627765e-01       3.558058604287e-01 
       2.055707152847e-01       3.340035596392e-01 
       2.124452391818e-01       3.102651334698e-01 
       2.195497567139e-01       2.871220536929e-01 
       2.268921624510e-01       2.668086148116e-01 
       2.344808017550e-01       2.504830867136e-01 
       2.423245618548e-01       2.378332922972e-01 
       2.504329772620e-01       2.271115330924e-01 
       2.588163516754e-01       2.161199104253e-01 
       2.674858990930e-01       2.035474475891e-01 
       2.764539076010e-01       1.895973558786e-01 
       2.857339303080e-01       1.757573403805e-01 
       2.953410092148e-01       1.636989532613e-01 
       3.052919395542e-01       1.539062074645e-01 
       3.156055844677e-01       1.455308102723e-01 
       3.263032530092e-01       1.372507255799e-01 
       3.374091587054e-01       1.283021432666e-01 
       3.489509817175e-01       1.191711124183e-01 
       3.609605657343e-01       1.108072144728e-01 
       3.734747921333e-01       1.036451696863e-01 
       3.865366902904e-01       9.714117439154e-02 
       4.001968667448e-01       9.061534650885e-02 
       4.145153713076e-01       8.403702188165e-02 
       4.295641718077e-01       7.789105056268e-02 
       4.454304922144e-01       7.234155991421e-02 
       4.622214006969e-01       6.709369714399e-02 
       4.800702491654e-01       6.189169123603e-02 
       4.991459272112e-01       5.692637579274e-02 
       5.196665217302e-01       5.231606263742e-02 
       5.419201087032e-01       4.783259585246e-02 
       5.662975451962e-01       4.348685119836e-02 
       5.933463737275e-01       3.933108451630e-02 
       6.238638458458e-01       3.525338593359e-02 
       6.590669257916e-01       3.126281371198e-02 
       7.009246080454e-01       2.728728662221e-02 
       7.528593308799e-01       2.327834776589e-02 
       8.213469537518e-01       1.914812850449e-02 
       9.196980813302e-01       1.481693802458e-02 
       1.075112183810e+00       1.035084306499e-02 
       1.322697471132e+00       6.379370320938e-03 
       1.662328205042e+00       3.705601414338e-03 
       2.092692408506e+00       2.124469705552e-03 
       2.634543445090e+00       1.207897232275e-03 
       3.316693691389e+00       6.816469908096e-04 
       4.175469971226e+00       3.820575863286e-04 
       5.256605252960e+00       2.128148567727e-04 
       6.617673932723e+00       1.178641767242e-04 
       8.331157880872e+00       6.493189248645e-05 
       1.048830636590e+01       3.559284853118e-05 
       1.320399541071e+01       1.941681099389e-05 
       1.662284535976e+01       1.054150679845e-05 
       2.092692243973e+01       5.693825033185e-06 
       2.634543445002e+01       3.057191384471e-06 
       3.316693691389e+01       1.628761731102e-06 
       4.175469971226e+01       8.578370538839e-07 
       5.256605252960e+01       4.432764274607e-07 
       6.617673932723e+01       2.212945781007e-07 
