# Matter power spectrum P(k) at redshift z=99
# for k=1.04775e-05 to 66.1767 h/Mpc,
# number of wavenumbers equal to 130
#    1:k (h/Mpc)              2:P (Mpc/h)^3        
       1.047750691046e-05       7.261927680867e-03 
       1.319039970183e-05       9.069258201856e-03 
       1.660572937635e-05       1.132639106726e-02 
       2.090537469327e-05       1.414527123400e-02 
       2.631830744443e-05       1.766569584059e-02 
       3.313278603720e-05       2.206225515944e-02 
       4.171170630578e-05       2.755297766279e-02 
       5.251192703764e-05       3.441013522950e-02 
       6.610859936996e-05       4.297372172781e-02 
       8.322579568497e-05       5.366826852948e-02 
       1.047750691046e-04       6.702379872780e-02 
       1.319039970183e-04       8.370193441292e-02 
       1.660572937635e-04       1.045283355385e-01 
       2.090537469327e-04       1.305329134105e-01 
       2.631830744443e-04       1.629994506607e-01 
       3.313278603720e-04       2.035264004603e-01 
       4.171170630578e-04       2.541004744245e-01 
       5.251192703764e-04       3.171839528560e-01 
       6.610859936996e-04       3.958147256516e-01 
       8.322579568497e-04       4.937136006280e-01 
       1.047750691046e-03       6.153841636043e-01 
       1.319039970183e-03       7.661720592810e-01 
       1.660572937635e-03       9.522588016419e-01 
       2.090537469327e-03       1.180312991698e+00 
       2.631830744443e-03       1.456802684683e+00 
       3.313278603720e-03       1.786503854033e+00 
       4.171170630578e-03       2.169896193803e+00 
       5.251192703764e-03       2.599430630687e+00 
       6.610859936996e-03       3.055668697108e+00 
       8.322579568497e-03       3.505725068752e+00 
       1.047750691046e-02       3.905491038257e+00 
       1.319039970183e-02       4.200915242178e+00 
       1.660572937633e-02       4.325061034841e+00 
       2.090537453514e-02       4.210201974337e+00 
       2.631818545635e-02       3.825149091018e+00 
       3.311571692125e-02       3.229057612394e+00 
       4.113809243311e-02       2.627729037893e+00 
       4.792590854610e-02       2.280796034844e+00 
       5.284436902701e-02       2.110087973726e+00 
       5.689644391095e-02       2.003538045520e+00 
       6.051252627066e-02       1.923058767092e+00 
       6.388413457411e-02       1.852729531602e+00 
       6.711249296401e-02       1.784564492957e+00 
       7.025823437965e-02       1.714278822710e+00 
       7.336115587705e-02       1.639812816430e+00 
       7.644928796912e-02       1.560663209294e+00 
       7.954353299775e-02       1.477457522752e+00 
       8.266024078725e-02       1.391696658927e+00 
       8.581273398637e-02       1.305461959214e+00 
       8.901225918437e-02       1.221127286685e+00 
       9.226860540985e-02       1.141078058499e+00 
       9.559052048996e-02       1.067451806827e+00 
       9.898599946599e-02       1.001890739195e+00 
       1.024624891378e-01       9.453795369218e-01 
       1.060270359164e-01       8.981488461691e-01 
       1.096863943056e-01       8.596137463122e-01 
       1.134471073830e-01       8.284056971198e-01 
       1.173155669539e-01       8.024648416513e-01 
       1.212980586983e-01       7.792308462642e-01 
       1.254007961065e-01       7.559166840975e-01 
       1.296299459934e-01       7.299827795203e-01 
       1.339916477160e-01       6.995925454967e-01 
       1.384920277736e-01       6.640787710513e-01 
       1.431372111762e-01       6.241470101344e-01 
       1.479333307714e-01       5.817660637345e-01 
       1.528865355934e-01       5.396893077557e-01 
       1.580029992204e-01       5.008124896886e-01 
       1.632889290723e-01       4.673993195185e-01 
       1.687505775527e-01       4.405341535263e-01 
       1.743942559171e-01       4.198656384422e-01 
       1.802263517371e-01       4.036598643525e-01 
       1.862533508214e-01       3.893624889100e-01 
       1.924818644494e-01       3.741388368338e-01 
       1.989186627765e-01       3.558054704508e-01 
       2.055707152847e-01       3.340032380528e-01 
       2.124452391818e-01       3.102660004647e-01 
       2.195497567139e-01       2.871219664166e-01 
       2.268921624510e-01       2.668072482159e-01 
       2.344808017550e-01       2.504831701982e-01 
       2.423245618548e-01       2.378336460957e-01 
       2.504329772620e-01       2.271114466620e-01 
       2.588163516754e-01       2.161195423511e-01 
       2.674858990930e-01       2.035474549671e-01 
       2.764539076010e-01       1.895973068847e-01 
       2.857339303080e-01       1.757570633937e-01 
       2.953410092148e-01       1.636991120153e-01 
       3.052919395542e-01       1.539065175603e-01 
       3.156055844677e-01       1.455310157429e-01 
       3.263032530092e-01       1.372502753205e-01 
       3.374091587054e-01       1.283018812990e-01 
       3.489509817175e-01       1.191710655865e-01 
       3.609605657343e-01       1.108073979307e-01 
       3.734747921333e-01       1.036451084043e-01 
       3.865366902904e-01       9.714135749289e-02 
       4.001968667448e-01       9.061569193474e-02 
       4.145153713076e-01       8.403708758778e-02 
       4.295641718077e-01       7.789108342530e-02 
       4.454304922144e-01       7.234157501134e-02 
       4.622214006969e-01       6.709368188852e-02 
       4.800702491654e-01       6.189187558299e-02 
       4.991459272112e-01       5.692631383669e-02 
       5.196665217302e-01       5.231596104242e-02 
       5.419201087032e-01       4.783250849094e-02 
       5.662975451962e-01       4.348702836160e-02 
       5.933463737275e-01       3.933095844750e-02 
       6.238638458458e-01       3.525341727170e-02 
       6.590669257916e-01       3.126284237945e-02 
       7.009246080454e-01       2.728727300289e-02 
       7.528593308799e-01       2.327839607498e-02 
       8.213469537518e-01       1.914820798786e-02 
       9.196980813302e-01       1.481697121515e-02 
       1.075112183810e+00       1.035082259787e-02 
       1.322697471132e+00       6.379405504491e-03 
       1.662328205042e+00       3.705601735746e-03 
       2.092692408506e+00       2.124479076279e-03 
       2.634543445090e+00       1.207896374500e-03 
       3.316693691389e+00       6.816476885946e-04 
       4.175469971226e+00       3.820603881767e-04 
       5.256605252960e+00       2.128129006306e-04 
       6.617673932723e+00       1.178641962340e-04 
       8.331157880872e+00       6.493185948281e-05 
       1.048830636590e+01       3.559308838613e-05 
       1.320399541071e+01       1.941701870182e-05 
       1.662284535976e+01       1.054168604667e-05 
       2.092692243973e+01       5.694063494976e-06 
       2.634543445002e+01       3.057355206150e-06 
       3.316693691389e+01       1.628974233831e-06 
       4.175469971226e+01       8.580415626329e-07 
       5.256605252960e+01       4.434861096955e-07 
       6.617673932723e+01       2.215064489737e-07 
