# Matter power spectrum P(k) at redshift z=0
# for k=1.04775e-05 to 66.1767 h/Mpc,
# number of wavenumbers equal to 130
#    1:k (h/Mpc)              2:P (Mpc/h)^3        
       1.047750691046e-05       5.020964811313e+01 
       1.319039970183e-05       6.270562594782e+01 
       1.660572937635e-05       7.831147247912e+01 
       2.090537469327e-05       9.780108069295e+01 
       2.631830744443e-05       1.221408203809e+02 
       3.313278603720e-05       1.525374501932e+02 
       4.171170630578e-05       1.904975994010e+02 
       5.251192703764e-05       2.379022224249e+02 
       6.610859936996e-05       2.970989227881e+02 
       8.322579568497e-05       3.710167318945e+02 
       1.047750691046e-04       4.633080766742e+02 
       1.319039970183e-04       5.785234129341e+02 
       1.660572937635e-04       7.223242666091e+02 
       2.090537469327e-04       9.017396271822e+02 
       2.631830744443e-04       1.125468123749e+03 
       3.313278603720e-04       1.404223053680e+03 
       4.171170630578e-04       1.751108028789e+03 
       5.251192703764e-04       2.181998448130e+03 
       6.610859936996e-04       2.715889983586e+03 
       8.322579568497e-04       3.375152337121e+03 
       1.047750691046e-03       4.185552174279e+03 
       1.319039970183e-03       5.175742739261e+03 
       1.660572937635e-03       6.376123051708e+03 
       2.090537469327e-03       7.815671864920e+03 
       2.631830744443e-03       9.517783068667e+03 
       3.313278603720e-03       1.149357460254e+04 
       4.171170630578e-03       1.373266009773e+04 
       5.251192703764e-03       1.619063566168e+04 
       6.610859936996e-03       1.877460424829e+04 
       8.322579568497e-03       2.132611364461e+04 
       1.047750691046e-02       2.360548588573e+04 
       1.319039970183e-02       2.528219819713e+04 
       1.660572937633e-02       2.595034923436e+04 
       2.090537453514e-02       2.520930502856e+04 
       2.631818545635e-02       2.287026061238e+04 
       3.311571692125e-02       1.928618553591e+04 
       4.113809243311e-02       1.568422987486e+04 
       4.792590854610e-02       1.361055093037e+04 
       5.284436902701e-02       1.259120877600e+04 
       5.689644391095e-02       1.195551134236e+04 
       6.051252627066e-02       1.147546100550e+04 
       6.388413457411e-02       1.105567351283e+04 
       6.711249296401e-02       1.064887271542e+04 
       7.025823437965e-02       1.022930029131e+04 
       7.336115587705e-02       9.784565642477e+03 
       7.644928796912e-02       9.311695877585e+03 
       7.954353299775e-02       8.814553310914e+03 
       8.266024078725e-02       8.302156750573e+03 
       8.581273398637e-02       7.786948813984e+03 
       8.901225918437e-02       7.283207357026e+03 
       9.226860540985e-02       6.805221569281e+03 
       9.559052048996e-02       6.365618883808e+03 
       9.898599946599e-02       5.974382713274e+03 
       1.024624891378e-01       5.637328703509e+03 
       1.060270359164e-01       5.355761029765e+03 
       1.096863943056e-01       5.126230520406e+03 
       1.134471073830e-01       4.940489833413e+03 
       1.173155669539e-01       4.786153696801e+03 
       1.212980586983e-01       4.647922184231e+03 
       1.254007961065e-01       4.509050821603e+03 
       1.296299459934e-01       4.354543964784e+03 
       1.339916477160e-01       4.173138985245e+03 
       1.384920277736e-01       3.961171351137e+03 
       1.431372111762e-01       3.722584099989e+03 
       1.479333307714e-01       3.469549440280e+03 
       1.528865355934e-01       3.218317135428e+03 
       1.580029992204e-01       2.986239362398e+03 
       1.632889290723e-01       2.786943298642e+03 
       1.687505775527e-01       2.626807102722e+03 
       1.743942559171e-01       2.503750499714e+03 
       1.802263517371e-01       2.407300132050e+03 
       1.862533508214e-01       2.322254746267e+03 
       1.924818644494e-01       2.231570944291e+03 
       1.989186627765e-01       2.122205071262e+03 
       2.055707152847e-01       1.992035831375e+03 
       2.124452391818e-01       1.850299297690e+03 
       2.195497567139e-01       1.712153226145e+03 
       2.268921624510e-01       1.590962309122e+03 
       2.344808017550e-01       1.493653915949e+03 
       2.423245618548e-01       1.418299785461e+03 
       2.504329772620e-01       1.354440001462e+03 
       2.588163516754e-01       1.288928485446e+03 
       2.674858990930e-01       1.213903763710e+03 
       2.764539076010e-01       1.130677433508e+03 
       2.857339303080e-01       1.048082521554e+03 
       2.953410092148e-01       9.761685722368e+02 
       3.052919395542e-01       9.177991233399e+02 
       3.156055844677e-01       8.678816712207e+02 
       3.263032530092e-01       8.185204293696e+02 
       3.374091587054e-01       7.651446165295e+02 
       3.489509817175e-01       7.106541954738e+02 
       3.609605657343e-01       6.607711898443e+02 
       3.734747921333e-01       6.180752192210e+02 
       3.865366902904e-01       5.792956294556e+02 
       4.001968667448e-01       5.403772084823e+02 
       4.145153713076e-01       5.011385022956e+02 
       4.295641718077e-01       4.644903280102e+02 
       4.454304922144e-01       4.313966632876e+02 
       4.622214006969e-01       4.001035389043e+02 
       4.800702491654e-01       3.690787410185e+02 
       4.991459272112e-01       3.394649664334e+02 
       5.196665217302e-01       3.119762624623e+02 
       5.419201087032e-01       2.852375867047e+02 
       5.662975451962e-01       2.593208814967e+02 
       5.933463737275e-01       2.345387416653e+02 
       6.238638458458e-01       2.102235674515e+02 
       6.590669257916e-01       1.864265044383e+02 
       7.009246080454e-01       1.627188021820e+02 
       7.528593308799e-01       1.388119377398e+02 
       8.213469537518e-01       1.141820131752e+02 
       9.196980813302e-01       8.835252594350e+01 
       1.075112183810e+00       6.171964247454e+01 
       1.322697471132e+00       3.803620996783e+01 
       1.662328205042e+00       2.209172802721e+01 
       2.092692408506e+00       1.266303077675e+01 
       2.634543445090e+00       7.197271782704e+00 
       3.316693691389e+00       4.059307612999e+00 
       4.175469971226e+00       2.272994686412e+00 
       5.256605252960e+00       1.263988141092e+00 
       6.617673932723e+00       6.980409868555e-01 
       8.331157880872e+00       3.826789040708e-01 
       1.048830636590e+01       2.080198938955e-01 
       1.320399541071e+01       1.118589427633e-01 
       1.662284535976e+01       5.923795568400e-02 
       2.092692243973e+01       3.064417035589e-02 
       2.634543445002e+01       1.525082781290e-02 
       3.316693691389e+01       7.096240119069e-03 
       4.175469971226e+01       2.919340284965e-03 
       5.256605252960e+01       9.451649538288e-04 
       6.617673932723e+01       1.816037490335e-04 
