# Matter power spectrum P(k) at redshift z=99
# for k=1.04775e-05 to 66.1767 h/Mpc,
# number of wavenumbers equal to 130
#    1:k (h/Mpc)              2:P (Mpc/h)^3        
       1.047750691046e-05       7.261927680862e-03 
       1.319039970183e-05       9.069258201849e-03 
       1.660572937635e-05       1.132639106725e-02 
       2.090537469327e-05       1.414527123399e-02 
       2.631830744443e-05       1.766569584058e-02 
       3.313278603720e-05       2.206225515942e-02 
       4.171170630578e-05       2.755297766277e-02 
       5.251192703764e-05       3.441013522947e-02 
       6.610859936996e-05       4.297372172778e-02 
       8.322579568497e-05       5.366826852944e-02 
       1.047750691046e-04       6.702379872775e-02 
       1.319039970183e-04       8.370193441287e-02 
       1.660572937635e-04       1.045283355384e-01 
       2.090537469327e-04       1.305329134104e-01 
       2.631830744443e-04       1.629994506605e-01 
       3.313278603720e-04       2.035264004601e-01 
       4.171170630578e-04       2.541004744243e-01 
       5.251192703764e-04       3.171839528557e-01 
       6.610859936996e-04       3.958147256513e-01 
       8.322579568497e-04       4.937136006278e-01 
       1.047750691046e-03       6.153841636042e-01 
       1.319039970183e-03       7.661720592927e-01 
       1.660572937635e-03       9.522588016472e-01 
       2.090537469327e-03       1.180312991698e+00 
       2.631830744443e-03       1.456802684686e+00 
       3.313278603720e-03       1.786503854039e+00 
       4.171170630578e-03       2.169896195146e+00 
       5.251192703764e-03       2.599430630720e+00 
       6.610859936996e-03       3.055668730255e+00 
       8.322579568497e-03       3.505725598505e+00 
       1.047750691046e-02       3.905491547732e+00 
       1.319039970183e-02       4.200915418058e+00 
       1.660572937633e-02       4.325055343990e+00 
       2.090537453514e-02       4.210201372398e+00 
       2.631818545635e-02       3.825151459187e+00 
       3.311571692125e-02       3.229066008760e+00 
       4.113809243311e-02       2.627740626568e+00 
       4.792590854610e-02       2.280799323908e+00 
       5.284436902701e-02       2.110087806470e+00 
       5.689644391095e-02       2.003537393731e+00 
       6.051252627066e-02       1.923056516075e+00 
       6.388413457411e-02       1.852733978238e+00 
       6.711249296401e-02       1.784563092449e+00 
       7.025823437965e-02       1.714275448280e+00 
       7.336115587705e-02       1.639815426210e+00 
       7.644928796912e-02       1.560662268185e+00 
       7.954353299775e-02       1.477457015449e+00 
       8.266024078725e-02       1.391690769122e+00 
       8.581273398637e-02       1.305462033993e+00 
       8.901225918437e-02       1.221127962771e+00 
       9.226860540985e-02       1.141078972748e+00 
       9.559052048996e-02       1.067454296540e+00 
       9.898599946599e-02       1.001888440633e+00 
       1.024624891378e-01       9.453815979230e-01 
       1.060270359164e-01       8.981493217884e-01 
       1.096863943056e-01       8.596138914292e-01 
       1.134471073830e-01       8.284065152288e-01 
       1.173155669539e-01       8.024667572100e-01 
       1.212980586983e-01       7.792304007759e-01 
       1.254007961065e-01       7.559172400601e-01 
       1.296299459934e-01       7.299823398995e-01 
       1.339916477160e-01       6.995928083809e-01 
       1.384920277736e-01       6.640780611854e-01 
       1.431372111762e-01       6.241458786008e-01 
       1.479333307714e-01       5.817631020401e-01 
       1.528865355934e-01       5.396943166306e-01 
       1.580029992204e-01       5.008145975595e-01 
       1.632889290723e-01       4.673991566608e-01 
       1.687505775527e-01       4.405336616447e-01 
       1.743942559171e-01       4.198650768609e-01 
       1.802263517371e-01       4.036594693105e-01 
       1.862533508214e-01       3.893590934183e-01 
       1.924818644494e-01       3.741354163088e-01 
       1.989186627765e-01       3.558017286164e-01 
       2.055707152847e-01       3.340003265852e-01 
       2.124452391818e-01       3.102669072430e-01 
       2.195497567139e-01       2.871221616722e-01 
       2.268921624510e-01       2.668085234102e-01 
       2.344808017550e-01       2.504834832343e-01 
       2.423245618548e-01       2.378333746397e-01 
       2.504329772620e-01       2.271117120418e-01 
       2.588163516754e-01       2.161178372572e-01 
       2.674858990930e-01       2.035458514681e-01 
       2.764539076010e-01       1.895977450250e-01 
       2.857339303080e-01       1.757571281537e-01 
       2.953410092148e-01       1.636992480652e-01 
       3.052919395542e-01       1.539059701502e-01 
       3.156055844677e-01       1.455304947689e-01 
       3.263032530092e-01       1.372506953946e-01 
       3.374091587054e-01       1.283023937252e-01 
       3.489509817175e-01       1.191712530547e-01 
       3.609605657343e-01       1.108071211409e-01 
       3.734747921333e-01       1.036449783757e-01 
       3.865366902904e-01       9.714136910180e-02 
       4.001968667448e-01       9.061560187809e-02 
       4.145153713076e-01       8.403704881588e-02 
       4.295641718077e-01       7.789123482685e-02 
       4.454304922144e-01       7.234174014088e-02 
       4.622214006969e-01       6.709372958355e-02 
       4.800702491654e-01       6.189192789772e-02 
       4.991459272112e-01       5.692621138453e-02 
       5.196665217302e-01       5.231617764368e-02 
       5.419201087032e-01       4.783262191024e-02 
       5.662975451962e-01       4.348682302466e-02 
       5.933463737275e-01       3.933110846325e-02 
       6.238638458458e-01       3.525332524356e-02 
       6.590669257916e-01       3.126291740624e-02 
       7.009246080454e-01       2.728737222105e-02 
       7.528593308799e-01       2.327850144842e-02 
       8.213469537518e-01       1.914825385236e-02 
       9.196980813302e-01       1.481704666549e-02 
       1.075112183810e+00       1.035095064877e-02 
       1.322697471132e+00       6.379462211826e-03 
       1.662328205042e+00       3.705664642452e-03 
       2.092692408506e+00       2.124536572997e-03 
       2.634543445090e+00       1.207957854590e-03 
       3.316693691389e+00       6.817061641257e-04 
       4.175469971226e+00       3.821190740528e-04 
       5.256605252960e+00       2.128703693794e-04 
       6.617673932723e+00       1.179186536588e-04 
       8.331157880872e+00       6.498337420796e-05 
       1.048830636590e+01       3.564124421095e-05 
       1.320399541071e+01       1.946223497012e-05 
       1.662284535976e+01       1.058405597522e-05 
       2.092692243973e+01       5.733589336462e-06 
       2.634543445002e+01       3.094499038104e-06 
       3.316693691389e+01       1.663921301463e-06 
       4.175469971226e+01       8.911082119943e-07 
       5.256605252960e+01       4.749305818014e-07 
       6.617673932723e+01       2.513973959710e-07 
