# Matter power spectrum P(k) at redshift z=99
# for k=1.04775e-05 to 66.1767 h/Mpc,
# number of wavenumbers equal to 130
#    1:k (h/Mpc)              2:P (Mpc/h)^3        
       1.047750691046e-05       7.261927680878e-03 
       1.319039970183e-05       9.069258201869e-03 
       1.660572937635e-05       1.132639106728e-02 
       2.090537469327e-05       1.414527123402e-02 
       2.631830744443e-05       1.766569584062e-02 
       3.313278603720e-05       2.206225515947e-02 
       4.171170630578e-05       2.755297766283e-02 
       5.251192703764e-05       3.441013522955e-02 
       6.610859936996e-05       4.297372172787e-02 
       8.322579568497e-05       5.366826852956e-02 
       1.047750691046e-04       6.702379872790e-02 
       1.319039970183e-04       8.370193441305e-02 
       1.660572937635e-04       1.045283355386e-01 
       2.090537469327e-04       1.305329134107e-01 
       2.631830744443e-04       1.629994506609e-01 
       3.313278603720e-04       2.035264004606e-01 
       4.171170630578e-04       2.541004744248e-01 
       5.251192703764e-04       3.171839528564e-01 
       6.610859936996e-04       3.958147256521e-01 
       8.322579568497e-04       4.937136006281e-01 
       1.047750691046e-03       6.153841636051e-01 
       1.319039970183e-03       7.661720592551e-01 
       1.660572937635e-03       9.522588016458e-01 
       2.090537469327e-03       1.180312991697e+00 
       2.631830744443e-03       1.456802684677e+00 
       3.313278603720e-03       1.786503854019e+00 
       4.171170630578e-03       2.169896191404e+00 
       5.251192703764e-03       2.599430630625e+00 
       6.610859936996e-03       3.055668600554e+00 
       8.322579568497e-03       3.505725113266e+00 
       1.047750691046e-02       3.905491385487e+00 
       1.319039970183e-02       4.200915201758e+00 
       1.660572937633e-02       4.325060174335e+00 
       2.090537453514e-02       4.210201478354e+00 
       2.631818545635e-02       3.825150442692e+00 
       3.311571692125e-02       3.229060139630e+00 
       4.113809243311e-02       2.627735721504e+00 
       4.792590854610e-02       2.280796697755e+00 
       5.284436902701e-02       2.110086511202e+00 
       5.689644391095e-02       2.003537138526e+00 
       6.051252627066e-02       1.923052911426e+00 
       6.388413457411e-02       1.852733470626e+00 
       6.711249296401e-02       1.784564327162e+00 
       7.025823437965e-02       1.714277239828e+00 
       7.336115587705e-02       1.639818141163e+00 
       7.644928796912e-02       1.560659709543e+00 
       7.954353299775e-02       1.477453695723e+00 
       8.266024078725e-02       1.391697190577e+00 
       8.581273398637e-02       1.305460599195e+00 
       8.901225918437e-02       1.221129078769e+00 
       9.226860540985e-02       1.141081549434e+00 
       9.559052048996e-02       1.067454761238e+00 
       9.898599946599e-02       1.001892060552e+00 
       1.024624891378e-01       9.453799260360e-01 
       1.060270359164e-01       8.981491411738e-01 
       1.096863943056e-01       8.596113499719e-01 
       1.134471073830e-01       8.284052194856e-01 
       1.173155669539e-01       8.024653737647e-01 
       1.212980586983e-01       7.792294927997e-01 
       1.254007961065e-01       7.559194311319e-01 
       1.296299459934e-01       7.299833981043e-01 
       1.339916477160e-01       6.995942371441e-01 
       1.384920277736e-01       6.640794737168e-01 
       1.431372111762e-01       6.241470234944e-01 
       1.479333307714e-01       5.817645343810e-01 
       1.528865355934e-01       5.396904484085e-01 
       1.580029992204e-01       5.008138978805e-01 
       1.632889290723e-01       4.673986123765e-01 
       1.687505775527e-01       4.405340810172e-01 
       1.743942559171e-01       4.198664265870e-01 
       1.802263517371e-01       4.036594191992e-01 
       1.862533508214e-01       3.893629358509e-01 
       1.924818644494e-01       3.741400454692e-01 
       1.989186627765e-01       3.558072082105e-01 
       2.055707152847e-01       3.340030609368e-01 
       2.124452391818e-01       3.102650971609e-01 
       2.195497567139e-01       2.871222196857e-01 
       2.268921624510e-01       2.668080698715e-01 
       2.344808017550e-01       2.504836630627e-01 
       2.423245618548e-01       2.378333030634e-01 
       2.504329772620e-01       2.271120093133e-01 
       2.588163516754e-01       2.161195319108e-01 
       2.674858990930e-01       2.035478106179e-01 
       2.764539076010e-01       1.895970487188e-01 
       2.857339303080e-01       1.757565647495e-01 
       2.953410092148e-01       1.636993159570e-01 
       3.052919395542e-01       1.539061083883e-01 
       3.156055844677e-01       1.455307868879e-01 
       3.263032530092e-01       1.372502922074e-01 
       3.374091587054e-01       1.283014262243e-01 
       3.489509817175e-01       1.191713052417e-01 
       3.609605657343e-01       1.108067782509e-01 
       3.734747921333e-01       1.036447640942e-01 
       3.865366902904e-01       9.714151251604e-02 
       4.001968667448e-01       9.061544384473e-02 
       4.145153713076e-01       8.403703717345e-02 
       4.295641718077e-01       7.789098347209e-02 
       4.454304922144e-01       7.234142734045e-02 
       4.622214006969e-01       6.709351248499e-02 
       4.800702491654e-01       6.189161436874e-02 
       4.991459272112e-01       5.692606375376e-02 
       5.196665217302e-01       5.231593639939e-02 
       5.419201087032e-01       4.783248448514e-02 
       5.662975451962e-01       4.348674005868e-02 
       5.933463737275e-01       3.933099121154e-02 
       6.238638458458e-01       3.525316625018e-02 
       6.590669257916e-01       3.126265861041e-02 
       7.009246080454e-01       2.728721045453e-02 
       7.528593308799e-01       2.327823159180e-02 
       8.213469537518e-01       1.914808604160e-02 
       9.196980813302e-01       1.481678744789e-02 
       1.075112183810e+00       1.035069086064e-02 
       1.322697471132e+00       6.379274602310e-03 
       1.662328205042e+00       3.705467709784e-03 
       2.092692408506e+00       2.124355769116e-03 
       2.634543445090e+00       1.207772249207e-03 
       3.316693691389e+00       6.815300857474e-04 
       4.175469971226e+00       3.819459234887e-04 
       5.256605252960e+00       2.127056255226e-04 
       6.617673932723e+00       1.177628029751e-04 
       8.331157880872e+00       6.483657718696e-05 
       1.048830636590e+01       3.550465979587e-05 
       1.320399541071e+01       1.933558057312e-05 
       1.662284535976e+01       1.046762082749e-05 
       2.092692243973e+01       5.627386059736e-06 
       2.634543445002e+01       2.998309748077e-06 
       3.316693691389e+01       1.577695237666e-06 
       4.175469971226e+01       8.147895267113e-07 
       5.256605252960e+01       4.085653026798e-07 
       6.617673932723e+01       1.951934010354e-07 
