# Matter power spectrum P(k) at redshift z=0
# for k=1.04775e-05 to 66.1767 h/Mpc,
# number of wavenumbers equal to 130
#    1:k (h/Mpc)              2:P (Mpc/h)^3        
       1.047750691046e-05       5.020964811307e+01 
       1.319039970183e-05       6.270562594782e+01 
       1.660572937635e-05       7.831147247912e+01 
       2.090537469327e-05       9.780108069296e+01 
       2.631830744443e-05       1.221408203809e+02 
       3.313278603720e-05       1.525374501932e+02 
       4.171170630578e-05       1.904975994010e+02 
       5.251192703764e-05       2.379022224249e+02 
       6.610859936996e-05       2.970989227881e+02 
       8.322579568497e-05       3.710167318946e+02 
       1.047750691046e-04       4.633080766742e+02 
       1.319039970183e-04       5.785234129340e+02 
       1.660572937635e-04       7.223242666092e+02 
       2.090537469327e-04       9.017396271824e+02 
       2.631830744443e-04       1.125468123750e+03 
       3.313278603720e-04       1.404223053681e+03 
       4.171170630578e-04       1.751108028790e+03 
       5.251192703764e-04       2.181998448133e+03 
       6.610859936996e-04       2.715889983592e+03 
       8.322579568497e-04       3.375152337134e+03 
       1.047750691046e-03       4.185552174308e+03 
       1.319039970183e-03       5.175742739664e+03 
       1.660572937635e-03       6.376123051777e+03 
       2.090537469327e-03       7.815671914946e+03 
       2.631830744443e-03       9.517783069112e+03 
       3.313278603720e-03       1.149357460345e+04 
       4.171170630578e-03       1.373266011852e+04 
       5.251192703764e-03       1.619063614560e+04 
       6.610859936996e-03       1.877460422046e+04 
       8.322579568497e-03       2.132607231866e+04 
       1.047750691046e-02       2.360547292210e+04 
       1.319039970183e-02       2.528218648076e+04 
       1.660572937633e-02       2.595027049969e+04 
       2.090537453514e-02       2.520933353431e+04 
       2.631818545635e-02       2.287033274856e+04 
       3.311571692125e-02       1.928622739339e+04 
       4.113809243311e-02       1.568426837439e+04 
       4.792590854610e-02       1.361062905617e+04 
       5.284436902701e-02       1.259132836793e+04 
       5.689644391095e-02       1.195554635478e+04 
       6.051252627066e-02       1.147548151605e+04 
       6.388413457411e-02       1.105590173030e+04 
       6.711249296401e-02       1.064898964597e+04 
       7.025823437965e-02       1.022928205504e+04 
       7.336115587705e-02       9.784522823604e+03 
       7.644928796912e-02       9.311658238334e+03 
       7.954353299775e-02       8.814525114148e+03 
       8.266024078725e-02       8.302126626496e+03 
       8.581273398637e-02       7.786955703437e+03 
       8.901225918437e-02       7.283171592774e+03 
       9.226860540985e-02       6.805150466277e+03 
       9.559052048996e-02       6.365635207223e+03 
       9.898599946599e-02       5.974407382368e+03 
       1.024624891378e-01       5.637317149138e+03 
       1.060270359164e-01       5.355780643928e+03 
       1.096863943056e-01       5.126246832946e+03 
       1.134471073830e-01       4.940476356204e+03 
       1.173155669539e-01       4.786166651630e+03 
       1.212980586983e-01       4.647934184392e+03 
       1.254007961065e-01       4.509148232917e+03 
       1.296299459934e-01       4.354562074146e+03 
       1.339916477160e-01       4.173214533652e+03 
       1.384920277736e-01       3.961168331146e+03 
       1.431372111762e-01       3.722686399766e+03 
       1.479333307714e-01       3.469545933413e+03 
       1.528865355934e-01       3.218342238826e+03 
       1.580029992204e-01       2.986295286494e+03 
       1.632889290723e-01       2.786968055424e+03 
       1.687505775527e-01       2.626827815114e+03 
       1.743942559171e-01       2.503758576193e+03 
       1.802263517371e-01       2.407344329174e+03 
       1.862533508214e-01       2.322255053298e+03 
       1.924818644494e-01       2.231556917096e+03 
       1.989186627765e-01       2.122187900524e+03 
       2.055707152847e-01       1.992024765468e+03 
       2.124452391818e-01       1.850325478432e+03 
       2.195497567139e-01       1.712184586281e+03 
       2.268921624510e-01       1.590989947138e+03 
       2.344808017550e-01       1.493666133388e+03 
       2.423245618548e-01       1.418311905652e+03 
       2.504329772620e-01       1.354465164591e+03 
       2.588163516754e-01       1.288935421591e+03 
       2.674858990930e-01       1.213938710786e+03 
       2.764539076010e-01       1.130695139210e+03 
       2.857339303080e-01       1.048101154048e+03 
       2.953410092148e-01       9.761857419283e+02 
       3.052919395542e-01       9.178092498678e+02 
       3.156055844677e-01       8.679003796717e+02 
       3.263032530092e-01       8.185261678651e+02 
       3.374091587054e-01       7.651471747920e+02 
       3.489509817175e-01       7.106705160595e+02 
       3.609605657343e-01       6.607845696492e+02 
       3.734747921333e-01       6.180868680547e+02 
       3.865366902904e-01       5.793110231573e+02 
       4.001968667448e-01       5.403922756880e+02 
       4.145153713076e-01       5.011525250700e+02 
       4.295641718077e-01       4.644992438549e+02 
       4.454304922144e-01       4.314092644478e+02 
       4.622214006969e-01       4.001140124898e+02 
       4.800702491654e-01       3.690895289543e+02 
       4.991459272112e-01       3.394770866155e+02 
       5.196665217302e-01       3.119863577734e+02 
       5.419201087032e-01       2.852471051444e+02 
       5.662975451962e-01       2.593306443610e+02 
       5.933463737275e-01       2.345481857248e+02 
       6.238638458458e-01       2.102308683968e+02 
       6.590669257916e-01       1.864333025678e+02 
       7.009246080454e-01       1.627246516438e+02 
       7.528593308799e-01       1.388187035730e+02 
       8.213469537518e-01       1.141880940960e+02 
       9.196980813302e-01       8.835919842711e+01 
       1.075112183810e+00       6.172611385787e+01 
       1.322697471132e+00       3.804286763701e+01 
       1.662328205042e+00       2.209805608836e+01 
       2.092692408506e+00       1.266925445581e+01 
       2.634543445090e+00       7.203370025135e+00 
       3.316693691389e+00       4.065168081516e+00 
       4.175469971226e+00       2.278618685384e+00 
       5.256605252960e+00       1.269352508593e+00 
       6.617673932723e+00       7.031318244545e-01 
       8.331157880872e+00       3.874775520695e-01 
       1.048830636590e+01       2.125109133637e-01 
       1.320399541071e+01       1.160353768454e-01 
       1.662284535976e+01       6.309864822815e-02 
       2.092692243973e+01       3.418011785905e-02 
       2.634543445002e+01       1.844608636016e-02 
       3.316693691389e+01       9.919243113687e-03 
       4.175469971226e+01       5.314635189135e-03 
       5.256605252960e+01       2.836694246320e-03 
       6.617673932723e+01       1.507701732467e-03 
