# Matter power spectrum P(k) at redshift z=0
# for k=1.04775e-05 to 66.1767 h/Mpc,
# number of wavenumbers equal to 130
#    1:k (h/Mpc)              2:P (Mpc/h)^3        
       1.047750691046e-05       5.020964811307e+01 
       1.319039970183e-05       6.270562594784e+01 
       1.660572937635e-05       7.831147247912e+01 
       2.090537469327e-05       9.780108069294e+01 
       2.631830744443e-05       1.221408203809e+02 
       3.313278603720e-05       1.525374501932e+02 
       4.171170630578e-05       1.904975994010e+02 
       5.251192703764e-05       2.379022224249e+02 
       6.610859936996e-05       2.970989227880e+02 
       8.322579568497e-05       3.710167318946e+02 
       1.047750691046e-04       4.633080766742e+02 
       1.319039970183e-04       5.785234129334e+02 
       1.660572937635e-04       7.223242666092e+02 
       2.090537469327e-04       9.017396271824e+02 
       2.631830744443e-04       1.125468123750e+03 
       3.313278603720e-04       1.404223053681e+03 
       4.171170630578e-04       1.751108028790e+03 
       5.251192703764e-04       2.181998448133e+03 
       6.610859936996e-04       2.715889983592e+03 
       8.322579568497e-04       3.375152337134e+03 
       1.047750691046e-03       4.185552174303e+03 
       1.319039970183e-03       5.175742742827e+03 
       1.660572937635e-03       6.376123051776e+03 
       2.090537469327e-03       7.815671904344e+03 
       2.631830744443e-03       9.517783069107e+03 
       3.313278603720e-03       1.149357460344e+04 
       4.171170630578e-03       1.373266011943e+04 
       5.251192703764e-03       1.619063613986e+04 
       6.610859936996e-03       1.877460413291e+04 
       8.322579568497e-03       2.132607236357e+04 
       1.047750691046e-02       2.360547583397e+04 
       1.319039970183e-02       2.528218919169e+04 
       1.660572937633e-02       2.595028834669e+04 
       2.090537453514e-02       2.520934889394e+04 
       2.631818545635e-02       2.287033293886e+04 
       3.311571692125e-02       1.928618885433e+04 
       4.113809243311e-02       1.568429233786e+04 
       4.792590854610e-02       1.361063421582e+04 
       5.284436902701e-02       1.259128369992e+04 
       5.689644391095e-02       1.195557542820e+04 
       6.051252627066e-02       1.147548884196e+04 
       6.388413457411e-02       1.105588466332e+04 
       6.711249296401e-02       1.064897956436e+04 
       7.025823437965e-02       1.022932405697e+04 
       7.336115587705e-02       9.784569273054e+03 
       7.644928796912e-02       9.311659982949e+03 
       7.954353299775e-02       8.814578468432e+03 
       8.266024078725e-02       8.302146858539e+03 
       8.581273398637e-02       7.786979562529e+03 
       8.901225918437e-02       7.283256718604e+03 
       9.226860540985e-02       6.805208838979e+03 
       9.559052048996e-02       6.365650995792e+03 
       9.898599946599e-02       5.974428359627e+03 
       1.024624891378e-01       5.637383137585e+03 
       1.060270359164e-01       5.355812629533e+03 
       1.096863943056e-01       5.126258790285e+03 
       1.134471073830e-01       4.940503960256e+03 
       1.173155669539e-01       4.786177451867e+03 
       1.212980586983e-01       4.647950340190e+03 
       1.254007961065e-01       4.509165181289e+03 
       1.296299459934e-01       4.354554670364e+03 
       1.339916477160e-01       4.173246641193e+03 
       1.384920277736e-01       3.961176919451e+03 
       1.431372111762e-01       3.722687115378e+03 
       1.479333307714e-01       3.469557333578e+03 
       1.528865355934e-01       3.218327928714e+03 
       1.580029992204e-01       2.986265723399e+03 
       1.632889290723e-01       2.786954706614e+03 
       1.687505775527e-01       2.626810247158e+03 
       1.743942559171e-01       2.503768675696e+03 
       1.802263517371e-01       2.407318316279e+03 
       1.862533508214e-01       2.322226484904e+03 
       1.924818644494e-01       2.231531878140e+03 
       1.989186627765e-01       2.122172307350e+03 
       2.055707152847e-01       1.992009353796e+03 
       2.124452391818e-01       1.850324349240e+03 
       2.195497567139e-01       1.712161308640e+03 
       2.268921624510e-01       1.590971203012e+03 
       2.344808017550e-01       1.493659231089e+03 
       2.423245618548e-01       1.418312669666e+03 
       2.504329772620e-01       1.354447624524e+03 
       2.588163516754e-01       1.288939145297e+03 
       2.674858990930e-01       1.213953312132e+03 
       2.764539076010e-01       1.130691245473e+03 
       2.857339303080e-01       1.048093936337e+03 
       2.953410092148e-01       9.761740297571e+02 
       3.052919395542e-01       9.178005521995e+02 
       3.156055844677e-01       8.678859874910e+02 
       3.263032530092e-01       8.185204023743e+02 
       3.374091587054e-01       7.651395606195e+02 
       3.489509817175e-01       7.106653176329e+02 
       3.609605657343e-01       6.607801468454e+02 
       3.734747921333e-01       6.180786276149e+02 
       3.865366902904e-01       5.793012580584e+02 
       4.001968667448e-01       5.403861793049e+02 
       4.145153713076e-01       5.011424085977e+02 
       4.295641718077e-01       4.644970561709e+02 
       4.454304922144e-01       4.314015103251e+02 
       4.622214006969e-01       4.001097298743e+02 
       4.800702491654e-01       3.690834583569e+02 
       4.991459272112e-01       3.394702377823e+02 
       5.196665217302e-01       3.119800245235e+02 
       5.419201087032e-01       2.852434790653e+02 
       5.662975451962e-01       2.593270675052e+02 
       5.933463737275e-01       2.345444618744e+02 
       6.238638458458e-01       2.102294249370e+02 
       6.590669257916e-01       1.864324331730e+02 
       7.009246080454e-01       1.627238882545e+02 
       7.528593308799e-01       1.388174619351e+02 
       8.213469537518e-01       1.141879418790e+02 
       9.196980813302e-01       8.835824626798e+01 
       1.075112183810e+00       6.172581949847e+01 
       1.322697471132e+00       3.804287811055e+01 
       1.662328205042e+00       2.209777431666e+01 
       2.092692408506e+00       1.266901378949e+01 
       2.634543445090e+00       7.203178386262e+00 
       3.316693691389e+00       4.065048706669e+00 
       4.175469971226e+00       2.278543876926e+00 
       5.256605252960e+00       1.269277321893e+00 
       6.617673932723e+00       7.030684936590e-01 
       8.331157880872e+00       3.874197075781e-01 
       1.048830636590e+01       2.124581343298e-01 
       1.320399541071e+01       1.159875096529e-01 
       1.662284535976e+01       6.305388328786e-02 
       2.092692243973e+01       3.413830959489e-02 
       2.634543445002e+01       1.840836803503e-02 
       3.316693691389e+01       9.884987596985e-03 
       4.175469971226e+01       5.283822632999e-03 
       5.256605252960e+01       2.809062662207e-03 
       6.617673932723e+01       1.483102740105e-03 
