# Matter power spectrum P(k) at redshift z=0
# for k=1.04775e-05 to 66.1767 h/Mpc,
# number of wavenumbers equal to 130
#    1:k (h/Mpc)              2:P (Mpc/h)^3        
       1.047750691046e-05       5.020964811312e+01 
       1.319039970183e-05       6.270562594785e+01 
       1.660572937635e-05       7.831147247911e+01 
       2.090537469327e-05       9.780108069295e+01 
       2.631830744443e-05       1.221408203809e+02 
       3.313278603720e-05       1.525374501932e+02 
       4.171170630578e-05       1.904975994009e+02 
       5.251192703764e-05       2.379022224249e+02 
       6.610859936996e-05       2.970989227882e+02 
       8.322579568497e-05       3.710167318946e+02 
       1.047750691046e-04       4.633080766742e+02 
       1.319039970183e-04       5.785234129338e+02 
       1.660572937635e-04       7.223242666092e+02 
       2.090537469327e-04       9.017396271824e+02 
       2.631830744443e-04       1.125468123750e+03 
       3.313278603720e-04       1.404223053681e+03 
       4.171170630578e-04       1.751108028790e+03 
       5.251192703764e-04       2.181998448133e+03 
       6.610859936996e-04       2.715889983592e+03 
       8.322579568497e-04       3.375152337134e+03 
       1.047750691046e-03       4.185552174306e+03 
       1.319039970183e-03       5.175742743112e+03 
       1.660572937635e-03       6.376123051776e+03 
       2.090537469327e-03       7.815671914620e+03 
       2.631830744443e-03       9.517783069112e+03 
       3.313278603720e-03       1.149357460342e+04 
       4.171170630578e-03       1.373266012330e+04 
       5.251192703764e-03       1.619063614560e+04 
       6.610859936996e-03       1.877460420343e+04 
       8.322579568497e-03       2.132606847371e+04 
       1.047750691046e-02       2.360549267616e+04 
       1.319039970183e-02       2.528218607234e+04 
       1.660572937633e-02       2.595027286256e+04 
       2.090537453514e-02       2.520936269946e+04 
       2.631818545635e-02       2.287034611981e+04 
       3.311571692125e-02       1.928628948422e+04 
       4.113809243311e-02       1.568431423012e+04 
       4.792590854610e-02       1.361060844571e+04 
       5.284436902701e-02       1.259129610158e+04 
       5.689644391095e-02       1.195556600902e+04 
       6.051252627066e-02       1.147548417000e+04 
       6.388413457411e-02       1.105589423205e+04 
       6.711249296401e-02       1.064900398898e+04 
       7.025823437965e-02       1.022928912761e+04 
       7.336115587705e-02       9.784557336459e+03 
       7.644928796912e-02       9.311650610740e+03 
       7.954353299775e-02       8.814536679296e+03 
       8.266024078725e-02       8.302128307687e+03 
       8.581273398637e-02       7.786968384025e+03 
       8.901225918437e-02       7.283161114394e+03 
       9.226860540985e-02       6.805152336982e+03 
       9.559052048996e-02       6.365612124625e+03 
       9.898599946599e-02       5.974388484061e+03 
       1.024624891378e-01       5.637340835072e+03 
       1.060270359164e-01       5.355788010476e+03 
       1.096863943056e-01       5.126257904956e+03 
       1.134471073830e-01       4.940486334860e+03 
       1.173155669539e-01       4.786167825263e+03 
       1.212980586983e-01       4.647937203040e+03 
       1.254007961065e-01       4.509161132035e+03 
       1.296299459934e-01       4.354549897402e+03 
       1.339916477160e-01       4.173207832951e+03 
       1.384920277736e-01       3.961163045368e+03 
       1.431372111762e-01       3.722687108771e+03 
       1.479333307714e-01       3.469551435896e+03 
       1.528865355934e-01       3.218342523783e+03 
       1.580029992204e-01       2.986294838062e+03 
       1.632889290723e-01       2.786972965212e+03 
       1.687505775527e-01       2.626830945683e+03 
       1.743942559171e-01       2.503757872847e+03 
       1.802263517371e-01       2.407339872326e+03 
       1.862533508214e-01       2.322252451160e+03 
       1.924818644494e-01       2.231551304115e+03 
       1.989186627765e-01       2.122189816168e+03 
       2.055707152847e-01       1.992021731011e+03 
       2.124452391818e-01       1.850333104788e+03 
       2.195497567139e-01       1.712185642400e+03 
       2.268921624510e-01       1.590991288119e+03 
       2.344808017550e-01       1.493669472163e+03 
       2.423245618548e-01       1.418306978059e+03 
       2.504329772620e-01       1.354464399254e+03 
       2.588163516754e-01       1.288935603902e+03 
       2.674858990930e-01       1.213938818288e+03 
       2.764539076010e-01       1.130694317451e+03 
       2.857339303080e-01       1.048102018585e+03 
       2.953410092148e-01       9.761785053155e+02 
       3.052919395542e-01       9.178113624549e+02 
       3.156055844677e-01       8.678997930915e+02 
       3.263032530092e-01       8.185249169052e+02 
       3.374091587054e-01       7.651461755466e+02 
       3.489509817175e-01       7.106717719006e+02 
       3.609605657343e-01       6.607859703025e+02 
       3.734747921333e-01       6.180876576807e+02 
       3.865366902904e-01       5.793112071472e+02 
       4.001968667448e-01       5.403919035552e+02 
       4.145153713076e-01       5.011506892498e+02 
       4.295641718077e-01       4.644993785217e+02 
       4.454304922144e-01       4.314088153397e+02 
       4.622214006969e-01       4.001139945308e+02 
       4.800702491654e-01       3.690895879202e+02 
       4.991459272112e-01       3.394754918605e+02 
       5.196665217302e-01       3.119852240846e+02 
       5.419201087032e-01       2.852471345834e+02 
       5.662975451962e-01       2.593310370852e+02 
       5.933463737275e-01       2.345483843856e+02 
       6.238638458458e-01       2.102309940136e+02 
       6.590669257916e-01       1.864335816363e+02 
       7.009246080454e-01       1.627252659144e+02 
       7.528593308799e-01       1.388186217820e+02 
       8.213469537518e-01       1.141883971198e+02 
       9.196980813302e-01       8.835977146361e+01 
       1.075112183810e+00       6.172619582458e+01 
       1.322697471132e+00       3.804287784855e+01 
       1.662328205042e+00       2.209786575383e+01 
       2.092692408506e+00       1.266922339240e+01 
       2.634543445090e+00       7.203343778230e+00 
       3.316693691389e+00       4.065143166619e+00 
       4.175469971226e+00       2.278604185909e+00 
       5.256605252960e+00       1.269354387650e+00 
       6.617673932723e+00       7.031380993987e-01 
       8.331157880872e+00       3.874780265120e-01 
       1.048830636590e+01       2.125103914462e-01 
       1.320399541071e+01       1.160369421712e-01 
       1.662284535976e+01       6.309886837540e-02 
       2.092692243973e+01       3.417957585426e-02 
       2.634543445002e+01       1.844605277854e-02 
       3.316693691389e+01       9.919227775088e-03 
       4.175469971226e+01       5.314570787547e-03 
       5.256605252960e+01       2.836694809474e-03 
       6.617673932723e+01       1.507702332146e-03 
