# Matter power spectrum P(k) at redshift z=99
# for k=1.04775e-05 to 66.1767 h/Mpc,
# number of wavenumbers equal to 130
#    1:k (h/Mpc)              2:P (Mpc/h)^3        
       1.047750691046e-05       7.261927680867e-03 
       1.319039970183e-05       9.069258201855e-03 
       1.660572937635e-05       1.132639106726e-02 
       2.090537469327e-05       1.414527123400e-02 
       2.631830744443e-05       1.766569584059e-02 
       3.313278603720e-05       2.206225515944e-02 
       4.171170630578e-05       2.755297766279e-02 
       5.251192703764e-05       3.441013522950e-02 
       6.610859936996e-05       4.297372172781e-02 
       8.322579568497e-05       5.366826852948e-02 
       1.047750691046e-04       6.702379872779e-02 
       1.319039970183e-04       8.370193441292e-02 
       1.660572937635e-04       1.045283355385e-01 
       2.090537469327e-04       1.305329134105e-01 
       2.631830744443e-04       1.629994506607e-01 
       3.313278603720e-04       2.035264004603e-01 
       4.171170630578e-04       2.541004744244e-01 
       5.251192703764e-04       3.171839528559e-01 
       6.610859936996e-04       3.958147256516e-01 
       8.322579568497e-04       4.937136006291e-01 
       1.047750691046e-03       6.153841636043e-01 
       1.319039970183e-03       7.661720592735e-01 
       1.660572937635e-03       9.522588016463e-01 
       2.090537469327e-03       1.180312991698e+00 
       2.631830744443e-03       1.456802684683e+00 
       3.313278603720e-03       1.786503854038e+00 
       4.171170630578e-03       2.169896192202e+00 
       5.251192703764e-03       2.599430630691e+00 
       6.610859936996e-03       3.055668715199e+00 
       8.322579568497e-03       3.505725275818e+00 
       1.047750691046e-02       3.905491664246e+00 
       1.319039970183e-02       4.200915347606e+00 
       1.660572937633e-02       4.325061192135e+00 
       2.090537453514e-02       4.210201828302e+00 
       2.631818545635e-02       3.825152901805e+00 
       3.311571692125e-02       3.229068185899e+00 
       4.113809243311e-02       2.627734285232e+00 
       4.792590854610e-02       2.280792049004e+00 
       5.284436902701e-02       2.110088263556e+00 
       5.689644391095e-02       2.003537150490e+00 
       6.051252627066e-02       1.923059178244e+00 
       6.388413457411e-02       1.852732261991e+00 
       6.711249296401e-02       1.784565166560e+00 
       7.025823437965e-02       1.714278042554e+00 
       7.336115587705e-02       1.639813176823e+00 
       7.644928796912e-02       1.560661925587e+00 
       7.954353299775e-02       1.477456822891e+00 
       8.266024078725e-02       1.391697069540e+00 
       8.581273398637e-02       1.305462502207e+00 
       8.901225918437e-02       1.221125507826e+00 
       9.226860540985e-02       1.141079561025e+00 
       9.559052048996e-02       1.067451406429e+00 
       9.898599946599e-02       1.001890528720e+00 
       1.024624891378e-01       9.453794891598e-01 
       1.060270359164e-01       8.981497845674e-01 
       1.096863943056e-01       8.596130991966e-01 
       1.134471073830e-01       8.284050421365e-01 
       1.173155669539e-01       8.024657802279e-01 
       1.212980586983e-01       7.792276867251e-01 
       1.254007961065e-01       7.559183551514e-01 
       1.296299459934e-01       7.299823422200e-01 
       1.339916477160e-01       6.995920456020e-01 
       1.384920277736e-01       6.640787289500e-01 
       1.431372111762e-01       6.241474010322e-01 
       1.479333307714e-01       5.817660764342e-01 
       1.528865355934e-01       5.396897636316e-01 
       1.580029992204e-01       5.008133728345e-01 
       1.632889290723e-01       4.673985898597e-01 
       1.687505775527e-01       4.405342591465e-01 
       1.743942559171e-01       4.198654596337e-01 
       1.802263517371e-01       4.036593021359e-01 
       1.862533508214e-01       3.893623186555e-01 
       1.924818644494e-01       3.741384144411e-01 
       1.989186627765e-01       3.558054898762e-01 
       2.055707152847e-01       3.340032207430e-01 
       2.124452391818e-01       3.102663786106e-01 
       2.195497567139e-01       2.871219598695e-01 
       2.268921624510e-01       2.668076005960e-01 
       2.344808017550e-01       2.504839099206e-01 
       2.423245618548e-01       2.378333564780e-01 
       2.504329772620e-01       2.271115923990e-01 
       2.588163516754e-01       2.161198753627e-01 
       2.674858990930e-01       2.035473026702e-01 
       2.764539076010e-01       1.895976278694e-01 
       2.857339303080e-01       1.757569494356e-01 
       2.953410092148e-01       1.636997024570e-01 
       3.052919395542e-01       1.539061227737e-01 
       3.156055844677e-01       1.455311495871e-01 
       3.263032530092e-01       1.372501938129e-01 
       3.374091587054e-01       1.283016627452e-01 
       3.489509817175e-01       1.191711602415e-01 
       3.609605657343e-01       1.108072644656e-01 
       3.734747921333e-01       1.036447031549e-01 
       3.865366902904e-01       9.714131439228e-02 
       4.001968667448e-01       9.061527099989e-02 
       4.145153713076e-01       8.403682271887e-02 
       4.295641718077e-01       7.789115552991e-02 
       4.454304922144e-01       7.234157129823e-02 
       4.622214006969e-01       6.709376848383e-02 
       4.800702491654e-01       6.189178388530e-02 
       4.991459272112e-01       5.692632310308e-02 
       5.196665217302e-01       5.231616458516e-02 
       5.419201087032e-01       4.783253655735e-02 
       5.662975451962e-01       4.348682412282e-02 
       5.933463737275e-01       3.933102485810e-02 
       6.238638458458e-01       3.525332800262e-02 
       6.590669257916e-01       3.126286257967e-02 
       7.009246080454e-01       2.728729226203e-02 
       7.528593308799e-01       2.327834401320e-02 
       8.213469537518e-01       1.914801806827e-02 
       9.196980813302e-01       1.481685980857e-02 
       1.075112183810e+00       1.035066210407e-02 
       1.322697471132e+00       6.379236335899e-03 
       1.662328205042e+00       3.705361218104e-03 
       2.092692408506e+00       2.124130934739e-03 
       2.634543445090e+00       1.207447184275e-03 
       3.316693691389e+00       6.810368786510e-04 
       4.175469971226e+00       3.812531535863e-04 
       5.256605252960e+00       2.117539372026e-04 
       6.617673932723e+00       1.164858680506e-04 
       8.331157880872e+00       6.316203979761e-05 
       1.048830636590e+01       3.336570408637e-05 
       1.320399541071e+01       1.670567680017e-05 
       1.662284535976e+01       7.424734096937e-06 
       2.092692243973e+01       2.463746473998e-06 
       2.634543445002e+01       3.079043366334e-07 
       3.316693691389e+01       8.566842757535e-08 
       4.175469971226e+01       6.575329014507e-07 
       5.256605252960e+01       5.779271659595e-07 
       6.617673932723e+01       2.125330596090e-08 
