# Matter power spectrum P(k) at redshift z=99
# for k=1.04775e-05 to 66.1767 h/Mpc,
# number of wavenumbers equal to 130
#    1:k (h/Mpc)              2:P (Mpc/h)^3        
       1.047750691046e-05       7.261927680862e-03 
       1.319039970183e-05       9.069258201849e-03 
       1.660572937635e-05       1.132639106725e-02 
       2.090537469327e-05       1.414527123399e-02 
       2.631830744443e-05       1.766569584058e-02 
       3.313278603720e-05       2.206225515942e-02 
       4.171170630578e-05       2.755297766277e-02 
       5.251192703764e-05       3.441013522947e-02 
       6.610859936996e-05       4.297372172778e-02 
       8.322579568497e-05       5.366826852944e-02 
       1.047750691046e-04       6.702379872774e-02 
       1.319039970183e-04       8.370193441286e-02 
       1.660572937635e-04       1.045283355384e-01 
       2.090537469327e-04       1.305329134104e-01 
       2.631830744443e-04       1.629994506605e-01 
       3.313278603720e-04       2.035264004601e-01 
       4.171170630578e-04       2.541004744243e-01 
       5.251192703764e-04       3.171839528557e-01 
       6.610859936996e-04       3.958147256513e-01 
       8.322579568497e-04       4.937136006268e-01 
       1.047750691046e-03       6.153841636041e-01 
       1.319039970183e-03       7.661720592279e-01 
       1.660572937635e-03       9.522588016478e-01 
       2.090537469327e-03       1.180312991698e+00 
       2.631830744443e-03       1.456802684686e+00 
       3.313278603720e-03       1.786503854039e+00 
       4.171170630578e-03       2.169896194797e+00 
       5.251192703764e-03       2.599430630721e+00 
       6.610859936996e-03       3.055668717360e+00 
       8.322579568497e-03       3.505725160192e+00 
       1.047750691046e-02       3.905491022397e+00 
       1.319039970183e-02       4.200915381088e+00 
       1.660572937633e-02       4.325063291752e+00 
       2.090537453514e-02       4.210203596931e+00 
       2.631818545635e-02       3.825153387405e+00 
       3.311571692125e-02       3.229059447720e+00 
       4.113809243311e-02       2.627736566232e+00 
       4.792590854610e-02       2.280790241066e+00 
       5.284436902701e-02       2.110084577961e+00 
       5.689644391095e-02       2.003536404148e+00 
       6.051252627066e-02       1.923054665918e+00 
       6.388413457411e-02       1.852734654673e+00 
       6.711249296401e-02       1.784566029003e+00 
       7.025823437965e-02       1.714277017608e+00 
       7.336115587705e-02       1.639816103405e+00 
       7.644928796912e-02       1.560664168935e+00 
       7.954353299775e-02       1.477457997526e+00 
       8.266024078725e-02       1.391697376600e+00 
       8.581273398637e-02       1.305466482656e+00 
       8.901225918437e-02       1.221127683380e+00 
       9.226860540985e-02       1.141077827658e+00 
       9.559052048996e-02       1.067450370172e+00 
       9.898599946599e-02       1.001890502154e+00 
       1.024624891378e-01       9.453836644691e-01 
       1.060270359164e-01       8.981496745551e-01 
       1.096863943056e-01       8.596130613381e-01 
       1.134471073830e-01       8.284045278748e-01 
       1.173155669539e-01       8.024683581295e-01 
       1.212980586983e-01       7.792282171103e-01 
       1.254007961065e-01       7.559205802844e-01 
       1.296299459934e-01       7.299812502871e-01 
       1.339916477160e-01       6.995929974313e-01 
       1.384920277736e-01       6.640770717028e-01 
       1.431372111762e-01       6.241461471757e-01 
       1.479333307714e-01       5.817650033381e-01 
       1.528865355934e-01       5.396926568132e-01 
       1.580029992204e-01       5.008137883915e-01 
       1.632889290723e-01       4.673989182487e-01 
       1.687505775527e-01       4.405330886011e-01 
       1.743942559171e-01       4.198662337830e-01 
       1.802263517371e-01       4.036604778555e-01 
       1.862533508214e-01       3.893592437580e-01 
       1.924818644494e-01       3.741353647278e-01 
       1.989186627765e-01       3.558016669374e-01 
       2.055707152847e-01       3.340000982011e-01 
       2.124452391818e-01       3.102661673702e-01 
       2.195497567139e-01       2.871224717680e-01 
       2.268921624510e-01       2.668079176869e-01 
       2.344808017550e-01       2.504834115542e-01 
       2.423245618548e-01       2.378333248931e-01 
       2.504329772620e-01       2.271118755756e-01 
       2.588163516754e-01       2.161168430567e-01 
       2.674858990930e-01       2.035456617170e-01 
       2.764539076010e-01       1.895979766836e-01 
       2.857339303080e-01       1.757568808029e-01 
       2.953410092148e-01       1.636995017428e-01 
       3.052919395542e-01       1.539065474343e-01 
       3.156055844677e-01       1.455315198263e-01 
       3.263032530092e-01       1.372500868508e-01 
       3.374091587054e-01       1.283023277294e-01 
       3.489509817175e-01       1.191713375664e-01 
       3.609605657343e-01       1.108073277607e-01 
       3.734747921333e-01       1.036450428535e-01 
       3.865366902904e-01       9.714162305070e-02 
       4.001968667448e-01       9.061554296781e-02 
       4.145153713076e-01       8.403708677043e-02 
       4.295641718077e-01       7.789108510799e-02 
       4.454304922144e-01       7.234161785289e-02 
       4.622214006969e-01       6.709373822412e-02 
       4.800702491654e-01       6.189192588265e-02 
       4.991459272112e-01       5.692644363217e-02 
       5.196665217302e-01       5.231618613819e-02 
       5.419201087032e-01       4.783266174992e-02 
       5.662975451962e-01       4.348697552238e-02 
       5.933463737275e-01       3.933104458612e-02 
       6.238638458458e-01       3.525340961922e-02 
       6.590669257916e-01       3.126290049533e-02 
       7.009246080454e-01       2.728726921238e-02 
       7.528593308799e-01       2.327836286940e-02 
       8.213469537518e-01       1.914825726725e-02 
       9.196980813302e-01       1.481701179400e-02 
       1.075112183810e+00       1.035094124028e-02 
       1.322697471132e+00       6.379464901295e-03 
       1.662328205042e+00       3.705666192917e-03 
       2.092692408506e+00       2.124543659360e-03 
       2.634543445090e+00       1.207961350717e-03 
       3.316693691389e+00       6.817082333255e-04 
       4.175469971226e+00       3.821214382604e-04 
       5.256605252960e+00       2.128725422870e-04 
       6.617673932723e+00       1.179205186193e-04 
       8.331157880872e+00       6.498545873079e-05 
       1.048830636590e+01       3.564309862543e-05 
       1.320399541071e+01       1.946416217759e-05 
       1.662284535976e+01       1.058586919383e-05 
       2.092692243973e+01       5.735495373915e-06 
       2.634543445002e+01       3.096456195296e-06 
       3.316693691389e+01       1.665957744641e-06 
       4.175469971226e+01       8.933189252690e-07 
       5.256605252960e+01       4.773840128716e-07 
       6.617673932723e+01       2.541808960225e-07 
