# Matter power spectrum P(k) at redshift z=0
# for k=1.04775e-05 to 66.1767 h/Mpc,
# number of wavenumbers equal to 130
#    1:k (h/Mpc)              2:P (Mpc/h)^3        
       1.047750691046e-05       5.020964811304e+01 
       1.319039970183e-05       6.270562594783e+01 
       1.660572937635e-05       7.831147247912e+01 
       2.090537469327e-05       9.780108069294e+01 
       2.631830744443e-05       1.221408203809e+02 
       3.313278603720e-05       1.525374501932e+02 
       4.171170630578e-05       1.904975994010e+02 
       5.251192703764e-05       2.379022224249e+02 
       6.610859936996e-05       2.970989227882e+02 
       8.322579568497e-05       3.710167318946e+02 
       1.047750691046e-04       4.633080766742e+02 
       1.319039970183e-04       5.785234129336e+02 
       1.660572937635e-04       7.223242666091e+02 
       2.090537469327e-04       9.017396271822e+02 
       2.631830744443e-04       1.125468123749e+03 
       3.313278603720e-04       1.404223053680e+03 
       4.171170630578e-04       1.751108028789e+03 
       5.251192703764e-04       2.181998448131e+03 
       6.610859936996e-04       2.715889983587e+03 
       8.322579568497e-04       3.375152337124e+03 
       1.047750691046e-03       4.185552174288e+03 
       1.319039970183e-03       5.175742742880e+03 
       1.660572937635e-03       6.376123051700e+03 
       2.090537469327e-03       7.815671868253e+03 
       2.631830744443e-03       9.517783068768e+03 
       3.313278603720e-03       1.149357460269e+04 
       4.171170630578e-03       1.373266009193e+04 
       5.251192703764e-03       1.619063577239e+04 
       6.610859936996e-03       1.877460432560e+04 
       8.322579568497e-03       2.132610911519e+04 
       1.047750691046e-02       2.360548815366e+04 
       1.319039970183e-02       2.528219857840e+04 
       1.660572937633e-02       2.595032575383e+04 
       2.090537453514e-02       2.520936439847e+04 
       2.631818545635e-02       2.287030197955e+04 
       3.311571692125e-02       1.928620310044e+04 
       4.113809243311e-02       1.568417769855e+04 
       4.792590854610e-02       1.361060835849e+04 
       5.284436902701e-02       1.259132317451e+04 
       5.689644391095e-02       1.195549931827e+04 
       6.051252627066e-02       1.147548123726e+04 
       6.388413457411e-02       1.105567258018e+04 
       6.711249296401e-02       1.064888484634e+04 
       7.025823437965e-02       1.022931163074e+04 
       7.336115587705e-02       9.784564766113e+03 
       7.644928796912e-02       9.311712462374e+03 
       7.954353299775e-02       8.814551742784e+03 
       8.266024078725e-02       8.302181360350e+03 
       8.581273398637e-02       7.786951387287e+03 
       8.901225918437e-02       7.283179338234e+03 
       9.226860540985e-02       6.805217808712e+03 
       9.559052048996e-02       6.365654121948e+03 
       9.898599946599e-02       5.974390292444e+03 
       1.024624891378e-01       5.637338591257e+03 
       1.060270359164e-01       5.355789033065e+03 
       1.096863943056e-01       5.126228787636e+03 
       1.134471073830e-01       4.940487157830e+03 
       1.173155669539e-01       4.786165438698e+03 
       1.212980586983e-01       4.647930128542e+03 
       1.254007961065e-01       4.509053868983e+03 
       1.296299459934e-01       4.354548802539e+03 
       1.339916477160e-01       4.173144182608e+03 
       1.384920277736e-01       3.961174297346e+03 
       1.431372111762e-01       3.722595222449e+03 
       1.479333307714e-01       3.469554272447e+03 
       1.528865355934e-01       3.218317256817e+03 
       1.580029992204e-01       2.986242652953e+03 
       1.632889290723e-01       2.786948442300e+03 
       1.687505775527e-01       2.626808277126e+03 
       1.743942559171e-01       2.503747340458e+03 
       1.802263517371e-01       2.407296793100e+03 
       1.862533508214e-01       2.322254803773e+03 
       1.924818644494e-01       2.231567786235e+03 
       1.989186627765e-01       2.122207579584e+03 
       2.055707152847e-01       1.992039168494e+03 
       2.124452391818e-01       1.850299294658e+03 
       2.195497567139e-01       1.712157192853e+03 
       2.268921624510e-01       1.590969213840e+03 
       2.344808017550e-01       1.493656902400e+03 
       2.423245618548e-01       1.418296650604e+03 
       2.504329772620e-01       1.354440304364e+03 
       2.588163516754e-01       1.288929055866e+03 
       2.674858990930e-01       1.213900533390e+03 
       2.764539076010e-01       1.130679023204e+03 
       2.857339303080e-01       1.048080503878e+03 
       2.953410092148e-01       9.761677135408e+02 
       3.052919395542e-01       9.177991725295e+02 
       3.156055844677e-01       8.678846163038e+02 
       3.263032530092e-01       8.185201181850e+02 
       3.374091587054e-01       7.651444695564e+02 
       3.489509817175e-01       7.106561155599e+02 
       3.609605657343e-01       6.607733865844e+02 
       3.734747921333e-01       6.180753101411e+02 
       3.865366902904e-01       5.792967667394e+02 
       4.001968667448e-01       5.403785348012e+02 
       4.145153713076e-01       5.011401656031e+02 
       4.295641718077e-01       4.644910630477e+02 
       4.454304922144e-01       4.313968425512e+02 
       4.622214006969e-01       4.001041350283e+02 
       4.800702491654e-01       3.690789213995e+02 
       4.991459272112e-01       3.394659671167e+02 
       5.196665217302e-01       3.119765397841e+02 
       5.419201087032e-01       2.852381212798e+02 
       5.662975451962e-01       2.593227096171e+02 
       5.933463737275e-01       2.345400521818e+02 
       6.238638458458e-01       2.102248753274e+02 
       6.590669257916e-01       1.864276921985e+02 
       7.009246080454e-01       1.627196125556e+02 
       7.528593308799e-01       1.388130362869e+02 
       8.213469537518e-01       1.141838322531e+02 
       9.196980813302e-01       8.835384069112e+01 
       1.075112183810e+00       6.172097875186e+01 
       1.322697471132e+00       3.803751504013e+01 
       1.662328205042e+00       2.209320329855e+01 
       2.092692408506e+00       1.266436932283e+01 
       2.634543445090e+00       7.198625499639e+00 
       3.316693691389e+00       4.060631917809e+00 
       4.175469971226e+00       2.274294931186e+00 
       5.256605252960e+00       1.265226100323e+00 
       6.617673932723e+00       6.992248427379e-01 
       8.331157880872e+00       3.838032876110e-01 
       1.048830636590e+01       2.090794908031e-01 
       1.320399541071e+01       1.128552347781e-01 
       1.662284535976e+01       6.017043754608e-02 
       2.092692243973e+01       3.150877392204e-02 
       2.634543445002e+01       1.603928901046e-02 
       3.316693691389e+01       7.789148791386e-03 
       4.175469971226e+01       3.484809013395e-03 
       5.256605252960e+01       1.341778135391e-03 
       6.617673932723e+01       3.849490855187e-04 
