# Matter power spectrum P(k) at redshift z=0
# for k=1.04775e-05 to 67.6233 h/Mpc,
# number of wavenumbers equal to 246
#    1:k (h/Mpc)              2:P (Mpc/h)^3        
       1.047750691046e-05       5.020964811307e+01 
       1.131335172503e-05       5.407050701929e+01 
       1.221587619537e-05       5.822819068470e+01 
       1.319039970183e-05       6.270562594778e+01 
       1.424266597921e-05       6.752732240880e+01 
       1.537887696968e-05       7.271977206173e+01 
       1.660572937635e-05       7.831147247912e+01 
       1.793045413292e-05       8.433311821988e+01 
       1.936085902198e-05       9.081778249833e+01 
       2.090537469327e-05       9.780108069297e+01 
       2.257310435294e-05       1.053213197893e+02 
       2.437387741694e-05       1.134197377890e+02 
       2.631830744443e-05       1.221408203809e+02 
       2.841785469300e-05       1.315324642459e+02 
       3.068489366414e-05       1.416462094881e+02 
       3.313278603720e-05       1.525374501932e+02 
       3.577595942169e-05       1.642660688414e+02 
       3.862999239199e-05       1.768963506307e+02 
       4.171170630578e-05       1.904975994010e+02 
       4.503926444729e-05       2.051444491974e+02 
       4.863227907969e-05       2.209171465549e+02 
       5.251192703764e-05       2.379022224249e+02 
       5.670107454120e-05       2.561927927505e+02 
       6.122441196689e-05       2.758890444041e+02 
       6.610859936996e-05       2.970989227882e+02 
       7.138242361596e-05       3.199385560802e+02 
       7.707696804727e-05       3.445329783680e+02 
       8.322579568497e-05       3.710167318945e+02 
       8.986514704559e-05       3.995346444203e+02 
       9.703415373875e-05       4.302425407383e+02 
       1.047750691046e-04       4.633080766742e+02 
       1.131335172503e-04       4.989116271565e+02 
       1.221587619537e-04       5.372471950930e+02 
       1.319039970183e-04       5.785234129334e+02 
       1.424266597921e-04       6.229645936045e+02 
       1.537887696968e-04       6.708118490405e+02 
       1.660572937635e-04       7.223242666092e+02 
       1.793045413292e-04       7.777801564124e+02 
       1.936085902198e-04       8.374783614141e+02 
       2.090537469327e-04       9.017396271824e+02 
       2.257310435294e-04       9.709080268041e+02 
       2.437387741694e-04       1.045352449493e+03 
       2.631830744443e-04       1.125468123750e+03 
       2.841785469300e-04       1.211678180495e+03 
       3.068489366414e-04       1.304435250150e+03 
       3.313278603720e-04       1.404223053681e+03 
       3.577595942169e-04       1.511558014616e+03 
       3.862999239199e-04       1.626990837825e+03 
       4.171170630578e-04       1.751108028790e+03 
       4.503926444729e-04       1.884533382872e+03 
       4.863227907969e-04       2.027929378112e+03 
       5.251192703764e-04       2.181998448133e+03 
       5.670107454121e-04       2.347484102755e+03 
       6.122441196689e-04       2.525171871364e+03 
       6.610859936996e-04       2.715889983592e+03 
       7.138242361596e-04       2.920509688385e+03 
       7.707696804727e-04       3.139945100279e+03 
       8.322579568497e-04       3.375152337588e+03 
       8.986514704559e-04       3.627127831141e+03 
       9.703415373875e-04       3.896905453136e+03 
       1.047750691046e-03       4.185552174301e+03 
       1.131335172503e-03       4.494162430373e+03 
       1.221587619537e-03       4.823850706499e+03 
       1.319039970183e-03       5.175742739242e+03 
       1.424266597921e-03       5.551019596905e+03 
       1.537887696968e-03       5.950788340561e+03 
       1.660572937635e-03       6.376123051786e+03 
       1.793045413292e-03       6.828073901461e+03 
       1.936085902198e-03       7.307625381067e+03 
       2.090537469327e-03       7.815671865863e+03 
       2.257310435294e-03       8.352990375809e+03 
       2.437387741694e-03       8.920211064349e+03 
       2.631830744443e-03       9.517783069112e+03 
       2.841785469300e-03       1.014593704435e+04 
       3.068489366414e-03       1.080464502805e+04 
       3.313278603720e-03       1.149357460346e+04 
       3.577595942169e-03       1.221203621722e+04 
       3.862999239199e-03       1.295892539446e+04 
       4.171170630578e-03       1.373266009601e+04 
       4.503926444729e-03       1.453111835625e+04 
       4.863227907969e-03       1.535154985300e+04 
       5.251192703764e-03       1.619063614558e+04 
       5.670107454120e-03       1.704431257765e+04 
       6.122441196689e-03       1.790755939646e+04 
       6.610859936996e-03       1.877460422033e+04 
       7.138242361596e-03       1.963872430359e+04 
       7.707696804727e-03       2.049215713563e+04 
       8.322579568496e-03       2.132607231856e+04 
       8.986514704559e-03       2.213055122303e+04 
       9.703415373875e-03       2.289445472135e+04 
       1.047750691046e-02       2.360548586063e+04 
       1.131335172503e-02       2.425022858055e+04 
       1.221587619537e-02       2.481423924730e+04 
       1.319039970183e-02       2.528218678276e+04 
       1.424266597920e-02       2.563814261355e+04 
       1.537887696964e-02       2.586605592458e+04 
       1.660572937560e-02       2.595027260554e+04 
       1.793045412207e-02       2.587632516960e+04 
       1.936085889642e-02       2.563221760985e+04 
       2.090537351881e-02       2.520934601890e+04 
       2.257309534705e-02       2.460445760029e+04 
       2.437382002240e-02       2.382088434974e+04 
       2.631799943729e-02       2.287045082460e+04 
       2.841644544598e-02       2.177450846956e+04 
       3.067933354524e-02       2.056556036265e+04 
       3.311368469821e-02       1.928728943105e+04 
       3.571840442514e-02       1.799401024868e+04 
       3.847720347390e-02       1.674681374669e+04 
       4.135335537314e-02       1.560462773497e+04 
       4.429361666563e-02       1.461037709258e+04 
       4.724366437916e-02       1.378056456234e+04 
       5.016480834039e-02       1.310508694947e+04 
       5.303989618930e-02       1.255715922985e+04 
       5.586870668205e-02       1.210428500197e+04 
       5.866042679206e-02       1.171464149803e+04 
       6.142798931504e-02       1.136047606573e+04 
       6.418496438662e-02       1.101857350812e+04 
       6.694418832236e-02       1.067068151322e+04 
       6.971731104453e-02       1.030357564449e+04 
       7.251476154108e-02       9.909000434506e+03 
       7.534587669814e-02       9.483772709373e+03 
       7.821907664495e-02       9.029505639401e+03 
       8.114203771084e-02       8.552331993572e+03 
       8.412184533139e-02       8.061952207042e+03 
       8.716512277352e-02       7.570767589200e+03 
       9.027813693913e-02       7.092509263949e+03 
       9.346688429613e-02       6.640512009393e+03 
       9.673716026122e-02       6.226730609801e+03 
       1.000946150608e-01       5.859939111360e+03 
       1.035447986307e-01       5.545235124182e+03 
       1.070931966524e-01       5.283126906430e+03 
       1.107452594180e-01       5.069422761457e+03 
       1.145064248899e-01       4.895250336826e+03 
       1.183821370656e-01       4.747840453441e+03 
       1.223778605591e-01       4.611735327867e+03 
       1.264990921707e-01       4.470624620575e+03 
       1.307513701078e-01       4.310272115318e+03 
       1.351402814485e-01       4.121391668668e+03 
       1.396714683894e-01       3.902061497394e+03 
       1.443506337875e-01       3.658637095690e+03 
       1.491835464900e-01       3.404479789834e+03 
       1.541760469368e-01       3.156666697656e+03 
       1.593340535209e-01       2.931972172374e+03 
       1.646635701934e-01       2.742379106970e+03 
       1.701706958081e-01       2.592257918012e+03 
       1.758616357070e-01       2.477241051555e+03 
       1.817427160581e-01       2.385191716977e+03 
       1.878204014651e-01       2.300359197364e+03 
       1.941013163855e-01       2.205751067166e+03 
       2.005922709060e-01       2.090814054328e+03 
       2.073002914514e-01       1.956464845706e+03 
       2.142326570343e-01       1.814192217620e+03 
       2.213969417044e-01       1.679299989991e+03 
       2.288010639201e-01       1.563848086830e+03 
       2.364533436625e-01       1.472687541310e+03 
       2.443625682390e-01       1.401513345402e+03 
       2.525380678946e-01       1.338414426455e+03 
       2.609898025770e-01       1.270904160424e+03 
       2.697284614969e-01       1.193384893463e+03 
       2.787655775073e-01       1.109337827247e+03 
       2.881136588192e-01       1.028773429028e+03 
       2.977863412019e-01       9.604828797683e+02 
       3.077985646248e-01       9.050242187341e+02 
       3.181667793367e-01       8.561472588802e+02 
       3.289091877084e-01       8.061883312181e+02 
       3.400460298905e-01       7.523952834196e+02 
       3.515999235695e-01       6.989224964460e+02 
       3.635962710278e-01       6.510638629100e+02 
       3.760637505499e-01       6.101226764804e+02 
       3.890349143014e-01       5.721330594851e+02 
       4.025469215929e-01       5.337804982874e+02 
       4.166424455447e-01       4.956313634244e+02 
       4.313708034899e-01       4.604705418699e+02 
       4.467893781976e-01       4.287777309532e+02 
       4.629654198623e-01       3.987728245141e+02 
       4.799783500912e-01       3.692424693872e+02 
       4.979227318246e-01       3.412395396684e+02 
       5.169121269689e-01       3.154832743031e+02 
       5.370841403262e-01       2.908349034884e+02 
       5.586070463286e-01       2.671076409111e+02 
       5.816885093582e-01       2.448096021520e+02 
       6.065870143577e-01       2.235681216819e+02 
       6.336266466978e-01       2.032102677751e+02 
       6.632156057925e-01       1.838794028618e+02 
       6.958678637575e-01       1.653546091873e+02 
       7.322247983784e-01       1.476959438600e+02 
       7.730680193171e-01       1.308339133897e+02 
       8.193049551574e-01       1.148316150047e+02 
       8.718988013754e-01       9.976257718819e+01 
       9.317218028590e-01       8.577811824429e+01 
       9.993660906273e-01       7.305511289367e+01 
       1.075037109879e+00       6.173615644675e+01 
       1.158653485387e+00       5.187932334369e+01 
       1.250099156961e+00       4.344030665875e+01 
       1.349432400897e+00       3.628950197443e+01 
       1.456947456991e+00       3.026799691973e+01 
       1.573135110893e+00       2.521464910197e+01 
       1.698621895119e+00       2.098203813753e+01 
       1.834127512423e+00       1.744245770171e+01 
       1.980444933977e+00       1.448568013129e+01 
       2.138435191130e+00       1.201887034892e+01 
       2.309029198543e+00       9.963173985151e+00 
       2.493232376993e+00       8.251824680044e+00 
       2.692130394536e+00       6.828602277671e+00 
       2.906895533764e+00       5.646271424934e+00 
       3.138793596840e+00       4.664894560703e+00 
       3.389191365541e+00       3.851110068177e+00 
       3.659564656886e+00       3.176955540515e+00 
       3.951507021438e+00       2.618879827595e+00 
       4.266739135513e+00       2.157346483839e+00 
       4.607118942658e+00       1.775921611892e+00 
       4.974652604172e+00       1.460989214492e+00 
       5.371506323193e+00       1.201134716912e+00 
       5.800019112071e+00       9.868744286250e-01 
       6.262716578240e+00       8.103546213622e-01 
       6.762325809881e+00       6.650099809655e-01 
       7.301791449077e+00       5.454247147380e-01 
       7.884293047211e+00       4.470988575958e-01 
       8.513263804891e+00       3.662979272306e-01 
       9.192410806865e+00       2.999402772350e-01 
       9.925736871166e+00       2.454806454777e-01 
       1.071756414128e+01       2.008087216811e-01 
       1.157255956041e+01       1.641851547731e-01 
       1.249576237789e+01       1.341766809089e-01 
       1.349261385000e+01       1.096023917097e-01 
       1.456898931011e+01       8.948874978067e-02 
       1.573123279727e+01       7.303367872699e-02 
       1.698619444729e+01       5.957812292529e-02 
       1.834127086665e+01       4.858104641919e-02 
       1.980444872733e+01       3.959719299388e-02 
       2.138435183937e+01       3.226088106132e-02 
       2.309029197863e+01       2.627335262698e-02 
       2.493232376942e+01       2.138818797589e-02 
       2.692130394533e+01       1.740463452399e-02 
       2.906895533764e+01       1.415721343878e-02 
       3.138793596840e+01       1.151119309703e-02 
       3.389191365541e+01       9.355948431292e-03 
       3.659564656886e+01       7.601077475352e-03 
       3.951507021438e+01       6.173008425849e-03 
       4.266739135513e+01       5.011056378618e-03 
       4.607118942658e+01       4.066067873751e-03 
       4.974652604172e+01       3.297828720557e-03 
       5.371506323193e+01       2.673589837086e-03 
       5.800019112071e+01       2.166418603350e-03 
       6.262716578240e+01       1.754586303755e-03 
       6.762325809881e+01       1.420293293584e-03 
