# Matter power spectrum P(k) at redshift z=99
# for k=1.04775e-05 to 66.1767 h/Mpc,
# number of wavenumbers equal to 130
#    1:k (h/Mpc)              2:P (Mpc/h)^3        
       1.047750691046e-05       7.261927680862e-03 
       1.319039970183e-05       9.069258201849e-03 
       1.660572937635e-05       1.132639106725e-02 
       2.090537469327e-05       1.414527123399e-02 
       2.631830744443e-05       1.766569584058e-02 
       3.313278603720e-05       2.206225515942e-02 
       4.171170630578e-05       2.755297766277e-02 
       5.251192703764e-05       3.441013522947e-02 
       6.610859936996e-05       4.297372172778e-02 
       8.322579568497e-05       5.366826852944e-02 
       1.047750691046e-04       6.702379872775e-02 
       1.319039970183e-04       8.370193441286e-02 
       1.660572937635e-04       1.045283355384e-01 
       2.090537469327e-04       1.305329134104e-01 
       2.631830744443e-04       1.629994506605e-01 
       3.313278603720e-04       2.035264004601e-01 
       4.171170630578e-04       2.541004744243e-01 
       5.251192703764e-04       3.171839528557e-01 
       6.610859936996e-04       3.958147256513e-01 
       8.322579568497e-04       4.937136006274e-01 
       1.047750691046e-03       6.153841636041e-01 
       1.319039970183e-03       7.661720592774e-01 
       1.660572937635e-03       9.522588016484e-01 
       2.090537469327e-03       1.180312991699e+00 
       2.631830744443e-03       1.456802684686e+00 
       3.313278603720e-03       1.786503854039e+00 
       4.171170630578e-03       2.169896194833e+00 
       5.251192703764e-03       2.599430630720e+00 
       6.610859936996e-03       3.055668708734e+00 
       8.322579568497e-03       3.505724925581e+00 
       1.047750691046e-02       3.905491503214e+00 
       1.319039970183e-02       4.200915394521e+00 
       1.660572937633e-02       4.325059882751e+00 
       2.090537453514e-02       4.210205416776e+00 
       2.631818545635e-02       3.825145100865e+00 
       3.311571692125e-02       3.229054541797e+00 
       4.113809243311e-02       2.627723340963e+00 
       4.792590854610e-02       2.280794031727e+00 
       5.284436902701e-02       2.110082856134e+00 
       5.689644391095e-02       2.003542356552e+00 
       6.051252627066e-02       1.923058067499e+00 
       6.388413457411e-02       1.852740012063e+00 
       6.711249296401e-02       1.784563001965e+00 
       7.025823437965e-02       1.714277634451e+00 
       7.336115587705e-02       1.639816867598e+00 
       7.644928796912e-02       1.560661947119e+00 
       7.954353299775e-02       1.477462798956e+00 
       8.266024078725e-02       1.391696306167e+00 
       8.581273398637e-02       1.305462571055e+00 
       8.901225918437e-02       1.221123808959e+00 
       9.226860540985e-02       1.141081843508e+00 
       9.559052048996e-02       1.067451830742e+00 
       9.898599946599e-02       1.001887977668e+00 
       1.024624891378e-01       9.453816952215e-01 
       1.060270359164e-01       8.981483130618e-01 
       1.096863943056e-01       8.596130821420e-01 
       1.134471073830e-01       8.284057787227e-01 
       1.173155669539e-01       8.024661857191e-01 
       1.212980586983e-01       7.792298303125e-01 
       1.254007961065e-01       7.559161433834e-01 
       1.296299459934e-01       7.299831965957e-01 
       1.339916477160e-01       6.995932609355e-01 
       1.384920277736e-01       6.640779675598e-01 
       1.431372111762e-01       6.241458290957e-01 
       1.479333307714e-01       5.817629843361e-01 
       1.528865355934e-01       5.396937092641e-01 
       1.580029992204e-01       5.008138263574e-01 
       1.632889290723e-01       4.673987782605e-01 
       1.687505775527e-01       4.405334410910e-01 
       1.743942559171e-01       4.198661306783e-01 
       1.802263517371e-01       4.036602689437e-01 
       1.862533508214e-01       3.893589263626e-01 
       1.924818644494e-01       3.741352440966e-01 
       1.989186627765e-01       3.558025250691e-01 
       2.055707152847e-01       3.340004388017e-01 
       2.124452391818e-01       3.102662566865e-01 
       2.195497567139e-01       2.871234965448e-01 
       2.268921624510e-01       2.668086503279e-01 
       2.344808017550e-01       2.504834006075e-01 
       2.423245618548e-01       2.378337628796e-01 
       2.504329772620e-01       2.271116192061e-01 
       2.588163516754e-01       2.161174258301e-01 
       2.674858990930e-01       2.035458866201e-01 
       2.764539076010e-01       1.895983847470e-01 
       2.857339303080e-01       1.757572281406e-01 
       2.953410092148e-01       1.636996063383e-01 
       3.052919395542e-01       1.539062121050e-01 
       3.156055844677e-01       1.455309286734e-01 
       3.263032530092e-01       1.372509209691e-01 
       3.374091587054e-01       1.283025748793e-01 
       3.489509817175e-01       1.191714951363e-01 
       3.609605657343e-01       1.108073421348e-01 
       3.734747921333e-01       1.036453824114e-01 
       3.865366902904e-01       9.714149434176e-02 
       4.001968667448e-01       9.061561151114e-02 
       4.145153713076e-01       8.403706097565e-02 
       4.295641718077e-01       7.789146002339e-02 
       4.454304922144e-01       7.234160872919e-02 
       4.622214006969e-01       6.709382284053e-02 
       4.800702491654e-01       6.189194374302e-02 
       4.991459272112e-01       5.692616676577e-02 
       5.196665217302e-01       5.231607829723e-02 
       5.419201087032e-01       4.783248066434e-02 
       5.662975451962e-01       4.348691416617e-02 
       5.933463737275e-01       3.933102643965e-02 
       6.238638458458e-01       3.525341990086e-02 
       6.590669257916e-01       3.126287705897e-02 
       7.009246080454e-01       2.728741051996e-02 
       7.528593308799e-01       2.327842586526e-02 
       8.213469537518e-01       1.914832082965e-02 
       9.196980813302e-01       1.481702723983e-02 
       1.075112183810e+00       1.035096689015e-02 
       1.322697471132e+00       6.379458896225e-03 
       1.662328205042e+00       3.705658036484e-03 
       2.092692408506e+00       2.124539817823e-03 
       2.634543445090e+00       1.207957591196e-03 
       3.316693691389e+00       6.817113461552e-04 
       4.175469971226e+00       3.821198094120e-04 
       5.256605252960e+00       2.128696101557e-04 
       6.617673932723e+00       1.179181625307e-04 
       8.331157880872e+00       6.498381831267e-05 
       1.048830636590e+01       3.564176550038e-05 
       1.320399541071e+01       1.946262968776e-05 
       1.662284535976e+01       1.058438732644e-05 
       2.092692243973e+01       5.734054253000e-06 
       2.634543445002e+01       3.094936097215e-06 
       3.316693691389e+01       1.664389074021e-06 
       4.175469971226e+01       8.916468547016e-07 
       5.256605252960e+01       4.755279021128e-07 
       6.617673932723e+01       2.520899633701e-07 
