# Matter power spectrum P(k) at redshift z=0
# for k=1.04775e-05 to 66.1767 h/Mpc,
# number of wavenumbers equal to 130
#    1:k (h/Mpc)              2:P (Mpc/h)^3        
       1.047750691046e-05       5.020964811308e+01 
       1.319039970183e-05       6.270562594766e+01 
       1.660572937635e-05       7.831147247912e+01 
       2.090537469327e-05       9.780108069295e+01 
       2.631830744443e-05       1.221408203809e+02 
       3.313278603720e-05       1.525374501932e+02 
       4.171170630578e-05       1.904975994010e+02 
       5.251192703764e-05       2.379022224249e+02 
       6.610859936996e-05       2.970989227882e+02 
       8.322579568497e-05       3.710167318946e+02 
       1.047750691046e-04       4.633080766742e+02 
       1.319039970183e-04       5.785234129342e+02 
       1.660572937635e-04       7.223242666092e+02 
       2.090537469327e-04       9.017396271823e+02 
       2.631830744443e-04       1.125468123750e+03 
       3.313278603720e-04       1.404223053681e+03 
       4.171170630578e-04       1.751108028790e+03 
       5.251192703764e-04       2.181998448132e+03 
       6.610859936996e-04       2.715889983590e+03 
       8.322579568497e-04       3.375152337130e+03 
       1.047750691046e-03       4.185552174312e+03 
       1.319039970183e-03       5.175742738439e+03 
       1.660572937635e-03       6.376123051732e+03 
       2.090537469327e-03       7.815671914255e+03 
       2.631830744443e-03       9.517783068990e+03 
       3.313278603720e-03       1.149357460318e+04 
       4.171170630578e-03       1.373266009531e+04 
       5.251192703764e-03       1.619063601324e+04 
       6.610859936996e-03       1.877460414930e+04 
       8.322579568497e-03       2.132611068769e+04 
       1.047750691046e-02       2.360547807305e+04 
       1.319039970183e-02       2.528219192981e+04 
       1.660572937633e-02       2.595027487689e+04 
       2.090537453514e-02       2.520945502083e+04 
       2.631818545635e-02       2.287028260408e+04 
       3.311571692125e-02       1.928619232080e+04 
       4.113809243311e-02       1.568425196680e+04 
       4.792590854610e-02       1.361059098073e+04 
       5.284436902701e-02       1.259130810167e+04 
       5.689644391095e-02       1.195553930278e+04 
       6.051252627066e-02       1.147550242626e+04 
       6.388413457411e-02       1.105593497257e+04 
       6.711249296401e-02       1.064892266736e+04 
       7.025823437965e-02       1.022926554933e+04 
       7.336115587705e-02       9.784559932717e+03 
       7.644928796912e-02       9.311482803774e+03 
       7.954353299775e-02       8.814553280560e+03 
       8.266024078725e-02       8.302172246966e+03 
       8.581273398637e-02       7.786960626709e+03 
       8.901225918437e-02       7.283264626114e+03 
       9.226860540985e-02       6.805177035180e+03 
       9.559052048996e-02       6.365620646212e+03 
       9.898599946599e-02       5.974380318511e+03 
       1.024624891378e-01       5.637332575782e+03 
       1.060270359164e-01       5.355779306869e+03 
       1.096863943056e-01       5.126224433013e+03 
       1.134471073830e-01       4.940487350040e+03 
       1.173155669539e-01       4.786164833687e+03 
       1.212980586983e-01       4.647929343300e+03 
       1.254007961065e-01       4.509055930671e+03 
       1.296299459934e-01       4.354553142919e+03 
       1.339916477160e-01       4.173243737242e+03 
       1.384920277736e-01       3.961173138295e+03 
       1.431372111762e-01       3.722595181977e+03 
       1.479333307714e-01       3.469551838762e+03 
       1.528865355934e-01       3.218315349423e+03 
       1.580029992204e-01       2.986239845394e+03 
       1.632889290723e-01       2.786947472779e+03 
       1.687505775527e-01       2.626808297305e+03 
       1.743942559171e-01       2.503749406773e+03 
       1.802263517371e-01       2.407297996188e+03 
       1.862533508214e-01       2.322247521335e+03 
       1.924818644494e-01       2.231568511291e+03 
       1.989186627765e-01       2.122206938260e+03 
       2.055707152847e-01       1.992044705196e+03 
       2.124452391818e-01       1.850300553102e+03 
       2.195497567139e-01       1.712158228115e+03 
       2.268921624510e-01       1.590969081797e+03 
       2.344808017550e-01       1.493657069049e+03 
       2.423245618548e-01       1.418303916859e+03 
       2.504329772620e-01       1.354441554071e+03 
       2.588163516754e-01       1.288929482483e+03 
       2.674858990930e-01       1.213908031043e+03 
       2.764539076010e-01       1.130679807682e+03 
       2.857339303080e-01       1.048081143136e+03 
       2.953410092148e-01       9.761713981378e+02 
       3.052919395542e-01       9.178012973628e+02 
       3.156055844677e-01       8.678848185341e+02 
       3.263032530092e-01       8.185229186969e+02 
       3.374091587054e-01       7.651457782176e+02 
       3.489509817175e-01       7.106586796172e+02 
       3.609605657343e-01       6.607750143235e+02 
       3.734747921333e-01       6.180796946414e+02 
       3.865366902904e-01       5.792997984779e+02 
       4.001968667448e-01       5.403802133980e+02 
       4.145153713076e-01       5.011420959156e+02 
       4.295641718077e-01       4.644922960366e+02 
       4.454304922144e-01       4.313991779707e+02 
       4.622214006969e-01       4.001063570964e+02 
       4.800702491654e-01       3.690820784430e+02 
       4.991459272112e-01       3.394694486740e+02 
       5.196665217302e-01       3.119788240135e+02 
       5.419201087032e-01       2.852406642108e+02 
       5.662975451962e-01       2.593247481296e+02 
       5.933463737275e-01       2.345424019283e+02 
       6.238638458458e-01       2.102269873011e+02 
       6.590669257916e-01       1.864308462000e+02 
       7.009246080454e-01       1.627218413860e+02 
       7.528593308799e-01       1.388161782497e+02 
       8.213469537518e-01       1.141862621512e+02 
       9.196980813302e-01       8.835693061181e+01 
       1.075112183810e+00       6.172406254163e+01 
       1.322697471132e+00       3.804072558776e+01 
       1.662328205042e+00       2.209621393686e+01 
       2.092692408506e+00       1.266742291626e+01 
       2.634543445090e+00       7.201583019736e+00 
       3.316693691389e+00       4.063550887913e+00 
       4.175469971226e+00       2.277071054288e+00 
       5.256605252960e+00       1.267876802807e+00 
       6.617673932723e+00       7.017478415371e-01 
       8.331157880872e+00       3.861757604507e-01 
       1.048830636590e+01       2.112978062812e-01 
       1.320399541071e+01       1.149141405068e-01 
       1.662284535976e+01       6.206669955684e-02 
       2.092692243973e+01       3.323747423654e-02 
       2.634543445002e+01       1.759352192123e-02 
       3.316693691389e+01       9.155692440560e-03 
       4.175469971226e+01       4.640421602390e-03 
       5.256605252960e+01       2.253270601946e-03 
       6.617673932723e+01       1.017958473523e-03 
