# Matter power spectrum P(k) at redshift z=0
# for k=1.04775e-05 to 66.1767 h/Mpc,
# number of wavenumbers equal to 130
#    1:k (h/Mpc)              2:P (Mpc/h)^3        
       1.047750691046e-05       5.020964811311e+01 
       1.319039970183e-05       6.270562594774e+01 
       1.660572937635e-05       7.831147247912e+01 
       2.090537469327e-05       9.780108069296e+01 
       2.631830744443e-05       1.221408203809e+02 
       3.313278603720e-05       1.525374501932e+02 
       4.171170630578e-05       1.904975994009e+02 
       5.251192703764e-05       2.379022224249e+02 
       6.610859936996e-05       2.970989227881e+02 
       8.322579568497e-05       3.710167318946e+02 
       1.047750691046e-04       4.633080766742e+02 
       1.319039970183e-04       5.785234129329e+02 
       1.660572937635e-04       7.223242666092e+02 
       2.090537469327e-04       9.017396271824e+02 
       2.631830744443e-04       1.125468123750e+03 
       3.313278603720e-04       1.404223053681e+03 
       4.171170630578e-04       1.751108028790e+03 
       5.251192703764e-04       2.181998448133e+03 
       6.610859936996e-04       2.715889983592e+03 
       8.322579568497e-04       3.375152337134e+03 
       1.047750691046e-03       4.185552174310e+03 
       1.319039970183e-03       5.175742739210e+03 
       1.660572937635e-03       6.376123051779e+03 
       2.090537469327e-03       7.815671904656e+03 
       2.631830744443e-03       9.517783069113e+03 
       3.313278603720e-03       1.149357460346e+04 
       4.171170630578e-03       1.373266011853e+04 
       5.251192703764e-03       1.619063614560e+04 
       6.610859936996e-03       1.877460422251e+04 
       8.322579568497e-03       2.132606776212e+04 
       1.047750691046e-02       2.360548427948e+04 
       1.319039970183e-02       2.528218780162e+04 
       1.660572937633e-02       2.595026838654e+04 
       2.090537453514e-02       2.520933532350e+04 
       2.631818545635e-02       2.287036202390e+04 
       3.311571692125e-02       1.928623108482e+04 
       4.113809243311e-02       1.568428865322e+04 
       4.792590854610e-02       1.361063386335e+04 
       5.284436902701e-02       1.259131324189e+04 
       5.689644391095e-02       1.195552485288e+04 
       6.051252627066e-02       1.147547028424e+04 
       6.388413457411e-02       1.105589577159e+04 
       6.711249296401e-02       1.064902470089e+04 
       7.025823437965e-02       1.022929945893e+04 
       7.336115587705e-02       9.784533284277e+03 
       7.644928796912e-02       9.311667274945e+03 
       7.954353299775e-02       8.814548805744e+03 
       8.266024078725e-02       8.302116879473e+03 
       8.581273398637e-02       7.786938785734e+03 
       8.901225918437e-02       7.283185630701e+03 
       9.226860540985e-02       6.805153219617e+03 
       9.559052048996e-02       6.365641316689e+03 
       9.898599946599e-02       5.974408775776e+03 
       1.024624891378e-01       5.637315730573e+03 
       1.060270359164e-01       5.355766705650e+03 
       1.096863943056e-01       5.126235031645e+03 
       1.134471073830e-01       4.940480220232e+03 
       1.173155669539e-01       4.786159343167e+03 
       1.212980586983e-01       4.647929585553e+03 
       1.254007961065e-01       4.509159733736e+03 
       1.296299459934e-01       4.354543682719e+03 
       1.339916477160e-01       4.173216366612e+03 
       1.384920277736e-01       3.961160047942e+03 
       1.431372111762e-01       3.722680800664e+03 
       1.479333307714e-01       3.469547202150e+03 
       1.528865355934e-01       3.218340186477e+03 
       1.580029992204e-01       2.986293782378e+03 
       1.632889290723e-01       2.786976313260e+03 
       1.687505775527e-01       2.626825150066e+03 
       1.743942559171e-01       2.503759082837e+03 
       1.802263517371e-01       2.407344619527e+03 
       1.862533508214e-01       2.322250583016e+03 
       1.924818644494e-01       2.231548600337e+03 
       1.989186627765e-01       2.122193916747e+03 
       2.055707152847e-01       1.992023304109e+03 
       2.124452391818e-01       1.850326537763e+03 
       2.195497567139e-01       1.712184861030e+03 
       2.268921624510e-01       1.590989319711e+03 
       2.344808017550e-01       1.493670241964e+03 
       2.423245618548e-01       1.418310231286e+03 
       2.504329772620e-01       1.354465674889e+03 
       2.588163516754e-01       1.288936135780e+03 
       2.674858990930e-01       1.213935987916e+03 
       2.764539076010e-01       1.130693528385e+03 
       2.857339303080e-01       1.048099614832e+03 
       2.953410092148e-01       9.761818677924e+02 
       3.052919395542e-01       9.178116661288e+02 
       3.156055844677e-01       8.678971496396e+02 
       3.263032530092e-01       8.185264205648e+02 
       3.374091587054e-01       7.651479950674e+02 
       3.489509817175e-01       7.106712618867e+02 
       3.609605657343e-01       6.607872430229e+02 
       3.734747921333e-01       6.180850002528e+02 
       3.865366902904e-01       5.793108721997e+02 
       4.001968667448e-01       5.403908664158e+02 
       4.145153713076e-01       5.011515170529e+02 
       4.295641718077e-01       4.644999907743e+02 
       4.454304922144e-01       4.314073902267e+02 
       4.622214006969e-01       4.001139075943e+02 
       4.800702491654e-01       3.690895871226e+02 
       4.991459272112e-01       3.394768017831e+02 
       5.196665217302e-01       3.119850694633e+02 
       5.419201087032e-01       2.852480096611e+02 
       5.662975451962e-01       2.593308453840e+02 
       5.933463737275e-01       2.345475388998e+02 
       6.238638458458e-01       2.102309960955e+02 
       6.590669257916e-01       1.864339008838e+02 
       7.009246080454e-01       1.627251631588e+02 
       7.528593308799e-01       1.388181405519e+02 
       8.213469537518e-01       1.141886053171e+02 
       9.196980813302e-01       8.835903383885e+01 
       1.075112183810e+00       6.172636804083e+01 
       1.322697471132e+00       3.804304174154e+01 
       1.662328205042e+00       2.209803806028e+01 
       2.092692408506e+00       1.266920362882e+01 
       2.634543445090e+00       7.203345999932e+00 
       3.316693691389e+00       4.065157556790e+00 
       4.175469971226e+00       2.278622505779e+00 
       5.256605252960e+00       1.269348319129e+00 
       6.617673932723e+00       7.031392423951e-01 
       8.331157880872e+00       3.874776975330e-01 
       1.048830636590e+01       2.125089609550e-01 
       1.320399541071e+01       1.160364246364e-01 
       1.662284535976e+01       6.309867591726e-02 
       2.092692243973e+01       3.417931766408e-02 
       2.634543445002e+01       1.844616680781e-02 
       3.316693691389e+01       9.919106519933e-03 
       4.175469971226e+01       5.314572094286e-03 
       5.256605252960e+01       2.836683698843e-03 
       6.617673932723e+01       1.507709486288e-03 
