# Matter power spectrum P(k) at redshift z=0
# for k=1.04775e-05 to 67.6233 h/Mpc,
# number of wavenumbers equal to 246
#    1:k (h/Mpc)              2:P (Mpc/h)^3        
       1.047750691046e-05       5.020964811308e+01 
       1.131335172503e-05       5.407050701927e+01 
       1.221587619537e-05       5.822819068558e+01 
       1.319039970183e-05       6.270562594775e+01 
       1.424266597921e-05       6.752732240880e+01 
       1.537887696968e-05       7.271977206173e+01 
       1.660572937635e-05       7.831147247912e+01 
       1.793045413292e-05       8.433311821988e+01 
       1.936085902198e-05       9.081778249833e+01 
       2.090537469327e-05       9.780108069296e+01 
       2.257310435294e-05       1.053213197893e+02 
       2.437387741694e-05       1.134197377890e+02 
       2.631830744443e-05       1.221408203809e+02 
       2.841785469300e-05       1.315324642461e+02 
       3.068489366414e-05       1.416462094881e+02 
       3.313278603720e-05       1.525374501932e+02 
       3.577595942169e-05       1.642660688414e+02 
       3.862999239199e-05       1.768963506307e+02 
       4.171170630578e-05       1.904975994010e+02 
       4.503926444729e-05       2.051444491973e+02 
       4.863227907969e-05       2.209171465549e+02 
       5.251192703764e-05       2.379022224249e+02 
       5.670107454120e-05       2.561927927661e+02 
       6.122441196689e-05       2.758890444041e+02 
       6.610859936996e-05       2.970989227883e+02 
       7.138242361596e-05       3.199385560802e+02 
       7.707696804727e-05       3.445329783680e+02 
       8.322579568497e-05       3.710167318945e+02 
       8.986514704559e-05       3.995346444203e+02 
       9.703415373875e-05       4.302425407383e+02 
       1.047750691046e-04       4.633080766742e+02 
       1.131335172503e-04       4.989116271564e+02 
       1.221587619537e-04       5.372471950929e+02 
       1.319039970183e-04       5.785234129336e+02 
       1.424266597921e-04       6.229645934871e+02 
       1.537887696968e-04       6.708118490405e+02 
       1.660572937635e-04       7.223242666092e+02 
       1.793045413292e-04       7.777801559446e+02 
       1.936085902198e-04       8.374783614140e+02 
       2.090537469327e-04       9.017396271823e+02 
       2.257310435294e-04       9.709080268041e+02 
       2.437387741694e-04       1.045352449493e+03 
       2.631830744443e-04       1.125468123750e+03 
       2.841785469300e-04       1.211678180494e+03 
       3.068489366414e-04       1.304435250150e+03 
       3.313278603720e-04       1.404223053681e+03 
       3.577595942169e-04       1.511558014616e+03 
       3.862999239199e-04       1.626990837760e+03 
       4.171170630578e-04       1.751108028789e+03 
       4.503926444729e-04       1.884533382871e+03 
       4.863227907969e-04       2.027929378111e+03 
       5.251192703764e-04       2.181998448132e+03 
       5.670107454121e-04       2.347484102754e+03 
       6.122441196689e-04       2.525171871366e+03 
       6.610859936996e-04       2.715889983591e+03 
       7.138242361596e-04       2.920509688381e+03 
       7.707696804727e-04       3.139945100277e+03 
       8.322579568497e-04       3.375152337573e+03 
       8.986514704559e-04       3.627127831137e+03 
       9.703415373875e-04       3.896905453132e+03 
       1.047750691046e-03       4.185552174272e+03 
       1.131335172503e-03       4.494162430367e+03 
       1.221587619537e-03       4.823850706496e+03 
       1.319039970183e-03       5.175742738793e+03 
       1.424266597921e-03       5.551019596922e+03 
       1.537887696968e-03       5.950788340538e+03 
       1.660572937635e-03       6.376123051717e+03 
       1.793045413292e-03       6.828073901434e+03 
       1.936085902198e-03       7.307625381031e+03 
       2.090537469327e-03       7.815671862684e+03 
       2.257310435294e-03       8.352990375765e+03 
       2.437387741694e-03       8.920211064287e+03 
       2.631830744443e-03       9.517783069018e+03 
       2.841785469300e-03       1.014593704423e+04 
       3.068489366414e-03       1.080464502775e+04 
       3.313278603720e-03       1.149357460327e+04 
       3.577595942169e-03       1.221203621698e+04 
       3.862999239199e-03       1.295892539415e+04 
       4.171170630578e-03       1.373266011831e+04 
       4.503926444729e-03       1.453111835577e+04 
       4.863227907969e-03       1.535154983574e+04 
       5.251192703764e-03       1.619063604341e+04 
       5.670107454120e-03       1.704431257198e+04 
       6.122441196689e-03       1.790755945568e+04 
       6.610859936996e-03       1.877460426413e+04 
       7.138242361596e-03       1.963872449634e+04 
       7.707696804727e-03       2.049215713598e+04 
       8.322579568496e-03       2.132611120546e+04 
       8.986514704559e-03       2.213054539214e+04 
       9.703415373875e-03       2.289445544112e+04 
       1.047750691046e-02       2.360549006443e+04 
       1.131335172503e-02       2.425023372981e+04 
       1.221587619537e-02       2.481423938268e+04 
       1.319039970183e-02       2.528219064924e+04 
       1.424266597920e-02       2.563814334268e+04 
       1.537887696964e-02       2.586608589713e+04 
       1.660572937560e-02       2.595027496894e+04 
       1.793045412207e-02       2.587635687722e+04 
       1.936085889642e-02       2.563219035663e+04 
       2.090537351881e-02       2.520934012229e+04 
       2.257309534705e-02       2.460449526847e+04 
       2.437382002240e-02       2.382094845210e+04 
       2.631799943729e-02       2.287038327376e+04 
       2.841644544598e-02       2.177448867340e+04 
       3.067933354524e-02       2.056550992075e+04 
       3.311368469821e-02       1.928728213043e+04 
       3.571840442514e-02       1.799398015585e+04 
       3.847720347390e-02       1.674681178274e+04 
       4.135335537314e-02       1.560455913992e+04 
       4.429361666563e-02       1.461031206241e+04 
       4.724366437916e-02       1.378054114632e+04 
       5.016480834039e-02       1.310502072861e+04 
       5.303989618930e-02       1.255718869072e+04 
       5.586870668205e-02       1.210422491339e+04 
       5.866042679206e-02       1.171466914324e+04 
       6.142798931504e-02       1.136049306515e+04 
       6.418496438662e-02       1.101860397721e+04 
       6.694418832236e-02       1.067067989000e+04 
       6.971731104453e-02       1.030353624419e+04 
       7.251476154108e-02       9.909069824383e+03 
       7.534587669814e-02       9.483691770531e+03 
       7.821907664495e-02       9.029391797568e+03 
       8.114203771084e-02       8.552190543858e+03 
       8.412184533139e-02       8.061964425766e+03 
       8.716512277352e-02       7.570797242030e+03 
       9.027813693913e-02       7.092478197416e+03 
       9.346688429613e-02       6.640525515419e+03 
       9.673716026122e-02       6.226716236395e+03 
       1.000946150608e-01       5.859941074109e+03 
       1.035447986307e-01       5.545270470552e+03 
       1.070931966524e-01       5.283167544927e+03 
       1.107452594180e-01       5.069433288462e+03 
       1.145064248899e-01       4.895242722431e+03 
       1.183821370656e-01       4.747852562448e+03 
       1.223778605591e-01       4.611730000238e+03 
       1.264990921707e-01       4.470620672131e+03 
       1.307513701078e-01       4.310171837872e+03 
       1.351402814485e-01       4.121396745612e+03 
       1.396714683894e-01       3.902049088935e+03 
       1.443506337875e-01       3.658644903858e+03 
       1.491835464900e-01       3.404470466151e+03 
       1.541760469368e-01       3.156646804470e+03 
       1.593340535209e-01       2.931940425725e+03 
       1.646635701934e-01       2.742350935766e+03 
       1.701706958081e-01       2.592235317729e+03 
       1.758616357070e-01       2.477220318419e+03 
       1.817427160581e-01       2.385161527563e+03 
       1.878204014651e-01       2.300347779563e+03 
       1.941013163855e-01       2.205776535896e+03 
       2.005922709060e-01       2.090846090937e+03 
       2.073002914514e-01       1.956464253475e+03 
       2.142326570343e-01       1.814174904823e+03 
       2.213969417044e-01       1.679275415316e+03 
       2.288010639201e-01       1.563851405291e+03 
       2.364533436625e-01       1.472670246237e+03 
       2.443625682390e-01       1.401511745724e+03 
       2.525380678946e-01       1.338423922322e+03 
       2.609898025770e-01       1.270899808034e+03 
       2.697284614969e-01       1.193360176786e+03 
       2.787655775073e-01       1.109329343923e+03 
       2.881136588192e-01       1.028762693669e+03 
       2.977863412019e-01       9.604749100543e+02 
       3.077985646248e-01       9.050176271161e+02 
       3.181667793367e-01       8.561346630235e+02 
       3.289091877084e-01       8.061812111182e+02 
       3.400460298905e-01       7.523817028387e+02 
       3.515999235695e-01       6.989134930354e+02 
       3.635962710278e-01       6.510570834486e+02 
       3.760637505499e-01       6.101194710265e+02 
       3.890349143014e-01       5.721255697480e+02 
       4.025469215929e-01       5.337741253227e+02 
       4.166424455447e-01       4.956215072350e+02 
       4.313708034899e-01       4.604638541087e+02 
       4.467893781976e-01       4.287690477177e+02 
       4.629654198623e-01       3.987674526398e+02 
       4.799783500912e-01       3.692345311055e+02 
       4.979227318246e-01       3.412359717519e+02 
       5.169121269689e-01       3.154774074426e+02 
       5.370841403262e-01       2.908295493609e+02 
       5.586070463286e-01       2.671013494906e+02 
       5.816885093582e-01       2.448051162834e+02 
       6.065870143577e-01       2.235657069828e+02 
       6.336266466978e-01       2.032079164106e+02 
       6.632156057925e-01       1.838764146335e+02 
       6.958678637575e-01       1.653522636652e+02 
       7.322247983784e-01       1.476938281180e+02 
       7.730680193171e-01       1.308321184149e+02 
       8.193049551574e-01       1.148299032161e+02 
       8.718988013754e-01       9.976115172636e+01 
       9.317218028590e-01       8.577659112303e+01 
       9.993660906273e-01       7.305327553701e+01 
       1.075037109879e+00       6.173433714189e+01 
       1.158653485387e+00       5.187754320510e+01 
       1.250099156961e+00       4.343885630750e+01 
       1.349432400897e+00       3.628767901697e+01 
       1.456947456991e+00       3.026648145336e+01 
       1.573135110893e+00       2.521319583320e+01 
       1.698621895119e+00       2.098063891099e+01 
       1.834127512423e+00       1.744099103769e+01 
       1.980444933977e+00       1.448430256569e+01 
       2.138435191130e+00       1.201760277519e+01 
       2.309029198543e+00       9.961851985939e+00 
       2.493232376993e+00       8.250535126999e+00 
       2.692130394536e+00       6.827283760870e+00 
       2.906895533764e+00       5.644973782142e+00 
       3.138793596840e+00       4.663604866415e+00 
       3.389191365541e+00       3.849902134922e+00 
       3.659564656886e+00       3.175745046345e+00 
       3.951507021438e+00       2.617684258833e+00 
       4.266739135513e+00       2.156160110086e+00 
       4.607118942658e+00       1.774768260749e+00 
       4.974652604172e+00       1.459850766616e+00 
       5.371506323193e+00       1.199998349018e+00 
       5.800019112071e+00       9.857801912002e-01 
       6.262716578240e+00       8.092674202368e-01 
       6.762325809881e+00       6.639395747402e-01 
       7.301791449077e+00       5.443835708061e-01 
       7.884293047211e+00       4.460812040881e-01 
       8.513263804891e+00       3.653007988986e-01 
       9.192410806865e+00       2.989656492848e-01 
       9.925736871166e+00       2.445267986676e-01 
       1.071756414128e+01       1.998782382127e-01 
       1.157255956041e+01       1.632772373757e-01 
       1.249576237789e+01       1.332926196782e-01 
       1.349261385000e+01       1.087432597466e-01 
       1.456898931011e+01       8.865101303647e-02 
       1.573123279727e+01       7.221867433286e-02 
       1.698619444729e+01       5.878666607984e-02 
       1.834127086665e+01       4.781222666353e-02 
       1.980444872733e+01       3.885160799399e-02 
       2.138435183937e+01       3.153873178328e-02 
       2.309029197863e+01       2.557398194517e-02 
       2.493232376942e+01       2.071151725723e-02 
       2.692130394533e+01       1.675068749640e-02 
       2.906895533764e+01       1.352584877921e-02 
       3.138793596840e+01       1.090209499139e-02 
       3.389191365541e+01       8.769302024959e-03 
       3.659564656886e+01       7.036757036988e-03 
       3.951507021438e+01       5.631000832264e-03 
       4.266739135513e+01       4.491336679395e-03 
       4.607118942658e+01       3.568714093758e-03 
       4.974652604172e+01       2.822983960668e-03 
       5.371506323193e+01       2.221216172356e-03 
       5.800019112071e+01       1.736758256787e-03 
       6.262716578240e+01       1.347825653328e-03 
       6.762325809881e+01       1.036651777413e-03 
