# Matter power spectrum P(k) at redshift z=0
# for k=1.04775e-05 to 66.1767 h/Mpc,
# number of wavenumbers equal to 130
#    1:k (h/Mpc)              2:P (Mpc/h)^3        
       1.047750691046e-05       5.020964811312e+01 
       1.319039970183e-05       6.270562594779e+01 
       1.660572937635e-05       7.831147247912e+01 
       2.090537469327e-05       9.780108069295e+01 
       2.631830744443e-05       1.221408203809e+02 
       3.313278603720e-05       1.525374501932e+02 
       4.171170630578e-05       1.904975994009e+02 
       5.251192703764e-05       2.379022224249e+02 
       6.610859936996e-05       2.970989227882e+02 
       8.322579568497e-05       3.710167318946e+02 
       1.047750691046e-04       4.633080766742e+02 
       1.319039970183e-04       5.785234129329e+02 
       1.660572937635e-04       7.223242666092e+02 
       2.090537469327e-04       9.017396271824e+02 
       2.631830744443e-04       1.125468123750e+03 
       3.313278603720e-04       1.404223053681e+03 
       4.171170630578e-04       1.751108028790e+03 
       5.251192703764e-04       2.181998448133e+03 
       6.610859936996e-04       2.715889983593e+03 
       8.322579568497e-04       3.375152337134e+03 
       1.047750691046e-03       4.185552174307e+03 
       1.319039970183e-03       5.175742738166e+03 
       1.660572937635e-03       6.376123051778e+03 
       2.090537469327e-03       7.815671862819e+03 
       2.631830744443e-03       9.517783069112e+03 
       3.313278603720e-03       1.149357460342e+04 
       4.171170630578e-03       1.373266009658e+04 
       5.251192703764e-03       1.619063614560e+04 
       6.610859936996e-03       1.877460421733e+04 
       8.322579568497e-03       2.132606535494e+04 
       1.047750691046e-02       2.360548421334e+04 
       1.319039970183e-02       2.528218777928e+04 
       1.660572937633e-02       2.595026874329e+04 
       2.090537453514e-02       2.520934704788e+04 
       2.631818545635e-02       2.287035563103e+04 
       3.311571692125e-02       1.928622576246e+04 
       4.113809243311e-02       1.568427168584e+04 
       4.792590854610e-02       1.361063577008e+04 
       5.284436902701e-02       1.259129398537e+04 
       5.689644391095e-02       1.195553436558e+04 
       6.051252627066e-02       1.147547615193e+04 
       6.388413457411e-02       1.105589003939e+04 
       6.711249296401e-02       1.064899990009e+04 
       7.025823437965e-02       1.022930402065e+04 
       7.336115587705e-02       9.784537275383e+03 
       7.644928796912e-02       9.311671081335e+03 
       7.954353299775e-02       8.814551367881e+03 
       8.266024078725e-02       8.302119939297e+03 
       8.581273398637e-02       7.786957290620e+03 
       8.901225918437e-02       7.283177662023e+03 
       9.226860540985e-02       6.805153976030e+03 
       9.559052048996e-02       6.365660230576e+03 
       9.898599946599e-02       5.974407612552e+03 
       1.024624891378e-01       5.637333418644e+03 
       1.060270359164e-01       5.355767384608e+03 
       1.096863943056e-01       5.126239529057e+03 
       1.134471073830e-01       4.940481657205e+03 
       1.173155669539e-01       4.786166710115e+03 
       1.212980586983e-01       4.647947679676e+03 
       1.254007961065e-01       4.509154782920e+03 
       1.296299459934e-01       4.354562860500e+03 
       1.339916477160e-01       4.173216656249e+03 
       1.384920277736e-01       3.961164539378e+03 
       1.431372111762e-01       3.722683206604e+03 
       1.479333307714e-01       3.469548556424e+03 
       1.528865355934e-01       3.218335203657e+03 
       1.580029992204e-01       2.986295814754e+03 
       1.632889290723e-01       2.786967417815e+03 
       1.687505775527e-01       2.626827866531e+03 
       1.743942559171e-01       2.503760268799e+03 
       1.802263517371e-01       2.407340368138e+03 
       1.862533508214e-01       2.322252251935e+03 
       1.924818644494e-01       2.231552891981e+03 
       1.989186627765e-01       2.122192249333e+03 
       2.055707152847e-01       1.992024965311e+03 
       2.124452391818e-01       1.850332654590e+03 
       2.195497567139e-01       1.712184480034e+03 
       2.268921624510e-01       1.590990872302e+03 
       2.344808017550e-01       1.493667284589e+03 
       2.423245618548e-01       1.418311117568e+03 
       2.504329772620e-01       1.354465869179e+03 
       2.588163516754e-01       1.288933977905e+03 
       2.674858990930e-01       1.213938123746e+03 
       2.764539076010e-01       1.130692196358e+03 
       2.857339303080e-01       1.048096293589e+03 
       2.953410092148e-01       9.761830816494e+02 
       3.052919395542e-01       9.178082762088e+02 
       3.156055844677e-01       8.678966646021e+02 
       3.263032530092e-01       8.185262397035e+02 
       3.374091587054e-01       7.651479330081e+02 
       3.489509817175e-01       7.106717934579e+02 
       3.609605657343e-01       6.607860793817e+02 
       3.734747921333e-01       6.180863317433e+02 
       3.865366902904e-01       5.793119074224e+02 
       4.001968667448e-01       5.403913694472e+02 
       4.145153713076e-01       5.011517696902e+02 
       4.295641718077e-01       4.644997030781e+02 
       4.454304922144e-01       4.314085687656e+02 
       4.622214006969e-01       4.001127911994e+02 
       4.800702491654e-01       3.690886091416e+02 
       4.991459272112e-01       3.394781193219e+02 
       5.196665217302e-01       3.119854576335e+02 
       5.419201087032e-01       2.852465807202e+02 
       5.662975451962e-01       2.593308005499e+02 
       5.933463737275e-01       2.345477399730e+02 
       6.238638458458e-01       2.102309397883e+02 
       6.590669257916e-01       1.864333735248e+02 
       7.009246080454e-01       1.627253738851e+02 
       7.528593308799e-01       1.388179086033e+02 
       8.213469537518e-01       1.141885387020e+02 
       9.196980813302e-01       8.835946329260e+01 
       1.075112183810e+00       6.172614305166e+01 
       1.322697471132e+00       3.804285450037e+01 
       1.662328205042e+00       2.209795103278e+01 
       2.092692408506e+00       1.266922620887e+01 
       2.634543445090e+00       7.203344539008e+00 
       3.316693691389e+00       4.065162749043e+00 
       4.175469971226e+00       2.278609742744e+00 
       5.256605252960e+00       1.269358853396e+00 
       6.617673932723e+00       7.031341219074e-01 
       8.331157880872e+00       3.874785144416e-01 
       1.048830636590e+01       2.125128849753e-01 
       1.320399541071e+01       1.160368784099e-01 
       1.662284535976e+01       6.309901637420e-02 
       2.092692243973e+01       3.417950179423e-02 
       2.634543445002e+01       1.844603744722e-02 
       3.316693691389e+01       9.919221125365e-03 
       4.175469971226e+01       5.314630586189e-03 
       5.256605252960e+01       2.836697248754e-03 
       6.617673932723e+01       1.507705416821e-03 
