# Matter power spectrum P(k) at redshift z=0
# for k=1.04775e-05 to 66.1767 h/Mpc,
# number of wavenumbers equal to 130
#    1:k (h/Mpc)              2:P (Mpc/h)^3        
       1.047750691046e-05       5.020964811305e+01 
       1.319039970183e-05       6.270562594777e+01 
       1.660572937635e-05       7.831147247912e+01 
       2.090537469327e-05       9.780108069295e+01 
       2.631830744443e-05       1.221408203809e+02 
       3.313278603720e-05       1.525374501932e+02 
       4.171170630578e-05       1.904975994009e+02 
       5.251192703764e-05       2.379022224249e+02 
       6.610859936996e-05       2.970989227881e+02 
       8.322579568497e-05       3.710167318945e+02 
       1.047750691046e-04       4.633080766742e+02 
       1.319039970183e-04       5.785234129335e+02 
       1.660572937635e-04       7.223242666092e+02 
       2.090537469327e-04       9.017396271824e+02 
       2.631830744443e-04       1.125468123750e+03 
       3.313278603720e-04       1.404223053681e+03 
       4.171170630578e-04       1.751108028790e+03 
       5.251192703764e-04       2.181998448133e+03 
       6.610859936996e-04       2.715889983592e+03 
       8.322579568497e-04       3.375152337134e+03 
       1.047750691046e-03       4.185552174306e+03 
       1.319039970183e-03       5.175742744410e+03 
       1.660572937635e-03       6.376123051777e+03 
       2.090537469327e-03       7.815671866295e+03 
       2.631830744443e-03       9.517783069112e+03 
       3.313278603720e-03       1.149357460346e+04 
       4.171170630578e-03       1.373266014435e+04 
       5.251192703764e-03       1.619063614560e+04 
       6.610859936996e-03       1.877460411672e+04 
       8.322579568497e-03       2.132607231821e+04 
       1.047750691046e-02       2.360548771293e+04 
       1.319039970183e-02       2.528218654746e+04 
       1.660572937633e-02       2.595027006578e+04 
       2.090537453514e-02       2.520933076872e+04 
       2.631818545635e-02       2.287033829040e+04 
       3.311571692125e-02       1.928618471959e+04 
       4.113809243311e-02       1.568418606448e+04 
       4.792590854610e-02       1.361060427910e+04 
       5.284436902701e-02       1.259127287272e+04 
       5.689644391095e-02       1.195553935416e+04 
       6.051252627066e-02       1.147548646596e+04 
       6.388413457411e-02       1.105589059240e+04 
       6.711249296401e-02       1.064900167923e+04 
       7.025823437965e-02       1.022928576431e+04 
       7.336115587705e-02       9.784538945467e+03 
       7.644928796912e-02       9.311658482488e+03 
       7.954353299775e-02       8.814549678366e+03 
       8.266024078725e-02       8.302126943808e+03 
       8.581273398637e-02       7.786933322473e+03 
       8.901225918437e-02       7.283172994138e+03 
       9.226860540985e-02       6.805164644074e+03 
       9.559052048996e-02       6.365628868839e+03 
       9.898599946599e-02       5.974399353048e+03 
       1.024624891378e-01       5.637324074446e+03 
       1.060270359164e-01       5.355761348126e+03 
       1.096863943056e-01       5.126239014623e+03 
       1.134471073830e-01       4.940484029348e+03 
       1.173155669539e-01       4.786172086752e+03 
       1.212980586983e-01       4.647931360165e+03 
       1.254007961065e-01       4.509150129889e+03 
       1.296299459934e-01       4.354552841049e+03 
       1.339916477160e-01       4.173219044313e+03 
       1.384920277736e-01       3.961165647855e+03 
       1.431372111762e-01       3.722684363981e+03 
       1.479333307714e-01       3.469552363556e+03 
       1.528865355934e-01       3.218330302193e+03 
       1.580029992204e-01       2.986296236044e+03 
       1.632889290723e-01       2.786965080304e+03 
       1.687505775527e-01       2.626827809194e+03 
       1.743942559171e-01       2.503760046240e+03 
       1.802263517371e-01       2.407346392845e+03 
       1.862533508214e-01       2.322253285055e+03 
       1.924818644494e-01       2.231553715622e+03 
       1.989186627765e-01       2.122189477316e+03 
       2.055707152847e-01       1.992025311053e+03 
       2.124452391818e-01       1.850328137875e+03 
       2.195497567139e-01       1.712184723690e+03 
       2.268921624510e-01       1.590997341083e+03 
       2.344808017550e-01       1.493667868086e+03 
       2.423245618548e-01       1.418311858252e+03 
       2.504329772620e-01       1.354462365326e+03 
       2.588163516754e-01       1.288933433151e+03 
       2.674858990930e-01       1.213936251583e+03 
       2.764539076010e-01       1.130694934145e+03 
       2.857339303080e-01       1.048104519693e+03 
       2.953410092148e-01       9.761824676552e+02 
       3.052919395542e-01       9.178099653824e+02 
       3.156055844677e-01       8.678997408548e+02 
       3.263032530092e-01       8.185256173057e+02 
       3.374091587054e-01       7.651480084594e+02 
       3.489509817175e-01       7.106704002207e+02 
       3.609605657343e-01       6.607858606598e+02 
       3.734747921333e-01       6.180881303864e+02 
       3.865366902904e-01       5.793109818547e+02 
       4.001968667448e-01       5.403912852641e+02 
       4.145153713076e-01       5.011516774496e+02 
       4.295641718077e-01       4.644994349383e+02 
       4.454304922144e-01       4.314098754612e+02 
       4.622214006969e-01       4.001140159385e+02 
       4.800702491654e-01       3.690896496954e+02 
       4.991459272112e-01       3.394767017505e+02 
       5.196665217302e-01       3.119859307825e+02 
       5.419201087032e-01       2.852471424551e+02 
       5.662975451962e-01       2.593308522555e+02 
       5.933463737275e-01       2.345485515932e+02 
       6.238638458458e-01       2.102302245585e+02 
       6.590669257916e-01       1.864333250712e+02 
       7.009246080454e-01       1.627249768472e+02 
       7.528593308799e-01       1.388185242928e+02 
       8.213469537518e-01       1.141881280003e+02 
       9.196980813302e-01       8.835933284741e+01 
       1.075112183810e+00       6.172607563534e+01 
       1.322697471132e+00       3.804259024884e+01 
       1.662328205042e+00       2.209809278537e+01 
       2.092692408506e+00       1.266918684340e+01 
       2.634543445090e+00       7.203362113846e+00 
       3.316693691389e+00       4.065153582671e+00 
       4.175469971226e+00       2.278626316245e+00 
       5.256605252960e+00       1.269357622828e+00 
       6.617673932723e+00       7.031365866902e-01 
       8.331157880872e+00       3.874775912895e-01 
       1.048830636590e+01       2.125111818138e-01 
       1.320399541071e+01       1.160372167409e-01 
       1.662284535976e+01       6.309968020968e-02 
       2.092692243973e+01       3.417957846175e-02 
       2.634543445002e+01       1.844621113576e-02 
       3.316693691389e+01       9.919145306428e-03 
       4.175469971226e+01       5.314614907093e-03 
       5.256605252960e+01       2.836674479451e-03 
       6.617673932723e+01       1.507696621956e-03 
