# Matter power spectrum P(k) at redshift z=0
# for k=1.04775e-05 to 66.1767 h/Mpc,
# number of wavenumbers equal to 130
#    1:k (h/Mpc)              2:P (Mpc/h)^3        
       1.047750691046e-05       5.020964811311e+01 
       1.319039970183e-05       6.270562594785e+01 
       1.660572937635e-05       7.831147247912e+01 
       2.090537469327e-05       9.780108069295e+01 
       2.631830744443e-05       1.221408203809e+02 
       3.313278603720e-05       1.525374501932e+02 
       4.171170630578e-05       1.904975994009e+02 
       5.251192703764e-05       2.379022224249e+02 
       6.610859936996e-05       2.970989227882e+02 
       8.322579568497e-05       3.710167318945e+02 
       1.047750691046e-04       4.633080766742e+02 
       1.319039970183e-04       5.785234129331e+02 
       1.660572937635e-04       7.223242666092e+02 
       2.090537469327e-04       9.017396271824e+02 
       2.631830744443e-04       1.125468123750e+03 
       3.313278603720e-04       1.404223053681e+03 
       4.171170630578e-04       1.751108028789e+03 
       5.251192703764e-04       2.181998448133e+03 
       6.610859936996e-04       2.715889983592e+03 
       8.322579568497e-04       3.375152337134e+03 
       1.047750691046e-03       4.185552174307e+03 
       1.319039970183e-03       5.175742739537e+03 
       1.660572937635e-03       6.376123051777e+03 
       2.090537469327e-03       7.815671868669e+03 
       2.631830744443e-03       9.517783069112e+03 
       3.313278603720e-03       1.149357460345e+04 
       4.171170630578e-03       1.373266013090e+04 
       5.251192703764e-03       1.619063614560e+04 
       6.610859936996e-03       1.877460407895e+04 
       8.322579568497e-03       2.132607231933e+04 
       1.047750691046e-02       2.360547702991e+04 
       1.319039970183e-02       2.528218876890e+04 
       1.660572937633e-02       2.595027695611e+04 
       2.090537453514e-02       2.520936658212e+04 
       2.631818545635e-02       2.287038102060e+04 
       3.311571692125e-02       1.928620961569e+04 
       4.113809243311e-02       1.568426563300e+04 
       4.792590854610e-02       1.361063549590e+04 
       5.284436902701e-02       1.259129015567e+04 
       5.689644391095e-02       1.195555981649e+04 
       6.051252627066e-02       1.147544676625e+04 
       6.388413457411e-02       1.105590995155e+04 
       6.711249296401e-02       1.064901443200e+04 
       7.025823437965e-02       1.022929753136e+04 
       7.336115587705e-02       9.784532872864e+03 
       7.644928796912e-02       9.311667750996e+03 
       7.954353299775e-02       8.814544889377e+03 
       8.266024078725e-02       8.302106089945e+03 
       8.581273398637e-02       7.786956693676e+03 
       8.901225918437e-02       7.283164678026e+03 
       9.226860540985e-02       6.805165043138e+03 
       9.559052048996e-02       6.365647175115e+03 
       9.898599946599e-02       5.974393647248e+03 
       1.024624891378e-01       5.637335770772e+03 
       1.060270359164e-01       5.355764585808e+03 
       1.096863943056e-01       5.126238145681e+03 
       1.134471073830e-01       4.940486311517e+03 
       1.173155669539e-01       4.786164968889e+03 
       1.212980586983e-01       4.647925266360e+03 
       1.254007961065e-01       4.509152716902e+03 
       1.296299459934e-01       4.354552554455e+03 
       1.339916477160e-01       4.173220353679e+03 
       1.384920277736e-01       3.961162121252e+03 
       1.431372111762e-01       3.722676064467e+03 
       1.479333307714e-01       3.469549927655e+03 
       1.528865355934e-01       3.218341641682e+03 
       1.580029992204e-01       2.986291575697e+03 
       1.632889290723e-01       2.786965689022e+03 
       1.687505775527e-01       2.626830973306e+03 
       1.743942559171e-01       2.503759745721e+03 
       1.802263517371e-01       2.407345442177e+03 
       1.862533508214e-01       2.322250365644e+03 
       1.924818644494e-01       2.231551558124e+03 
       1.989186627765e-01       2.122192987827e+03 
       2.055707152847e-01       1.992028148781e+03 
       2.124452391818e-01       1.850325289345e+03 
       2.195497567139e-01       1.712184558906e+03 
       2.268921624510e-01       1.590989073730e+03 
       2.344808017550e-01       1.493669608250e+03 
       2.423245618548e-01       1.418314137269e+03 
       2.504329772620e-01       1.354464847801e+03 
       2.588163516754e-01       1.288932083856e+03 
       2.674858990930e-01       1.213937912456e+03 
       2.764539076010e-01       1.130694743691e+03 
       2.857339303080e-01       1.048101745247e+03 
       2.953410092148e-01       9.761816856761e+02 
       3.052919395542e-01       9.178111391908e+02 
       3.156055844677e-01       8.678985026551e+02 
       3.263032530092e-01       8.185265501692e+02 
       3.374091587054e-01       7.651464917492e+02 
       3.489509817175e-01       7.106732001932e+02 
       3.609605657343e-01       6.607869333926e+02 
       3.734747921333e-01       6.180854336347e+02 
       3.865366902904e-01       5.793116283527e+02 
       4.001968667448e-01       5.403919157139e+02 
       4.145153713076e-01       5.011510193256e+02 
       4.295641718077e-01       4.644987841636e+02 
       4.454304922144e-01       4.314094503336e+02 
       4.622214006969e-01       4.001140897379e+02 
       4.800702491654e-01       3.690875091222e+02 
       4.991459272112e-01       3.394756466291e+02 
       5.196665217302e-01       3.119862818142e+02 
       5.419201087032e-01       2.852473419502e+02 
       5.662975451962e-01       2.593303355803e+02 
       5.933463737275e-01       2.345489842732e+02 
       6.238638458458e-01       2.102309026728e+02 
       6.590669257916e-01       1.864334651471e+02 
       7.009246080454e-01       1.627251730133e+02 
       7.528593308799e-01       1.388186546882e+02 
       8.213469537518e-01       1.141884036000e+02 
       9.196980813302e-01       8.835925646241e+01 
       1.075112183810e+00       6.172612816755e+01 
       1.322697471132e+00       3.804275990852e+01 
       1.662328205042e+00       2.209798812794e+01 
       2.092692408506e+00       1.266922836282e+01 
       2.634543445090e+00       7.203352461312e+00 
       3.316693691389e+00       4.065189007487e+00 
       4.175469971226e+00       2.278618069621e+00 
       5.256605252960e+00       1.269353523133e+00 
       6.617673932723e+00       7.031420834019e-01 
       8.331157880872e+00       3.874803236185e-01 
       1.048830636590e+01       2.125100745575e-01 
       1.320399541071e+01       1.160371179608e-01 
       1.662284535976e+01       6.309907085077e-02 
       2.092692243973e+01       3.417977444810e-02 
       2.634543445002e+01       1.844620034505e-02 
       3.316693691389e+01       9.919218768961e-03 
       4.175469971226e+01       5.314695201894e-03 
       5.256605252960e+01       2.836615140915e-03 
       6.617673932723e+01       1.507701759602e-03 
