# Matter power spectrum P(k) at redshift z=99
# for k=1.04775e-05 to 67.6233 h/Mpc,
# number of wavenumbers equal to 246
#    1:k (h/Mpc)              2:P (Mpc/h)^3        
       1.047750691046e-05       7.261927680861e-03 
       1.131335172503e-05       7.820331652431e-03 
       1.221587619537e-05       8.421675995453e-03 
       1.319039970183e-05       9.069258201848e-03 
       1.424266597921e-05       9.766638412133e-03 
       1.537887696968e-05       1.051764070801e-02 
       1.660572937635e-05       1.132639106725e-02 
       1.793045413292e-05       1.219733232715e-02 
       1.936085902198e-05       1.313524225779e-02 
       2.090537469327e-05       1.414527123399e-02 
       2.257310435294e-05       1.523296273823e-02 
       2.437387741694e-05       1.640429446288e-02 
       2.631830744443e-05       1.766569584058e-02 
       2.841785469300e-05       1.902408737005e-02 
       3.068489366414e-05       2.048692972772e-02 
       3.313278603720e-05       2.206225515942e-02 
       3.577595942169e-05       2.375870707438e-02 
       3.862999239199e-05       2.558560730202e-02 
       4.171170630578e-05       2.755297766277e-02 
       4.503926444729e-05       2.967161930474e-02 
       4.863227907969e-05       3.195316454233e-02 
       5.251192703764e-05       3.441013522947e-02 
       5.670107454120e-05       3.705601726469e-02 
       6.122441196689e-05       3.990533417795e-02 
       6.610859936996e-05       4.297372172777e-02 
       7.138242361596e-05       4.627802146614e-02 
       7.707696804727e-05       4.983636199464e-02 
       8.322579568497e-05       5.366826852944e-02 
       8.986514704559e-05       5.779476400720e-02 
       9.703415373875e-05       6.223848250510e-02 
       1.047750691046e-04       6.702379872774e-02 
       1.131335172503e-04       7.217695161064e-02 
       1.221587619537e-04       7.772619081843e-02 
       1.319039970183e-04       8.370193441285e-02 
       1.424266597921e-04       9.013692517141e-02 
       1.537887696968e-04       9.706641252902e-02 
       1.660572937635e-04       1.045283355384e-01 
       1.793045413292e-04       1.125635350266e-01 
       1.936085902198e-04       1.212159616259e-01 
       2.090537469327e-04       1.305329134104e-01 
       2.257310435294e-04       1.405652847711e-01 
       2.437387741694e-04       1.513678304151e-01 
       2.631830744443e-04       1.629994506605e-01 
       2.841785469300e-04       1.755234923092e-01 
       3.068489366414e-04       1.890080672425e-01 
       3.313278603720e-04       2.035264004601e-01 
       3.577595942169e-04       2.191571806013e-01 
       3.862999239199e-04       2.359849440104e-01 
       4.171170630578e-04       2.541004744243e-01 
       4.503926444729e-04       2.736012083189e-01 
       4.863227907969e-04       2.945916794099e-01 
       5.251192703764e-04       3.171839528557e-01 
       5.670107454121e-04       3.414980767635e-01 
       6.122441196689e-04       3.676625417011e-01 
       6.610859936996e-04       3.958147256513e-01 
       7.138242361596e-04       4.261013289358e-01 
       7.707696804727e-04       4.586787797352e-01 
       8.322579568497e-04       4.937136006279e-01 
       8.986514704559e-04       5.313826807049e-01 
       9.703415373875e-04       5.718734978233e-01 
       1.047750691046e-03       6.153841636040e-01 
       1.131335172503e-03       6.621233246495e-01 
       1.221587619537e-03       7.123098227984e-01 
       1.319039970183e-03       7.661720592600e-01 
       1.424266597921e-03       8.239546306466e-01 
       1.537887696968e-03       8.859011182851e-01 
       1.660572937635e-03       9.522588016478e-01 
       1.793045413292e-03       1.023280100902e+00 
       1.936085902198e-03       1.099216305740e+00 
       2.090537469327e-03       1.180312991699e+00 
       2.257310435294e-03       1.266804117186e+00 
       2.437387741694e-03       1.358904854834e+00 
       2.631830744443e-03       1.456802684686e+00 
       2.841785469300e-03       1.560646892157e+00 
       3.068489366414e-03       1.670536064244e+00 
       3.313278603720e-03       1.786503854037e+00 
       3.577595942169e-03       1.908502932769e+00 
       3.862999239199e-03       2.036387732815e+00 
       4.171170630578e-03       2.169896197790e+00 
       4.503926444729e-03       2.308631881359e+00 
       4.863227907969e-03       2.452047293459e+00 
       5.251192703764e-03       2.599430630722e+00 
       5.670107454120e-03       2.749896934590e+00 
       6.122441196689e-03       2.902386516276e+00 
       6.610859936996e-03       3.055668704899e+00 
       7.138242361596e-03       3.208356464663e+00 
       7.707696804727e-03       3.358923895793e+00 
       8.322579568496e-03       3.505725598577e+00 
       8.986514704559e-03       3.647009706916e+00 
       9.703415373875e-03       3.780923307722e+00 
       1.047750691046e-02       3.905490402848e+00 
       1.131335172503e-02       4.018587644749e+00 
       1.221587619537e-02       4.117901592932e+00 
       1.319039970183e-02       4.200915381955e+00 
       1.424266597920e-02       4.264944825929e+00 
       1.537887696964e-02       4.307218488228e+00 
       1.660572937560e-02       4.325062806597e+00 
       1.793045412207e-02       4.316058046396e+00 
       1.936085889642e-02       4.278231250340e+00 
       2.090537351881e-02       4.210202452682e+00 
       2.257309534705e-02       4.111419885090e+00 
       2.437382002240e-02       3.982418097774e+00 
       2.631799943729e-02       3.825164363183e+00 
       2.841644544598e-02       3.643286828564e+00 
       3.067933354524e-02       3.442195226843e+00 
       3.311368469821e-02       3.229239291702e+00 
       3.571840442514e-02       3.013513961895e+00 
       3.847720347390e-02       2.805281809297e+00 
       4.135335537314e-02       2.614407307186e+00 
       4.429361666563e-02       2.448124959727e+00 
       4.724366437916e-02       2.309238483334e+00 
       5.016480834039e-02       2.196109403316e+00 
       5.303989618930e-02       2.104362191772e+00 
       5.586870668205e-02       2.028463862720e+00 
       5.866042679206e-02       1.963155078803e+00 
       6.142798931504e-02       1.903780894907e+00 
       6.418496438662e-02       1.846479238785e+00 
       6.694418832236e-02       1.788196344755e+00 
       6.971731104453e-02       1.726715918980e+00 
       7.251476154108e-02       1.660652610131e+00 
       7.534587669814e-02       1.589469770376e+00 
       7.821907664495e-02       1.513440133685e+00 
       8.114203771084e-02       1.433569058046e+00 
       8.412184533139e-02       1.351491705484e+00 
       8.716512277352e-02       1.269272818675e+00 
       9.027813693913e-02       1.189194048581e+00 
       9.346688429613e-02       1.113505018813e+00 
       9.673716026122e-02       1.044175508427e+00 
       1.000946150608e-01       9.827059186871e-01 
       1.035447986307e-01       9.299338412054e-01 
       1.070931966524e-01       8.859571014992e-01 
       1.107452594180e-01       8.500721207042e-01 
       1.145064248899e-01       8.208029364912e-01 
       1.183821370656e-01       7.960274874209e-01 
       1.223778605591e-01       7.731463171946e-01 
       1.264990921707e-01       7.494517182960e-01 
       1.307513701078e-01       7.225582187627e-01 
       1.351402814485e-01       6.909088166626e-01 
       1.396714683894e-01       6.541811529859e-01 
       1.443506337875e-01       6.134270496678e-01 
       1.491835464900e-01       5.708684700423e-01 
       1.541760469368e-01       5.293637349555e-01 
       1.593340535209e-01       4.917108088198e-01 
       1.646635701934e-01       4.599205811069e-01 
       1.701706958081e-01       4.347290080645e-01 
       1.758616357070e-01       4.154083140218e-01 
       1.817427160581e-01       3.999370718285e-01 
       1.878204014651e-01       3.856830344932e-01 
       1.941013163855e-01       3.698093313956e-01 
       2.005922709060e-01       3.505459797902e-01 
       2.073002914514e-01       3.280436105540e-01 
       2.142326570343e-01       3.042148870932e-01 
       2.213969417044e-01       2.816117968592e-01 
       2.288010639201e-01       2.622575579096e-01 
       2.364533436625e-01       2.469620755635e-01 
       2.443625682390e-01       2.350135018237e-01 
       2.525380678946e-01       2.244184165144e-01 
       2.609898025770e-01       2.130935291215e-01 
       2.697284614969e-01       2.001017032393e-01 
       2.787655775073e-01       1.860199549739e-01 
       2.881136588192e-01       1.725170826210e-01 
       2.977863412019e-01       1.610662282421e-01 
       3.077985646248e-01       1.517608472575e-01 
       3.181667793367e-01       1.435596794483e-01 
       3.289091877084e-01       1.351816569290e-01 
       3.400460298905e-01       1.261644444448e-01 
       3.515999235695e-01       1.172020640825e-01 
       3.635962710278e-01       1.091766897316e-01 
       3.760637505499e-01       1.023093865353e-01 
       3.890349143014e-01       9.593771198904e-02 
       4.025469215929e-01       8.950774076394e-02 
       4.166424455447e-01       8.311182485554e-02 
       4.313708034899e-01       7.721568303446e-02 
       4.467893781976e-01       7.190065428928e-02 
       4.629654198623e-01       6.686916315324e-02 
       4.799783500912e-01       6.191747789088e-02 
       4.979227318246e-01       5.722225110239e-02 
       5.169121269689e-01       5.290287669863e-02 
       5.370841403262e-01       4.876970768030e-02 
       5.586070463286e-01       4.479071435584e-02 
       5.816885093582e-01       4.105184694945e-02 
       6.065870143577e-01       3.748992750602e-02 
       6.336266466978e-01       3.407623084752e-02 
       6.632156057925e-01       3.083460127094e-02 
       6.958678637575e-01       2.772825569659e-02 
       7.322247983784e-01       2.476710803685e-02 
       7.730680193171e-01       2.193951392609e-02 
       8.193049551574e-01       1.925610932219e-02 
       8.718988013754e-01       1.672927150449e-02 
       9.317218028590e-01       1.438421026195e-02 
       9.993660906273e-01       1.225066179233e-02 
       1.075037109879e+00       1.035256032774e-02 
       1.158653485387e+00       8.699696076082e-03 
       1.250099156961e+00       7.284542862103e-03 
       1.349432400897e+00       6.085416810596e-03 
       1.456947456991e+00       5.075648644755e-03 
       1.573135110893e+00       4.228215861738e-03 
       1.698621895119e+00       3.518458022042e-03 
       1.834127512423e+00       2.924886399716e-03 
       1.980444933977e+00       2.429059359510e-03 
       2.138435191130e+00       2.015399017967e-03 
       2.309029198543e+00       1.670634227073e-03 
       2.493232376993e+00       1.383648081455e-03 
       2.692130394536e+00       1.144960777489e-03 
       2.906895533764e+00       9.466734222113e-04 
       3.138793596840e+00       7.820926933053e-04 
       3.389191365541e+00       6.456062348636e-04 
       3.659564656886e+00       5.325263457769e-04 
       3.951507021438e+00       4.389223199707e-04 
       4.266739135513e+00       3.615000458799e-04 
       4.607118942658e+00       2.975127586754e-04 
       4.974652604172e+00       2.446698341422e-04 
       5.371506323193e+00       2.010608571943e-04 
       5.800019112071e+00       1.650972408369e-04 
       6.262716578240e+00       1.354585643870e-04 
       6.762325809881e+00       1.110467200769e-04 
       7.301791449077e+00       9.095188521600e-05 
       7.884293047211e+00       7.441762813824e-05 
       8.513263804891e+00       6.082164209097e-05 
       9.192410806865e+00       4.964411893114e-05 
       9.925736871166e+00       4.045911335764e-05 
       1.071756414128e+01       3.291313621379e-05 
       1.157255956041e+01       2.671455111084e-05 
       1.249576237789e+01       2.162388648694e-05 
       1.349261385000e+01       1.744292300072e-05 
       1.456898931011e+01       1.400973796582e-05 
       1.573123279727e+01       1.119051878125e-05 
       1.698619444729e+01       8.876086336153e-06 
       1.834127086665e+01       6.977334830269e-06 
       1.980444872733e+01       5.421544783548e-06 
       2.138435183937e+01       4.149664022368e-06 
       2.309029197863e+01       3.114189912438e-06 
       2.493232376942e+01       2.277027509811e-06 
       2.692130394533e+01       1.607552902114e-06 
       2.906895533764e+01       1.081502769222e-06 
       3.138793596840e+01       6.791945125380e-07 
       3.389191365541e+01       3.844056258170e-07 
       3.659564656886e+01       1.830191009132e-07 
       3.951507021438e+01       6.175142343262e-08 
       4.266739135513e+01       7.021538623623e-09 
       4.607118942658e+01       4.076156002770e-09 
       4.974652604172e+01       3.658933800864e-08 
       5.371506323193e+01       8.698895633932e-08 
       5.800019112071e+01       1.377029099008e-07 
       6.262716578240e+01       1.733469946160e-07 
       6.762325809881e+01       1.835109249246e-07 
