# Matter power spectrum P(k) at redshift z=99
# for k=1.04775e-05 to 66.1767 h/Mpc,
# number of wavenumbers equal to 130
#    1:k (h/Mpc)              2:P (Mpc/h)^3        
       1.047750691046e-05       7.261927680867e-03 
       1.319039970183e-05       9.069258201855e-03 
       1.660572937635e-05       1.132639106726e-02 
       2.090537469327e-05       1.414527123400e-02 
       2.631830744443e-05       1.766569584059e-02 
       3.313278603720e-05       2.206225515944e-02 
       4.171170630578e-05       2.755297766279e-02 
       5.251192703764e-05       3.441013522950e-02 
       6.610859936996e-05       4.297372172781e-02 
       8.322579568497e-05       5.366826852948e-02 
       1.047750691046e-04       6.702379872779e-02 
       1.319039970183e-04       8.370193441292e-02 
       1.660572937635e-04       1.045283355385e-01 
       2.090537469327e-04       1.305329134105e-01 
       2.631830744443e-04       1.629994506607e-01 
       3.313278603720e-04       2.035264004603e-01 
       4.171170630578e-04       2.541004744245e-01 
       5.251192703764e-04       3.171839528560e-01 
       6.610859936996e-04       3.958147256516e-01 
       8.322579568497e-04       4.937136006280e-01 
       1.047750691046e-03       6.153841636044e-01 
       1.319039970183e-03       7.661720592523e-01 
       1.660572937635e-03       9.522588016468e-01 
       2.090537469327e-03       1.180312991699e+00 
       2.631830744443e-03       1.456802684683e+00 
       3.313278603720e-03       1.786503854034e+00 
       4.171170630578e-03       2.169896195702e+00 
       5.251192703764e-03       2.599430630691e+00 
       6.610859936996e-03       3.055668705937e+00 
       8.322579568497e-03       3.505724932709e+00 
       1.047750691046e-02       3.905491121114e+00 
       1.319039970183e-02       4.200915317170e+00 
       1.660572937633e-02       4.325061816559e+00 
       2.090537453514e-02       4.210203521594e+00 
       2.631818545635e-02       3.825158374763e+00 
       3.311571692125e-02       3.229072248339e+00 
       4.113809243311e-02       2.627734291663e+00 
       4.792590854610e-02       2.280789599093e+00 
       5.284436902701e-02       2.110086851300e+00 
       5.689644391095e-02       2.003539067027e+00 
       6.051252627066e-02       1.923056419608e+00 
       6.388413457411e-02       1.852731257531e+00 
       6.711249296401e-02       1.784564783422e+00 
       7.025823437965e-02       1.714273732475e+00 
       7.336115587705e-02       1.639812701089e+00 
       7.644928796912e-02       1.560661901750e+00 
       7.954353299775e-02       1.477458075937e+00 
       8.266024078725e-02       1.391697431557e+00 
       8.581273398637e-02       1.305462090734e+00 
       8.901225918437e-02       1.221123793641e+00 
       9.226860540985e-02       1.141081116636e+00 
       9.559052048996e-02       1.067449353742e+00 
       9.898599946599e-02       1.001890697977e+00 
       1.024624891378e-01       9.453816737898e-01 
       1.060270359164e-01       8.981481173739e-01 
       1.096863943056e-01       8.596136518209e-01 
       1.134471073830e-01       8.284076623684e-01 
       1.173155669539e-01       8.024669730596e-01 
       1.212980586983e-01       7.792303444145e-01 
       1.254007961065e-01       7.559190001269e-01 
       1.296299459934e-01       7.299825121562e-01 
       1.339916477160e-01       6.995919162389e-01 
       1.384920277736e-01       6.640784780068e-01 
       1.431372111762e-01       6.241482129296e-01 
       1.479333307714e-01       5.817657008423e-01 
       1.528865355934e-01       5.396906101740e-01 
       1.580029992204e-01       5.008131724050e-01 
       1.632889290723e-01       4.673985257240e-01 
       1.687505775527e-01       4.405348814024e-01 
       1.743942559171e-01       4.198652865515e-01 
       1.802263517371e-01       4.036594572083e-01 
       1.862533508214e-01       3.893623912653e-01 
       1.924818644494e-01       3.741383795412e-01 
       1.989186627765e-01       3.558057792239e-01 
       2.055707152847e-01       3.340034443546e-01 
       2.124452391818e-01       3.102654727283e-01 
       2.195497567139e-01       2.871223023464e-01 
       2.268921624510e-01       2.668076150808e-01 
       2.344808017550e-01       2.504833484688e-01 
       2.423245618548e-01       2.378331129276e-01 
       2.504329772620e-01       2.271118357967e-01 
       2.588163516754e-01       2.161195727169e-01 
       2.674858990930e-01       2.035475045055e-01 
       2.764539076010e-01       1.895975521245e-01 
       2.857339303080e-01       1.757569746176e-01 
       2.953410092148e-01       1.636990496434e-01 
       3.052919395542e-01       1.539058851751e-01 
       3.156055844677e-01       1.455308552113e-01 
       3.263032530092e-01       1.372502425409e-01 
       3.374091587054e-01       1.283017455697e-01 
       3.489509817175e-01       1.191704770159e-01 
       3.609605657343e-01       1.108073764754e-01 
       3.734747921333e-01       1.036449918149e-01 
       3.865366902904e-01       9.714149559464e-02 
       4.001968667448e-01       9.061528655824e-02 
       4.145153713076e-01       8.403680160843e-02 
       4.295641718077e-01       7.789140026836e-02 
       4.454304922144e-01       7.234172247464e-02 
       4.622214006969e-01       6.709370314676e-02 
       4.800702491654e-01       6.189166285048e-02 
       4.991459272112e-01       5.692640922752e-02 
       5.196665217302e-01       5.231605845053e-02 
       5.419201087032e-01       4.783250612838e-02 
       5.662975451962e-01       4.348679413150e-02 
       5.933463737275e-01       3.933099733096e-02 
       6.238638458458e-01       3.525332339744e-02 
       6.590669257916e-01       3.126289198240e-02 
       7.009246080454e-01       2.728728907278e-02 
       7.528593308799e-01       2.327836870937e-02 
       8.213469537518e-01       1.914813053257e-02 
       9.196980813302e-01       1.481692172071e-02 
       1.075112183810e+00       1.035085957915e-02 
       1.322697471132e+00       6.379376387150e-03 
       1.662328205042e+00       3.705607230250e-03 
       2.092692408506e+00       2.124482993240e-03 
       2.634543445090e+00       1.207909402256e-03 
       3.316693691389e+00       6.816582691995e-04 
       4.175469971226e+00       3.820651098664e-04 
       5.256605252960e+00       2.128191939362e-04 
       6.617673932723e+00       1.178696898917e-04 
       8.331157880872e+00       6.493800509930e-05 
       1.048830636590e+01       3.559860054192e-05 
       1.320399541071e+01       1.942256269673e-05 
       1.662284535976e+01       1.054681585291e-05 
       2.092692243973e+01       5.699138619866e-06 
       2.634543445002e+01       3.062427277963e-06 
       3.316693691389e+01       1.634063496499e-06 
       4.175469971226e+01       8.632579177435e-07 
       5.256605252960e+01       4.488762196867e-07 
       6.617673932723e+01       2.270515498563e-07 
