# Matter power spectrum P(k) at redshift z=0
# for k=1.04775e-05 to 67.6233 h/Mpc,
# number of wavenumbers equal to 246
#    1:k (h/Mpc)              2:P (Mpc/h)^3        
       1.047750691046e-05       5.020964811308e+01 
       1.131335172503e-05       5.407050701928e+01 
       1.221587619537e-05       5.822819068546e+01 
       1.319039970183e-05       6.270562594777e+01 
       1.424266597921e-05       6.752732240880e+01 
       1.537887696968e-05       7.271977206173e+01 
       1.660572937635e-05       7.831147247912e+01 
       1.793045413292e-05       8.433311821988e+01 
       1.936085902198e-05       9.081778249833e+01 
       2.090537469327e-05       9.780108069296e+01 
       2.257310435294e-05       1.053213197893e+02 
       2.437387741694e-05       1.134197377890e+02 
       2.631830744443e-05       1.221408203809e+02 
       2.841785469300e-05       1.315324642462e+02 
       3.068489366414e-05       1.416462094882e+02 
       3.313278603720e-05       1.525374501932e+02 
       3.577595942169e-05       1.642660688414e+02 
       3.862999239199e-05       1.768963506307e+02 
       4.171170630578e-05       1.904975994010e+02 
       4.503926444729e-05       2.051444491974e+02 
       4.863227907969e-05       2.209171465549e+02 
       5.251192703764e-05       2.379022224249e+02 
       5.670107454120e-05       2.561927927629e+02 
       6.122441196689e-05       2.758890444040e+02 
       6.610859936996e-05       2.970989227882e+02 
       7.138242361596e-05       3.199385560802e+02 
       7.707696804727e-05       3.445329783680e+02 
       8.322579568497e-05       3.710167318945e+02 
       8.986514704559e-05       3.995346444203e+02 
       9.703415373875e-05       4.302425407383e+02 
       1.047750691046e-04       4.633080766742e+02 
       1.131335172503e-04       4.989116271565e+02 
       1.221587619537e-04       5.372471950930e+02 
       1.319039970183e-04       5.785234129338e+02 
       1.424266597921e-04       6.229645936045e+02 
       1.537887696968e-04       6.708118490405e+02 
       1.660572937635e-04       7.223242666092e+02 
       1.793045413292e-04       7.777801559026e+02 
       1.936085902198e-04       8.374783614141e+02 
       2.090537469327e-04       9.017396271824e+02 
       2.257310435294e-04       9.709080268041e+02 
       2.437387741694e-04       1.045352449493e+03 
       2.631830744443e-04       1.125468123750e+03 
       2.841785469300e-04       1.211678180495e+03 
       3.068489366414e-04       1.304435250150e+03 
       3.313278603720e-04       1.404223053681e+03 
       3.577595942169e-04       1.511558014616e+03 
       3.862999239199e-04       1.626990837779e+03 
       4.171170630578e-04       1.751108028789e+03 
       4.503926444729e-04       1.884533382872e+03 
       4.863227907969e-04       2.027929378112e+03 
       5.251192703764e-04       2.181998448133e+03 
       5.670107454121e-04       2.347484102755e+03 
       6.122441196689e-04       2.525171871365e+03 
       6.610859936996e-04       2.715889983592e+03 
       7.138242361596e-04       2.920509688379e+03 
       7.707696804727e-04       3.139945100279e+03 
       8.322579568497e-04       3.375152337580e+03 
       8.986514704559e-04       3.627127831141e+03 
       9.703415373875e-04       3.896905453136e+03 
       1.047750691046e-03       4.185552174301e+03 
       1.131335172503e-03       4.494162430373e+03 
       1.221587619537e-03       4.823850706505e+03 
       1.319039970183e-03       5.175742742901e+03 
       1.424266597921e-03       5.551019596899e+03 
       1.537887696968e-03       5.950788340547e+03 
       1.660572937635e-03       6.376123051785e+03 
       1.793045413292e-03       6.828073901447e+03 
       1.936085902198e-03       7.307625381067e+03 
       2.090537469327e-03       7.815671870224e+03 
       2.257310435294e-03       8.352990375820e+03 
       2.437387741694e-03       8.920211064347e+03 
       2.631830744443e-03       9.517783069112e+03 
       2.841785469300e-03       1.014593704435e+04 
       3.068489366414e-03       1.080464502789e+04 
       3.313278603720e-03       1.149357460346e+04 
       3.577595942169e-03       1.221203621722e+04 
       3.862999239199e-03       1.295892539446e+04 
       4.171170630578e-03       1.373266011517e+04 
       4.503926444729e-03       1.453111835625e+04 
       4.863227907969e-03       1.535154985300e+04 
       5.251192703764e-03       1.619063614559e+04 
       5.670107454120e-03       1.704431257734e+04 
       6.122441196689e-03       1.790755939650e+04 
       6.610859936996e-03       1.877460413150e+04 
       7.138242361596e-03       1.963872430354e+04 
       7.707696804727e-03       2.049215714356e+04 
       8.322579568496e-03       2.132607231923e+04 
       8.986514704559e-03       2.213055075196e+04 
       9.703415373875e-03       2.289445472115e+04 
       1.047750691046e-02       2.360548860981e+04 
       1.131335172503e-02       2.425022858067e+04 
       1.221587619537e-02       2.481423922578e+04 
       1.319039970183e-02       2.528218847515e+04 
       1.424266597920e-02       2.563814332293e+04 
       1.537887696964e-02       2.586606771193e+04 
       1.660572937560e-02       2.595026537465e+04 
       1.793045412207e-02       2.587634255316e+04 
       1.936085889642e-02       2.563220682992e+04 
       2.090537351881e-02       2.520935997969e+04 
       2.257309534705e-02       2.460447145406e+04 
       2.437382002240e-02       2.382087745953e+04 
       2.631799943729e-02       2.287044237313e+04 
       2.841644544598e-02       2.177450194661e+04 
       3.067933354524e-02       2.056552820692e+04 
       3.311368469821e-02       1.928726994478e+04 
       3.571840442514e-02       1.799402587369e+04 
       3.847720347390e-02       1.674682785666e+04 
       4.135335537314e-02       1.560460128980e+04 
       4.429361666563e-02       1.461038329488e+04 
       4.724366437916e-02       1.378053186713e+04 
       5.016480834039e-02       1.310504742049e+04 
       5.303989618930e-02       1.255716233937e+04 
       5.586870668205e-02       1.210427969576e+04 
       5.866042679206e-02       1.171464574279e+04 
       6.142798931504e-02       1.136048014616e+04 
       6.418496438662e-02       1.101855686357e+04 
       6.694418832236e-02       1.067068812530e+04 
       6.971731104453e-02       1.030358773024e+04 
       7.251476154108e-02       9.909011933831e+03 
       7.534587669814e-02       9.483765637353e+03 
       7.821907664495e-02       9.029469869748e+03 
       8.114203771084e-02       8.552335748871e+03 
       8.412184533139e-02       8.061977433567e+03 
       8.716512277352e-02       7.570785651907e+03 
       9.027813693913e-02       7.092503837225e+03 
       9.346688429613e-02       6.640499080876e+03 
       9.673716026122e-02       6.226710665520e+03 
       1.000946150608e-01       5.859935212253e+03 
       1.035447986307e-01       5.545239825100e+03 
       1.070931966524e-01       5.283139344856e+03 
       1.107452594180e-01       5.069429717023e+03 
       1.145064248899e-01       4.895244863792e+03 
       1.183821370656e-01       4.747850091383e+03 
       1.223778605591e-01       4.611729727522e+03 
       1.264990921707e-01       4.470626733689e+03 
       1.307513701078e-01       4.310275908706e+03 
       1.351402814485e-01       4.121393526918e+03 
       1.396714683894e-01       3.902067543394e+03 
       1.443506337875e-01       3.658634464695e+03 
       1.491835464900e-01       3.404486271626e+03 
       1.541760469368e-01       3.156675474138e+03 
       1.593340535209e-01       2.931982216954e+03 
       1.646635701934e-01       2.742371621448e+03 
       1.701706958081e-01       2.592262322089e+03 
       1.758616357070e-01       2.477242600279e+03 
       1.817427160581e-01       2.385183477251e+03 
       1.878204014651e-01       2.300361537719e+03 
       1.941013163855e-01       2.205762153822e+03 
       2.005922709060e-01       2.090817146336e+03 
       2.073002914514e-01       1.956461530964e+03 
       2.142326570343e-01       1.814197206286e+03 
       2.213969417044e-01       1.679295763536e+03 
       2.288010639201e-01       1.563847946935e+03 
       2.364533436625e-01       1.472685323932e+03 
       2.443625682390e-01       1.401513675089e+03 
       2.525380678946e-01       1.338415630826e+03 
       2.609898025770e-01       1.270905165664e+03 
       2.697284614969e-01       1.193384245286e+03 
       2.787655775073e-01       1.109339714129e+03 
       2.881136588192e-01       1.028769698718e+03 
       2.977863412019e-01       9.604837624692e+02 
       3.077985646248e-01       9.050209116638e+02 
       3.181667793367e-01       8.561457655948e+02 
       3.289091877084e-01       8.061893853369e+02 
       3.400460298905e-01       7.523934248631e+02 
       3.515999235695e-01       6.989262193403e+02 
       3.635962710278e-01       6.510658315555e+02 
       3.760637505499e-01       6.101232208309e+02 
       3.890349143014e-01       5.721320302747e+02 
       4.025469215929e-01       5.337848626839e+02 
       4.166424455447e-01       4.956314066097e+02 
       4.313708034899e-01       4.604690451336e+02 
       4.467893781976e-01       4.287798630863e+02 
       4.629654198623e-01       3.987738264400e+02 
       4.799783500912e-01       3.692424880014e+02 
       4.979227318246e-01       3.412402592120e+02 
       5.169121269689e-01       3.154848225738e+02 
       5.370841403262e-01       2.908352351966e+02 
       5.586070463286e-01       2.671063233834e+02 
       5.816885093582e-01       2.448093776883e+02 
       6.065870143577e-01       2.235684727490e+02 
       6.336266466978e-01       2.032106374764e+02 
       6.632156057925e-01       1.838790018157e+02 
       6.958678637575e-01       1.653550583271e+02 
       7.322247983784e-01       1.476958142561e+02 
       7.730680193171e-01       1.308334113317e+02 
       8.193049551574e-01       1.148315008528e+02 
       8.718988013754e-01       9.976234661806e+01 
       9.317218028590e-01       8.577794527830e+01 
       9.993660906273e-01       7.305525439194e+01 
       1.075037109879e+00       6.173624938233e+01 
       1.158653485387e+00       5.187940813219e+01 
       1.250099156961e+00       4.344019468694e+01 
       1.349432400897e+00       3.628961357401e+01 
       1.456947456991e+00       3.026816345682e+01 
       1.573135110893e+00       2.521457245701e+01 
       1.698621895119e+00       2.098210129439e+01 
       1.834127512423e+00       1.744254978109e+01 
       1.980444933977e+00       1.448573641593e+01 
       2.138435191130e+00       1.201899573747e+01 
       2.309029198543e+00       9.963212126521e+00 
       2.493232376993e+00       8.251799834361e+00 
       2.692130394536e+00       6.828664018285e+00 
       2.906895533764e+00       5.646291518287e+00 
       3.138793596840e+00       4.664905548495e+00 
       3.389191365541e+00       3.851132854836e+00 
       3.659564656886e+00       3.176954201009e+00 
       3.951507021438e+00       2.618901521743e+00 
       4.266739135513e+00       2.157370755535e+00 
       4.607118942658e+00       1.775951116503e+00 
       4.974652604172e+00       1.460992993218e+00 
       5.371506323193e+00       1.201144591459e+00 
       5.800019112071e+00       9.868860691530e-01 
       6.262716578240e+00       8.103601109159e-01 
       6.762325809881e+00       6.650144380220e-01 
       7.301791449077e+00       5.454299875067e-01 
       7.884293047211e+00       4.470985103118e-01 
       8.513263804891e+00       3.663005458905e-01 
       9.192410806865e+00       2.999429574831e-01 
       9.925736871166e+00       2.454825397926e-01 
       1.071756414128e+01       2.008100584753e-01 
       1.157255956041e+01       1.641855482977e-01 
       1.249576237789e+01       1.341776447496e-01 
       1.349261385000e+01       1.096035261955e-01 
       1.456898931011e+01       8.949044861755e-02 
       1.573123279727e+01       7.303356721793e-02 
       1.698619444729e+01       5.957842835241e-02 
       1.834127086665e+01       4.858125193424e-02 
       1.980444872733e+01       3.959739323301e-02 
       2.138435183937e+01       3.226110534995e-02 
       2.309029197863e+01       2.627325901908e-02 
       2.493232376942e+01       2.138851446712e-02 
       2.692130394533e+01       1.740482980702e-02 
       2.906895533764e+01       1.415738713242e-02 
       3.138793596840e+01       1.151136014354e-02 
       3.389191365541e+01       9.355978167819e-03 
       3.659564656886e+01       7.601229283211e-03 
       3.951507021438e+01       6.173093917139e-03 
       4.266739135513e+01       5.011184415813e-03 
       4.607118942658e+01       4.066247318052e-03 
       4.974652604172e+01       3.297983350459e-03 
       5.371506323193e+01       2.673731167702e-03 
       5.800019112071e+01       2.166603136976e-03 
       6.262716578240e+01       1.754754552703e-03 
       6.762325809881e+01       1.420471983029e-03 
