# Matter power spectrum P(k) at redshift z=99
# for k=1.04775e-05 to 66.1767 h/Mpc,
# number of wavenumbers equal to 130
#    1:k (h/Mpc)              2:P (Mpc/h)^3        
       1.047750691046e-05       7.261927684409e-03 
       1.319039970183e-05       9.069258206278e-03 
       1.660572937635e-05       1.132639107278e-02 
       2.090537469327e-05       1.414527124090e-02 
       2.631830744443e-05       1.766569584921e-02 
       3.313278603720e-05       2.206225517019e-02 
       4.171170630578e-05       2.755297767622e-02 
       5.251192703764e-05       3.441013524627e-02 
       6.610859936996e-05       4.297372174873e-02 
       8.322579568497e-05       5.366826855557e-02 
       1.047750691046e-04       6.702379876033e-02 
       1.319039970183e-04       8.370193445345e-02 
       1.660572937635e-04       1.045283355889e-01 
       2.090537469327e-04       1.305329134730e-01 
       2.631830744443e-04       1.629994507378e-01 
       3.313278603720e-04       2.035264005550e-01 
       4.171170630578e-04       2.541004745393e-01 
       5.251192703764e-04       3.171839529925e-01 
       6.610859936996e-04       3.958147258092e-01 
       8.322579568497e-04       4.937136007980e-01 
       1.047750691046e-03       6.153841637662e-01 
       1.319039970183e-03       7.661720593246e-01 
       1.660572937635e-03       9.522588015238e-01 
       2.090537469327e-03       1.180312991015e+00 
       2.631830744443e-03       1.456802682760e+00 
       3.313278603720e-03       1.786503849499e+00 
       4.171170630578e-03       2.169896183323e+00 
       5.251192703764e-03       2.599430610279e+00 
       6.610859936996e-03       3.055668670661e+00 
       8.322579568497e-03       3.505725067100e+00 
       1.047750691046e-02       3.905490021088e+00 
       1.319039970183e-02       4.200915035046e+00 
       1.660572937633e-02       4.325062266262e+00 
       2.090537453514e-02       4.210207264725e+00 
       2.631818545635e-02       3.825155519151e+00 
       3.311571692125e-02       3.229071311229e+00 
       4.113809243311e-02       2.627724647051e+00 
       4.792590854610e-02       2.280786079659e+00 
       5.284436902701e-02       2.110079344731e+00 
       5.689644391095e-02       2.003530969153e+00 
       6.051252627066e-02       1.923043923750e+00 
       6.388413457411e-02       1.852721827679e+00 
       6.711249296401e-02       1.784546352147e+00 
       7.025823437965e-02       1.714261450535e+00 
       7.336115587705e-02       1.639795318862e+00 
       7.644928796912e-02       1.560639952403e+00 
       7.954353299775e-02       1.477433937947e+00 
       8.266024078725e-02       1.391673566394e+00 
       8.581273398637e-02       1.305433139251e+00 
       8.901225918437e-02       1.221098146324e+00 
       9.226860540985e-02       1.141049479051e+00 
       9.559052048996e-02       1.067420379177e+00 
       9.898599946599e-02       1.001859911744e+00 
       1.024624891378e-01       9.453479028688e-01 
       1.060270359164e-01       8.981138128147e-01 
       1.096863943056e-01       8.595765903454e-01 
       1.134471073830e-01       8.283635273583e-01 
       1.173155669539e-01       8.024228306612e-01 
       1.212980586983e-01       7.791827813727e-01 
       1.254007961065e-01       7.558662122422e-01 
       1.296299459934e-01       7.299276766252e-01 
       1.339916477160e-01       6.995363415087e-01 
       1.384920277736e-01       6.640181511304e-01 
       1.431372111762e-01       6.240817736813e-01 
       1.479333307714e-01       5.816966455832e-01 
       1.528865355934e-01       5.396181868827e-01 
       1.580029992204e-01       5.007384794803e-01 
       1.632889290723e-01       4.673186264998e-01 
       1.687505775527e-01       4.404498131453e-01 
       1.743942559171e-01       4.197774246980e-01 
       1.802263517371e-01       4.035647782923e-01 
       1.862533508214e-01       3.892625100279e-01 
       1.924818644494e-01       3.740310175854e-01 
       1.989186627765e-01       3.556919982541e-01 
       2.055707152847e-01       3.338828263773e-01 
       2.124452391818e-01       3.101409599890e-01 
       2.195497567139e-01       2.869913370657e-01 
       2.268921624510e-01       2.666718740654e-01 
       2.344808017550e-01       2.503399767209e-01 
       2.423245618548e-01       2.376829151241e-01 
       2.504329772620e-01       2.269515411934e-01 
       2.588163516754e-01       2.159505987356e-01 
       2.674858990930e-01       2.033695267979e-01 
       2.764539076010e-01       1.894115108550e-01 
       2.857339303080e-01       1.755620850559e-01 
       2.953410092148e-01       1.634948227893e-01 
       3.052919395542e-01       1.536913983265e-01 
       3.156055844677e-01       1.453048780586e-01 
       3.263032530092e-01       1.370118867340e-01 
       3.374091587054e-01       1.280515402394e-01 
       3.489509817175e-01       1.189089320967e-01 
       3.609605657343e-01       1.105324691934e-01 
       3.734747921333e-01       1.033562967389e-01 
       3.865366902904e-01       9.683750889880e-02 
       4.001968667448e-01       9.029615351652e-02 
       4.145153713076e-01       8.370192506967e-02 
       4.295641718077e-01       7.753936254843e-02 
       4.454304922144e-01       7.197143844606e-02 
       4.622214006969e-01       6.670380474621e-02 
       4.800702491654e-01       6.148148708058e-02 
       4.991459272112e-01       5.649378289577e-02 
       5.196665217302e-01       5.185944056968e-02 
       5.419201087032e-01       4.734953610590e-02 
       5.662975451962e-01       4.297491142798e-02 
       5.933463737275e-01       3.878660360587e-02 
       6.238638458458e-01       3.467246688259e-02 
       6.590669257916e-01       3.063980778905e-02 
       7.009246080454e-01       2.661429688936e-02 
       7.528593308799e-01       2.254352619439e-02 
       8.213469537518e-01       1.833270293282e-02 
       9.196980813302e-01       1.388890406873e-02 
       1.075112183810e+00       9.256076167048e-03 
       1.322697471132e+00       5.061299688643e-03 
       1.662328205042e+00       2.198623788923e-03 
       2.092692408506e+00       6.121624662855e-04 
       2.634543445090e+00       2.201419504575e-05 
       3.316693691389e+00       1.237292521608e-04 
       4.175469971226e+00       3.160547078654e-04 
       5.256605252960e+00       1.213027373267e-04 
       6.617673932723e+00       1.106452737804e-05 
       8.331157880872e+00       4.815909080572e-05 
       1.048830636590e+01       5.653123042381e-06 
       1.320399541071e+01       4.851327078392e-07 
       1.662284535976e+01       4.028522342495e-07 
       2.092692243973e+01       4.540209339219e-09 
       2.634543445002e+01       8.339467377546e-09 
       3.316693691389e+01       9.760182718633e-11 
       4.175469971226e+01       1.285175502775e-12 
       5.256605252960e+01       3.584516765412e-13 
       6.617673932723e+01       6.600152402695e-15 
