# Matter power spectrum P(k) at redshift z=99
# for k=1.04775e-05 to 66.1767 h/Mpc,
# number of wavenumbers equal to 130
#    1:k (h/Mpc)              2:P (Mpc/h)^3        
       1.047750691046e-05       7.261927681682e-03 
       1.319039970183e-05       9.069258202873e-03 
       1.660572937635e-05       1.132639106853e-02 
       2.090537469327e-05       1.414527123559e-02 
       2.631830744443e-05       1.766569584257e-02 
       3.313278603720e-05       2.206225516191e-02 
       4.171170630578e-05       2.755297766588e-02 
       5.251192703764e-05       3.441013523336e-02 
       6.610859936996e-05       4.297372173262e-02 
       8.322579568497e-05       5.366826853548e-02 
       1.047750691046e-04       6.702379873528e-02 
       1.319039970183e-04       8.370193442224e-02 
       1.660572937635e-04       1.045283355501e-01 
       2.090537469327e-04       1.305329134249e-01 
       2.631830744443e-04       1.629994506784e-01 
       3.313278603720e-04       2.035264004821e-01 
       4.171170630578e-04       2.541004744509e-01 
       5.251192703764e-04       3.171839528874e-01 
       6.610859936996e-04       3.958147256878e-01 
       8.322579568497e-04       4.937136006659e-01 
       1.047750691046e-03       6.153841636419e-01 
       1.319039970183e-03       7.661720592593e-01 
       1.660572937635e-03       9.522588016198e-01 
       2.090537469327e-03       1.180312991541e+00 
       2.631830744443e-03       1.456802684241e+00 
       3.313278603720e-03       1.786503852986e+00 
       4.171170630578e-03       2.169896192310e+00 
       5.251192703764e-03       2.599430625995e+00 
       6.610859936996e-03       3.055668697040e+00 
       8.322579568497e-03       3.505724661448e+00 
       1.047750691046e-02       3.905491286364e+00 
       1.319039970183e-02       4.200915260319e+00 
       1.660572937633e-02       4.325062676550e+00 
       2.090537453514e-02       4.210204262812e+00 
       2.631818545635e-02       3.825152020785e+00 
       3.311571692125e-02       3.229054180628e+00 
       4.113809243311e-02       2.627726533936e+00 
       4.792590854610e-02       2.280796502741e+00 
       5.284436902701e-02       2.110085130879e+00 
       5.689644391095e-02       2.003535578965e+00 
       6.051252627066e-02       1.923057347492e+00 
       6.388413457411e-02       1.852735230199e+00 
       6.711249296401e-02       1.784563799225e+00 
       7.025823437965e-02       1.714273479527e+00 
       7.336115587705e-02       1.639811546603e+00 
       7.644928796912e-02       1.560661493128e+00 
       7.954353299775e-02       1.477454942582e+00 
       8.266024078725e-02       1.391694744223e+00 
       8.581273398637e-02       1.305458522609e+00 
       8.901225918437e-02       1.221124205727e+00 
       9.226860540985e-02       1.141077574138e+00 
       9.559052048996e-02       1.067455079264e+00 
       9.898599946599e-02       1.001888009963e+00 
       1.024624891378e-01       9.453806074581e-01 
       1.060270359164e-01       8.981475138795e-01 
       1.096863943056e-01       8.596103531389e-01 
       1.134471073830e-01       8.284012319658e-01 
       1.173155669539e-01       8.024639503943e-01 
       1.212980586983e-01       7.792263437981e-01 
       1.254007961065e-01       7.559127036841e-01 
       1.296299459934e-01       7.299798010179e-01 
       1.339916477160e-01       6.995909202133e-01 
       1.384920277736e-01       6.640769664495e-01 
       1.431372111762e-01       6.241464760634e-01 
       1.479333307714e-01       5.817608361624e-01 
       1.528865355934e-01       5.396866982477e-01 
       1.580029992204e-01       5.008103554703e-01 
       1.632889290723e-01       4.673952556320e-01 
       1.687505775527e-01       4.405300072289e-01 
       1.743942559171e-01       4.198616304962e-01 
       1.802263517371e-01       4.036550728706e-01 
       1.862533508214e-01       3.893571831031e-01 
       1.924818644494e-01       3.741350485177e-01 
       1.989186627765e-01       3.558030724156e-01 
       2.055707152847e-01       3.339975213427e-01 
       2.124452391818e-01       3.102604295325e-01 
       2.195497567139e-01       2.871171931072e-01 
       2.268921624510e-01       2.668024129833e-01 
       2.344808017550e-01       2.504777008434e-01 
       2.423245618548e-01       2.378278728324e-01 
       2.504329772620e-01       2.271065430468e-01 
       2.588163516754e-01       2.161137930437e-01 
       2.674858990930e-01       2.035412059597e-01 
       2.764539076010e-01       1.895910632539e-01 
       2.857339303080e-01       1.757502603320e-01 
       2.953410092148e-01       1.636929159873e-01 
       3.052919395542e-01       1.538999584628e-01 
       3.156055844677e-01       1.455243075964e-01 
       3.263032530092e-01       1.372439378057e-01 
       3.374091587054e-01       1.282950688057e-01 
       3.489509817175e-01       1.191644565472e-01 
       3.609605657343e-01       1.108008583189e-01 
       3.734747921333e-01       1.036382415272e-01 
       3.865366902904e-01       9.713405244542e-02 
       4.001968667448e-01       9.060817117685e-02 
       4.145153713076e-01       8.402984357199e-02 
       4.295641718077e-01       7.788386231974e-02 
       4.454304922144e-01       7.233423846244e-02 
       4.622214006969e-01       6.708608365804e-02 
       4.800702491654e-01       6.188424668165e-02 
       4.991459272112e-01       5.691864709570e-02 
       5.196665217302e-01       5.230813448245e-02 
       5.419201087032e-01       4.782455698512e-02 
       5.662975451962e-01       4.347888194432e-02 
       5.933463737275e-01       3.932284578335e-02 
       6.238638458458e-01       3.524504599973e-02 
       6.590669257916e-01       3.125449304276e-02 
       7.009246080454e-01       2.727880687696e-02 
       7.528593308799e-01       2.326972640601e-02 
       8.213469537518e-01       1.913938180142e-02 
       9.196980813302e-01       1.480795122368e-02 
       1.075112183810e+00       1.034167349580e-02 
       1.322697471132e+00       6.370079029790e-03 
       1.662328205042e+00       3.696246488518e-03 
       2.092692408506e+00       2.115189393739e-03 
       2.634543445090e+00       1.198785659571e-03 
       3.316693691389e+00       6.728034162369e-04 
       4.175469971226e+00       3.735790369985e-04 
       5.256605252960e+00       2.047690635208e-04 
       6.617673932723e+00       1.103293521338e-04 
       8.331157880872e+00       5.798197867835e-05 
       1.048830636590e+01       2.931112527804e-05 
       1.320399541071e+01       1.390258042227e-05 
       1.662284535976e+01       5.908139339864e-06 
       2.092692243973e+01       2.054422156170e-06 
       2.634543445002e+01       4.752355051653e-07 
       3.316693691389e+01       3.585876124582e-08 
       4.175469971226e+01       3.129950768222e-09 
       5.256605252960e+01       5.304800165749e-09 
       6.617673932723e+01       1.362327429735e-12 
