# Matter power spectrum P(k) at redshift z=0
# for k=1.04775e-05 to 66.1767 h/Mpc,
# number of wavenumbers equal to 130
#    1:k (h/Mpc)              2:P (Mpc/h)^3        
       1.047750691046e-05       5.020964811311e+01 
       1.319039970183e-05       6.270562594774e+01 
       1.660572937635e-05       7.831147247912e+01 
       2.090537469327e-05       9.780108069295e+01 
       2.631830744443e-05       1.221408203809e+02 
       3.313278603720e-05       1.525374501932e+02 
       4.171170630578e-05       1.904975994009e+02 
       5.251192703764e-05       2.379022224249e+02 
       6.610859936996e-05       2.970989227882e+02 
       8.322579568497e-05       3.710167318946e+02 
       1.047750691046e-04       4.633080766742e+02 
       1.319039970183e-04       5.785234129336e+02 
       1.660572937635e-04       7.223242666092e+02 
       2.090537469327e-04       9.017396271824e+02 
       2.631830744443e-04       1.125468123750e+03 
       3.313278603720e-04       1.404223053681e+03 
       4.171170630578e-04       1.751108028790e+03 
       5.251192703764e-04       2.181998448133e+03 
       6.610859936996e-04       2.715889983592e+03 
       8.322579568497e-04       3.375152337133e+03 
       1.047750691046e-03       4.185552174310e+03 
       1.319039970183e-03       5.175742739477e+03 
       1.660572937635e-03       6.376123051788e+03 
       2.090537469327e-03       7.815671866308e+03 
       2.631830744443e-03       9.517783069111e+03 
       3.313278603720e-03       1.149357460343e+04 
       4.171170630578e-03       1.373266010260e+04 
       5.251192703764e-03       1.619063614413e+04 
       6.610859936996e-03       1.877460418933e+04 
       8.322579568497e-03       2.132607232904e+04 
       1.047750691046e-02       2.360547804999e+04 
       1.319039970183e-02       2.528218636386e+04 
       1.660572937633e-02       2.595029073055e+04 
       2.090537453514e-02       2.520935639590e+04 
       2.631818545635e-02       2.287034173318e+04 
       3.311571692125e-02       1.928627764529e+04 
       4.113809243311e-02       1.568429567554e+04 
       4.792590854610e-02       1.361063940922e+04 
       5.284436902701e-02       1.259129440226e+04 
       5.689644391095e-02       1.195557454393e+04 
       6.051252627066e-02       1.147544904847e+04 
       6.388413457411e-02       1.105588261639e+04 
       6.711249296401e-02       1.064899544298e+04 
       7.025823437965e-02       1.022929306411e+04 
       7.336115587705e-02       9.784536127819e+03 
       7.644928796912e-02       9.311644967919e+03 
       7.954353299775e-02       8.814552009817e+03 
       8.266024078725e-02       8.302187081509e+03 
       8.581273398637e-02       7.786969605323e+03 
       8.901225918437e-02       7.283242405191e+03 
       9.226860540985e-02       6.805220326212e+03 
       9.559052048996e-02       6.365594716361e+03 
       9.898599946599e-02       5.974394741534e+03 
       1.024624891378e-01       5.637360278027e+03 
       1.060270359164e-01       5.355817114161e+03 
       1.096863943056e-01       5.126253835431e+03 
       1.134471073830e-01       4.940514652555e+03 
       1.173155669539e-01       4.786162445040e+03 
       1.212980586983e-01       4.647940681642e+03 
       1.254007961065e-01       4.509139020642e+03 
       1.296299459934e-01       4.354537219656e+03 
       1.339916477160e-01       4.173226153583e+03 
       1.384920277736e-01       3.961167316529e+03 
       1.431372111762e-01       3.722675515690e+03 
       1.479333307714e-01       3.469565413277e+03 
       1.528865355934e-01       3.218361922356e+03 
       1.580029992204e-01       2.986270375234e+03 
       1.632889290723e-01       2.786951762599e+03 
       1.687505775527e-01       2.626819042837e+03 
       1.743942559171e-01       2.503759705918e+03 
       1.802263517371e-01       2.407333291987e+03 
       1.862533508214e-01       2.322227078178e+03 
       1.924818644494e-01       2.231538047991e+03 
       1.989186627765e-01       2.122171719545e+03 
       2.055707152847e-01       1.992019487922e+03 
       2.124452391818e-01       1.850321181844e+03 
       2.195497567139e-01       1.712165546389e+03 
       2.268921624510e-01       1.590981173711e+03 
       2.344808017550e-01       1.493665646046e+03 
       2.423245618548e-01       1.418316441092e+03 
       2.504329772620e-01       1.354462892827e+03 
       2.588163516754e-01       1.288928140408e+03 
       2.674858990930e-01       1.213932712694e+03 
       2.764539076010e-01       1.130687417074e+03 
       2.857339303080e-01       1.048094838184e+03 
       2.953410092148e-01       9.761778089413e+02 
       3.052919395542e-01       9.178037259315e+02 
       3.156055844677e-01       8.678932524511e+02 
       3.263032530092e-01       8.185240168808e+02 
       3.374091587054e-01       7.651413482938e+02 
       3.489509817175e-01       7.106690575659e+02 
       3.609605657343e-01       6.607833838580e+02 
       3.734747921333e-01       6.180832656977e+02 
       3.865366902904e-01       5.793086671553e+02 
       4.001968667448e-01       5.403904738713e+02 
       4.145153713076e-01       5.011472712419e+02 
       4.295641718077e-01       4.644961634969e+02 
       4.454304922144e-01       4.314048004868e+02 
       4.622214006969e-01       4.001084678368e+02 
       4.800702491654e-01       3.690841123314e+02 
       4.991459272112e-01       3.394727084480e+02 
       5.196665217302e-01       3.119811055580e+02 
       5.419201087032e-01       2.852446934366e+02 
       5.662975451962e-01       2.593295791765e+02 
       5.933463737275e-01       2.345462820881e+02 
       6.238638458458e-01       2.102283350232e+02 
       6.590669257916e-01       1.864325355357e+02 
       7.009246080454e-01       1.627244054979e+02 
       7.528593308799e-01       1.388174900155e+02 
       8.213469537518e-01       1.141877912601e+02 
       9.196980813302e-01       8.835874729644e+01 
       1.075112183810e+00       6.172562274418e+01 
       1.322697471132e+00       3.804282844019e+01 
       1.662328205042e+00       2.209780165241e+01 
       2.092692408506e+00       1.266910208277e+01 
       2.634543445090e+00       7.203254358459e+00 
       3.316693691389e+00       4.065118716120e+00 
       4.175469971226e+00       2.278581363038e+00 
       5.256605252960e+00       1.269324305045e+00 
       6.617673932723e+00       7.031168365318e-01 
       8.331157880872e+00       3.874613322845e-01 
       1.048830636590e+01       2.124961600688e-01 
       1.320399541071e+01       1.160249301993e-01 
       1.662284535976e+01       6.308739227667e-02 
       2.092692243973e+01       3.416914026374e-02 
       2.634543445002e+01       1.843639419257e-02 
       3.316693691389e+01       9.910416236896e-03 
       4.175469971226e+01       5.306802476615e-03 
       5.256605252960e+01       2.829635346066e-03 
       6.617673932723e+01       1.501398576236e-03 
