# Matter power spectrum P(k) at redshift z=99
# for k=1.04775e-05 to 66.1767 h/Mpc,
# number of wavenumbers equal to 130
#    1:k (h/Mpc)              2:P (Mpc/h)^3        
       1.047750691046e-05       7.261927680862e-03 
       1.319039970183e-05       9.069258201849e-03 
       1.660572937635e-05       1.132639106725e-02 
       2.090537469327e-05       1.414527123399e-02 
       2.631830744443e-05       1.766569584058e-02 
       3.313278603720e-05       2.206225515942e-02 
       4.171170630578e-05       2.755297766277e-02 
       5.251192703764e-05       3.441013522947e-02 
       6.610859936996e-05       4.297372172778e-02 
       8.322579568497e-05       5.366826852944e-02 
       1.047750691046e-04       6.702379872775e-02 
       1.319039970183e-04       8.370193441286e-02 
       1.660572937635e-04       1.045283355384e-01 
       2.090537469327e-04       1.305329134104e-01 
       2.631830744443e-04       1.629994506606e-01 
       3.313278603720e-04       2.035264004601e-01 
       4.171170630578e-04       2.541004744243e-01 
       5.251192703764e-04       3.171839528557e-01 
       6.610859936996e-04       3.958147256513e-01 
       8.322579568497e-04       4.937136006277e-01 
       1.047750691046e-03       6.153841636042e-01 
       1.319039970183e-03       7.661720592757e-01 
       1.660572937635e-03       9.522588016473e-01 
       2.090537469327e-03       1.180312991700e+00 
       2.631830744443e-03       1.456802684686e+00 
       3.313278603720e-03       1.786503854047e+00 
       4.171170630578e-03       2.169896194999e+00 
       5.251192703764e-03       2.599430630720e+00 
       6.610859936996e-03       3.055668715367e+00 
       8.322579568497e-03       3.505725598625e+00 
       1.047750691046e-02       3.905491536676e+00 
       1.319039970183e-02       4.200915331505e+00 
       1.660572937633e-02       4.325062363704e+00 
       2.090537453514e-02       4.210206340084e+00 
       2.631818545635e-02       3.825150156976e+00 
       3.311571692125e-02       3.229056104273e+00 
       4.113809243311e-02       2.627729175270e+00 
       4.792590854610e-02       2.280790263727e+00 
       5.284436902701e-02       2.110086354991e+00 
       5.689644391095e-02       2.003533620658e+00 
       6.051252627066e-02       1.923056083514e+00 
       6.388413457411e-02       1.852732971517e+00 
       6.711249296401e-02       1.784566279050e+00 
       7.025823437965e-02       1.714276651469e+00 
       7.336115587705e-02       1.639815256492e+00 
       7.644928796912e-02       1.560664556984e+00 
       7.954353299775e-02       1.477459594927e+00 
       8.266024078725e-02       1.391697879091e+00 
       8.581273398637e-02       1.305462112543e+00 
       8.901225918437e-02       1.221125431390e+00 
       9.226860540985e-02       1.141081618574e+00 
       9.559052048996e-02       1.067450692284e+00 
       9.898599946599e-02       1.001886414503e+00 
       1.024624891378e-01       9.453825037872e-01 
       1.060270359164e-01       8.981499409784e-01 
       1.096863943056e-01       8.596142285623e-01 
       1.134471073830e-01       8.284066366536e-01 
       1.173155669539e-01       8.024661033102e-01 
       1.212980586983e-01       7.792293635028e-01 
       1.254007961065e-01       7.559174356713e-01 
       1.296299459934e-01       7.299830480646e-01 
       1.339916477160e-01       6.995928673870e-01 
       1.384920277736e-01       6.640792682407e-01 
       1.431372111762e-01       6.241456448038e-01 
       1.479333307714e-01       5.817644462253e-01 
       1.528865355934e-01       5.396931771611e-01 
       1.580029992204e-01       5.008134741471e-01 
       1.632889290723e-01       4.673987476294e-01 
       1.687505775527e-01       4.405339764955e-01 
       1.743942559171e-01       4.198653573612e-01 
       1.802263517371e-01       4.036601139847e-01 
       1.862533508214e-01       3.893589681693e-01 
       1.924818644494e-01       3.741356351979e-01 
       1.989186627765e-01       3.558018452132e-01 
       2.055707152847e-01       3.339989549167e-01 
       2.124452391818e-01       3.102655979224e-01 
       2.195497567139e-01       2.871227708876e-01 
       2.268921624510e-01       2.668081154605e-01 
       2.344808017550e-01       2.504830758365e-01 
       2.423245618548e-01       2.378336661311e-01 
       2.504329772620e-01       2.271115158913e-01 
       2.588163516754e-01       2.161185701344e-01 
       2.674858990930e-01       2.035461783116e-01 
       2.764539076010e-01       1.895985013344e-01 
       2.857339303080e-01       1.757570908792e-01 
       2.953410092148e-01       1.636989259347e-01 
       3.052919395542e-01       1.539059542386e-01 
       3.156055844677e-01       1.455310556198e-01 
       3.263032530092e-01       1.372504894979e-01 
       3.374091587054e-01       1.283022874284e-01 
       3.489509817175e-01       1.191712357950e-01 
       3.609605657343e-01       1.108071562565e-01 
       3.734747921333e-01       1.036451318069e-01 
       3.865366902904e-01       9.714145039984e-02 
       4.001968667448e-01       9.061553618905e-02 
       4.145153713076e-01       8.403697616681e-02 
       4.295641718077e-01       7.789132345064e-02 
       4.454304922144e-01       7.234155563979e-02 
       4.622214006969e-01       6.709364110861e-02 
       4.800702491654e-01       6.189187720315e-02 
       4.991459272112e-01       5.692638685062e-02 
       5.196665217302e-01       5.231593834186e-02 
       5.419201087032e-01       4.783249506806e-02 
       5.662975451962e-01       4.348691398180e-02 
       5.933463737275e-01       3.933100813108e-02 
       6.238638458458e-01       3.525348815979e-02 
       6.590669257916e-01       3.126286397655e-02 
       7.009246080454e-01       2.728736560966e-02 
       7.528593308799e-01       2.327838356030e-02 
       8.213469537518e-01       1.914818363333e-02 
       9.196980813302e-01       1.481700533346e-02 
       1.075112183810e+00       1.035088826636e-02 
       1.322697471132e+00       6.379451930862e-03 
       1.662328205042e+00       3.705591231946e-03 
       2.092692408506e+00       2.124452882731e-03 
       2.634543445090e+00       1.207838711676e-03 
       3.316693691389e+00       6.815528629208e-04 
       4.175469971226e+00       3.819114774789e-04 
       5.256605252960e+00       2.125995000765e-04 
       6.617673932723e+00       1.175624334729e-04 
       8.331157880872e+00       6.452050322707e-05 
       1.048830636590e+01       3.504694673361e-05 
       1.320399541071e+01       1.871068924518e-05 
       1.662284535976e+01       9.656912458874e-06 
       2.092692243973e+01       4.636560286842e-06 
       2.634543445002e+01       1.886998705978e-06 
       3.316693691389e+01       4.984632876158e-07 
       4.175469971226e+01       1.646465111296e-08 
       5.256605252960e+01       9.946258152748e-08 
       6.617673932723e+01       2.571738667825e-07 
