# Matter power spectrum P(k) at redshift z=0
# for k=1.04775e-05 to 66.1767 h/Mpc,
# number of wavenumbers equal to 130
#    1:k (h/Mpc)              2:P (Mpc/h)^3        
       1.047750691046e-05       5.020964811312e+01 
       1.319039970183e-05       6.270562594785e+01 
       1.660572937635e-05       7.831147247912e+01 
       2.090537469327e-05       9.780108069296e+01 
       2.631830744443e-05       1.221408203809e+02 
       3.313278603720e-05       1.525374501932e+02 
       4.171170630578e-05       1.904975994010e+02 
       5.251192703764e-05       2.379022224249e+02 
       6.610859936996e-05       2.970989227882e+02 
       8.322579568497e-05       3.710167318946e+02 
       1.047750691046e-04       4.633080766742e+02 
       1.319039970183e-04       5.785234129334e+02 
       1.660572937635e-04       7.223242666092e+02 
       2.090537469327e-04       9.017396271824e+02 
       2.631830744443e-04       1.125468123750e+03 
       3.313278603720e-04       1.404223053681e+03 
       4.171170630578e-04       1.751108028790e+03 
       5.251192703764e-04       2.181998448133e+03 
       6.610859936996e-04       2.715889983592e+03 
       8.322579568497e-04       3.375152337133e+03 
       1.047750691046e-03       4.185552174312e+03 
       1.319039970183e-03       5.175742743498e+03 
       1.660572937635e-03       6.376123051773e+03 
       2.090537469327e-03       7.815671853362e+03 
       2.631830744443e-03       9.517783069099e+03 
       3.313278603720e-03       1.149357460343e+04 
       4.171170630578e-03       1.373266013287e+04 
       5.251192703764e-03       1.619063613159e+04 
       6.610859936996e-03       1.877460415407e+04 
       8.322579568497e-03       2.132606866297e+04 
       1.047750691046e-02       2.360548112044e+04 
       1.319039970183e-02       2.528218701070e+04 
       1.660572937633e-02       2.595025705726e+04 
       2.090537453514e-02       2.520935451084e+04 
       2.631818545635e-02       2.287036474863e+04 
       3.311571692125e-02       1.928626007812e+04 
       4.113809243311e-02       1.568426706188e+04 
       4.792590854610e-02       1.361061606007e+04 
       5.284436902701e-02       1.259130952268e+04 
       5.689644391095e-02       1.195555250736e+04 
       6.051252627066e-02       1.147552425188e+04 
       6.388413457411e-02       1.105595952156e+04 
       6.711249296401e-02       1.064904293355e+04 
       7.025823437965e-02       1.022928162902e+04 
       7.336115587705e-02       9.784584698356e+03 
       7.644928796912e-02       9.311658503246e+03 
       7.954353299775e-02       8.814550152042e+03 
       8.266024078725e-02       8.302194295378e+03 
       8.581273398637e-02       7.786993580855e+03 
       8.901225918437e-02       7.283252345884e+03 
       9.226860540985e-02       6.805198244383e+03 
       9.559052048996e-02       6.365693271688e+03 
       9.898599946599e-02       5.974424270008e+03 
       1.024624891378e-01       5.637352105620e+03 
       1.060270359164e-01       5.355799857186e+03 
       1.096863943056e-01       5.126252758772e+03 
       1.134471073830e-01       4.940504399087e+03 
       1.173155669539e-01       4.786169680872e+03 
       1.212980586983e-01       4.647946266646e+03 
       1.254007961065e-01       4.509151306125e+03 
       1.296299459934e-01       4.354558036070e+03 
       1.339916477160e-01       4.173176403888e+03 
       1.384920277736e-01       3.961177397781e+03 
       1.431372111762e-01       3.722666980296e+03 
       1.479333307714e-01       3.469549180820e+03 
       1.528865355934e-01       3.218321909334e+03 
       1.580029992204e-01       2.986261748274e+03 
       1.632889290723e-01       2.786954187956e+03 
       1.687505775527e-01       2.626808209386e+03 
       1.743942559171e-01       2.503762311745e+03 
       1.802263517371e-01       2.407304404205e+03 
       1.862533508214e-01       2.322242418316e+03 
       1.924818644494e-01       2.231544684216e+03 
       1.989186627765e-01       2.122180424082e+03 
       2.055707152847e-01       1.992035848686e+03 
       2.124452391818e-01       1.850305642579e+03 
       2.195497567139e-01       1.712159794104e+03 
       2.268921624510e-01       1.590969217351e+03 
       2.344808017550e-01       1.493658455176e+03 
       2.423245618548e-01       1.418307520687e+03 
       2.504329772620e-01       1.354448315810e+03 
       2.588163516754e-01       1.288929615530e+03 
       2.674858990930e-01       1.213933264279e+03 
       2.764539076010e-01       1.130682966114e+03 
       2.857339303080e-01       1.048082610946e+03 
       2.953410092148e-01       9.761729389950e+02 
       3.052919395542e-01       9.178031556295e+02 
       3.156055844677e-01       8.678847106056e+02 
       3.263032530092e-01       8.185225988350e+02 
       3.374091587054e-01       7.651381472574e+02 
       3.489509817175e-01       7.106614140253e+02 
       3.609605657343e-01       6.607797897754e+02 
       3.734747921333e-01       6.180802395775e+02 
       3.865366902904e-01       5.793018989258e+02 
       4.001968667448e-01       5.403828334936e+02 
       4.145153713076e-01       5.011430606533e+02 
       4.295641718077e-01       4.644953148460e+02 
       4.454304922144e-01       4.313992483986e+02 
       4.622214006969e-01       4.001085370724e+02 
       4.800702491654e-01       3.690831370466e+02 
       4.991459272112e-01       3.394701678758e+02 
       5.196665217302e-01       3.119797074199e+02 
       5.419201087032e-01       2.852423340825e+02 
       5.662975451962e-01       2.593271089745e+02 
       5.933463737275e-01       2.345444175590e+02 
       6.238638458458e-01       2.102285108282e+02 
       6.590669257916e-01       1.864324152393e+02 
       7.009246080454e-01       1.627236954026e+02 
       7.528593308799e-01       1.388175440350e+02 
       8.213469537518e-01       1.141878148857e+02 
       9.196980813302e-01       8.835832268693e+01 
       1.075112183810e+00       6.172565182749e+01 
       1.322697471132e+00       3.804283525197e+01 
       1.662328205042e+00       2.209767210758e+01 
       2.092692408506e+00       1.266894564962e+01 
       2.634543445090e+00       7.203040009154e+00 
       3.316693691389e+00       4.064971910279e+00 
       4.175469971226e+00       2.278440388946e+00 
       5.256605252960e+00       1.269190144665e+00 
       6.617673932723e+00       7.029879589667e-01 
       8.331157880872e+00       3.873370610224e-01 
       1.048830636590e+01       2.123824437268e-01 
       1.320399541071e+01       1.159165958244e-01 
       1.662284535976e+01       6.298849221519e-02 
       2.092692243973e+01       3.407879397749e-02 
       2.634543445002e+01       1.835443265278e-02 
       3.316693691389e+01       9.835959203186e-03 
       4.175469971226e+01       5.239678262377e-03 
       5.256605252960e+01       2.769648204660e-03 
       6.617673932723e+01       1.448229646495e-03 
