# Matter power spectrum P(k) at redshift z=0
# for k=1.04775e-05 to 66.1767 h/Mpc,
# number of wavenumbers equal to 130
#    1:k (h/Mpc)              2:P (Mpc/h)^3        
       1.047750691046e-05       5.020964811314e+01 
       1.319039970183e-05       6.270562594780e+01 
       1.660572937635e-05       7.831147247912e+01 
       2.090537469327e-05       9.780108069295e+01 
       2.631830744443e-05       1.221408203810e+02 
       3.313278603720e-05       1.525374501932e+02 
       4.171170630578e-05       1.904975994010e+02 
       5.251192703764e-05       2.379022224249e+02 
       6.610859936996e-05       2.970989227880e+02 
       8.322579568497e-05       3.710167318946e+02 
       1.047750691046e-04       4.633080766742e+02 
       1.319039970183e-04       5.785234129334e+02 
       1.660572937635e-04       7.223242666092e+02 
       2.090537469327e-04       9.017396271824e+02 
       2.631830744443e-04       1.125468123750e+03 
       3.313278603720e-04       1.404223053681e+03 
       4.171170630578e-04       1.751108028789e+03 
       5.251192703764e-04       2.181998448133e+03 
       6.610859936996e-04       2.715889983592e+03 
       8.322579568497e-04       3.375152337135e+03 
       1.047750691046e-03       4.185552174309e+03 
       1.319039970183e-03       5.175742742861e+03 
       1.660572937635e-03       6.376123051776e+03 
       2.090537469327e-03       7.815671903395e+03 
       2.631830744443e-03       9.517783069112e+03 
       3.313278603720e-03       1.149357460346e+04 
       4.171170630578e-03       1.373266007473e+04 
       5.251192703764e-03       1.619063614560e+04 
       6.610859936996e-03       1.877460350613e+04 
       8.322579568497e-03       2.132606969416e+04 
       1.047750691046e-02       2.360548552064e+04 
       1.319039970183e-02       2.528218778923e+04 
       1.660572937633e-02       2.595026313123e+04 
       2.090537453514e-02       2.520936766202e+04 
       2.631818545635e-02       2.287036747334e+04 
       3.311571692125e-02       1.928628252674e+04 
       4.113809243311e-02       1.568425854466e+04 
       4.792590854610e-02       1.361061483978e+04 
       5.284436902701e-02       1.259131047497e+04 
       5.689644391095e-02       1.195555799396e+04 
       6.051252627066e-02       1.147547550541e+04 
       6.388413457411e-02       1.105587830731e+04 
       6.711249296401e-02       1.064900199453e+04 
       7.025823437965e-02       1.022928949414e+04 
       7.336115587705e-02       9.784531512458e+03 
       7.644928796912e-02       9.311658589341e+03 
       7.954353299775e-02       8.814538320868e+03 
       8.266024078725e-02       8.302109823968e+03 
       8.581273398637e-02       7.786953131995e+03 
       8.901225918437e-02       7.283174150509e+03 
       9.226860540985e-02       6.805156553976e+03 
       9.559052048996e-02       6.365630072280e+03 
       9.898599946599e-02       5.974392399232e+03 
       1.024624891378e-01       5.637316721511e+03 
       1.060270359164e-01       5.355761905559e+03 
       1.096863943056e-01       5.126256612064e+03 
       1.134471073830e-01       4.940473494877e+03 
       1.173155669539e-01       4.786172908184e+03 
       1.212980586983e-01       4.647939409106e+03 
       1.254007961065e-01       4.509150832001e+03 
       1.296299459934e-01       4.354550874918e+03 
       1.339916477160e-01       4.173209664512e+03 
       1.384920277736e-01       3.961170324025e+03 
       1.431372111762e-01       3.722688017719e+03 
       1.479333307714e-01       3.469553676917e+03 
       1.528865355934e-01       3.218340497398e+03 
       1.580029992204e-01       2.986299014673e+03 
       1.632889290723e-01       2.786970504352e+03 
       1.687505775527e-01       2.626825211590e+03 
       1.743942559171e-01       2.503759353120e+03 
       1.802263517371e-01       2.407340920796e+03 
       1.862533508214e-01       2.322255355848e+03 
       1.924818644494e-01       2.231550981032e+03 
       1.989186627765e-01       2.122186894534e+03 
       2.055707152847e-01       1.992025655259e+03 
       2.124452391818e-01       1.850324649427e+03 
       2.195497567139e-01       1.712183591219e+03 
       2.268921624510e-01       1.590987145173e+03 
       2.344808017550e-01       1.493667444532e+03 
       2.423245618548e-01       1.418311127567e+03 
       2.504329772620e-01       1.354464908177e+03 
       2.588163516754e-01       1.288941486573e+03 
       2.674858990930e-01       1.213937570227e+03 
       2.764539076010e-01       1.130691398413e+03 
       2.857339303080e-01       1.048102407014e+03 
       2.953410092148e-01       9.761849038484e+02 
       3.052919395542e-01       9.178115551951e+02 
       3.156055844677e-01       8.678976296080e+02 
       3.263032530092e-01       8.185268495045e+02 
       3.374091587054e-01       7.651481528056e+02 
       3.489509817175e-01       7.106695123491e+02 
       3.609605657343e-01       6.607863007069e+02 
       3.734747921333e-01       6.180866417500e+02 
       3.865366902904e-01       5.793116777165e+02 
       4.001968667448e-01       5.403917110615e+02 
       4.145153713076e-01       5.011519206876e+02 
       4.295641718077e-01       4.645003493835e+02 
       4.454304922144e-01       4.314092668492e+02 
       4.622214006969e-01       4.001139341274e+02 
       4.800702491654e-01       3.690897379667e+02 
       4.991459272112e-01       3.394760934491e+02 
       5.196665217302e-01       3.119856839073e+02 
       5.419201087032e-01       2.852470178488e+02 
       5.662975451962e-01       2.593312707637e+02 
       5.933463737275e-01       2.345475844478e+02 
       6.238638458458e-01       2.102305957764e+02 
       6.590669257916e-01       1.864338099669e+02 
       7.009246080454e-01       1.627252349763e+02 
       7.528593308799e-01       1.388184841109e+02 
       8.213469537518e-01       1.141883840005e+02 
       9.196980813302e-01       8.835955508149e+01 
       1.075112183810e+00       6.172618974583e+01 
       1.322697471132e+00       3.804275593674e+01 
       1.662328205042e+00       2.209803700426e+01 
       2.092692408506e+00       1.266921421011e+01 
       2.634543445090e+00       7.203348245607e+00 
       3.316693691389e+00       4.065150195996e+00 
       4.175469971226e+00       2.278618673429e+00 
       5.256605252960e+00       1.269345910854e+00 
       6.617673932723e+00       7.031361764804e-01 
       8.331157880872e+00       3.874754930586e-01 
       1.048830636590e+01       2.125102262622e-01 
       1.320399541071e+01       1.160362604491e-01 
       1.662284535976e+01       6.309869352205e-02 
       2.092692243973e+01       3.417929931944e-02 
       2.634543445002e+01       1.844606857819e-02 
       3.316693691389e+01       9.919180111470e-03 
       4.175469971226e+01       5.314591845163e-03 
       5.256605252960e+01       2.836677267616e-03 
       6.617673932723e+01       1.507680940198e-03 
