# Matter power spectrum P(k) at redshift z=0
# for k=1.04775e-05 to 67.6233 h/Mpc,
# number of wavenumbers equal to 246
#    1:k (h/Mpc)              2:P (Mpc/h)^3        
       1.047750691046e-05       5.020964811307e+01 
       1.131335172503e-05       5.407050701926e+01 
       1.221587619537e-05       5.822819068577e+01 
       1.319039970183e-05       6.270562594773e+01 
       1.424266597921e-05       6.752732240880e+01 
       1.537887696968e-05       7.271977206173e+01 
       1.660572937635e-05       7.831147247912e+01 
       1.793045413292e-05       8.433311821988e+01 
       1.936085902198e-05       9.081778249833e+01 
       2.090537469327e-05       9.780108069294e+01 
       2.257310435294e-05       1.053213197893e+02 
       2.437387741694e-05       1.134197377890e+02 
       2.631830744443e-05       1.221408203809e+02 
       2.841785469300e-05       1.315324642464e+02 
       3.068489366414e-05       1.416462094881e+02 
       3.313278603720e-05       1.525374501932e+02 
       3.577595942169e-05       1.642660688414e+02 
       3.862999239199e-05       1.768963506307e+02 
       4.171170630578e-05       1.904975994010e+02 
       4.503926444729e-05       2.051444491974e+02 
       4.863227907969e-05       2.209171465549e+02 
       5.251192703764e-05       2.379022224249e+02 
       5.670107454120e-05       2.561927927682e+02 
       6.122441196689e-05       2.758890444041e+02 
       6.610859936996e-05       2.970989227883e+02 
       7.138242361596e-05       3.199385560802e+02 
       7.707696804727e-05       3.445329783680e+02 
       8.322579568497e-05       3.710167318946e+02 
       8.986514704559e-05       3.995346444203e+02 
       9.703415373875e-05       4.302425407383e+02 
       1.047750691046e-04       4.633080766742e+02 
       1.131335172503e-04       4.989116271565e+02 
       1.221587619537e-04       5.372471950929e+02 
       1.319039970183e-04       5.785234129342e+02 
       1.424266597921e-04       6.229645934871e+02 
       1.537887696968e-04       6.708118490405e+02 
       1.660572937635e-04       7.223242666092e+02 
       1.793045413292e-04       7.777801560391e+02 
       1.936085902198e-04       8.374783614141e+02 
       2.090537469327e-04       9.017396271824e+02 
       2.257310435294e-04       9.709080268041e+02 
       2.437387741694e-04       1.045352449493e+03 
       2.631830744443e-04       1.125468123750e+03 
       2.841785469300e-04       1.211678180495e+03 
       3.068489366414e-04       1.304435250150e+03 
       3.313278603720e-04       1.404223053681e+03 
       3.577595942169e-04       1.511558014616e+03 
       3.862999239199e-04       1.626990837764e+03 
       4.171170630578e-04       1.751108028790e+03 
       4.503926444729e-04       1.884533382872e+03 
       4.863227907969e-04       2.027929378112e+03 
       5.251192703764e-04       2.181998448133e+03 
       5.670107454121e-04       2.347484102755e+03 
       6.122441196689e-04       2.525171871364e+03 
       6.610859936996e-04       2.715889983592e+03 
       7.138242361596e-04       2.920509688379e+03 
       7.707696804727e-04       3.139945100278e+03 
       8.322579568497e-04       3.375152337583e+03 
       8.986514704559e-04       3.627127831140e+03 
       9.703415373875e-04       3.896905453135e+03 
       1.047750691046e-03       4.185552174306e+03 
       1.131335172503e-03       4.494162430372e+03 
       1.221587619537e-03       4.823850706492e+03 
       1.319039970183e-03       5.175742735883e+03 
       1.424266597921e-03       5.551019596918e+03 
       1.537887696968e-03       5.950788340551e+03 
       1.660572937635e-03       6.376123051744e+03 
       1.793045413292e-03       6.828073901446e+03 
       1.936085902198e-03       7.307625381061e+03 
       2.090537469327e-03       7.815671865281e+03 
       2.257310435294e-03       8.352990375816e+03 
       2.437387741694e-03       8.920211064331e+03 
       2.631830744443e-03       9.517783069097e+03 
       2.841785469300e-03       1.014593704433e+04 
       3.068489366414e-03       1.080464502776e+04 
       3.313278603720e-03       1.149357460342e+04 
       3.577595942169e-03       1.221203621718e+04 
       3.862999239199e-03       1.295892539441e+04 
       4.171170630578e-03       1.373266009610e+04 
       4.503926444729e-03       1.453111835617e+04 
       4.863227907969e-03       1.535154985019e+04 
       5.251192703764e-03       1.619063612895e+04 
       5.670107454120e-03       1.704431257629e+04 
       6.122441196689e-03       1.790755940618e+04 
       6.610859936996e-03       1.877460422395e+04 
       7.138242361596e-03       1.963872433538e+04 
       7.707696804727e-03       2.049215714361e+04 
       8.322579568496e-03       2.132607245060e+04 
       8.986514704559e-03       2.213055005909e+04 
       9.703415373875e-03       2.289445484811e+04 
       1.047750691046e-02       2.360548585156e+04 
       1.131335172503e-02       2.425023433594e+04 
       1.221587619537e-02       2.481423929576e+04 
       1.319039970183e-02       2.528218854754e+04 
       1.424266597920e-02       2.563814363770e+04 
       1.537887696964e-02       2.586606829893e+04 
       1.660572937560e-02       2.595028443881e+04 
       1.793045412207e-02       2.587635694166e+04 
       1.936085889642e-02       2.563220229894e+04 
       2.090537351881e-02       2.520935880670e+04 
       2.257309534705e-02       2.460447716298e+04 
       2.437382002240e-02       2.382088549317e+04 
       2.631799943729e-02       2.287045424927e+04 
       2.841644544598e-02       2.177449744761e+04 
       3.067933354524e-02       2.056554407128e+04 
       3.311368469821e-02       1.928735494721e+04 
       3.571840442514e-02       1.799408598425e+04 
       3.847720347390e-02       1.674683663378e+04 
       4.135335537314e-02       1.560459676715e+04 
       4.429361666563e-02       1.461035094431e+04 
       4.724366437916e-02       1.378048982361e+04 
       5.016480834039e-02       1.310503837145e+04 
       5.303989618930e-02       1.255711182640e+04 
       5.586870668205e-02       1.210428862145e+04 
       5.866042679206e-02       1.171467710518e+04 
       6.142798931504e-02       1.136052435508e+04 
       6.418496438662e-02       1.101862608121e+04 
       6.694418832236e-02       1.067073333085e+04 
       6.971731104453e-02       1.030364567474e+04 
       7.251476154108e-02       9.909042247646e+03 
       7.534587669814e-02       9.483801814182e+03 
       7.821907664495e-02       9.029531663396e+03 
       8.114203771084e-02       8.552346028567e+03 
       8.412184533139e-02       8.061975497285e+03 
       8.716512277352e-02       7.570796372981e+03 
       9.027813693913e-02       7.092553449791e+03 
       9.346688429613e-02       6.640543185197e+03 
       9.673716026122e-02       6.226730365641e+03 
       1.000946150608e-01       5.859975795734e+03 
       1.035447986307e-01       5.545287655233e+03 
       1.070931966524e-01       5.283167452168e+03 
       1.107452594180e-01       5.069423497137e+03 
       1.145064248899e-01       4.895260253626e+03 
       1.183821370656e-01       4.747875226596e+03 
       1.223778605591e-01       4.611742440655e+03 
       1.264990921707e-01       4.470622030481e+03 
       1.307513701078e-01       4.310217800411e+03 
       1.351402814485e-01       4.121375291119e+03 
       1.396714683894e-01       3.902062653620e+03 
       1.443506337875e-01       3.658639473743e+03 
       1.491835464900e-01       3.404483874706e+03 
       1.541760469368e-01       3.156655136411e+03 
       1.593340535209e-01       2.931937916863e+03 
       1.646635701934e-01       2.742362331680e+03 
       1.701706958081e-01       2.592255953826e+03 
       1.758616357070e-01       2.477225093605e+03 
       1.817427160581e-01       2.385164199594e+03 
       1.878204014651e-01       2.300360919339e+03 
       1.941013163855e-01       2.205752157551e+03 
       2.005922709060e-01       2.090821855069e+03 
       2.073002914514e-01       1.956469039589e+03 
       2.142326570343e-01       1.814176971931e+03 
       2.213969417044e-01       1.679271062360e+03 
       2.288010639201e-01       1.563838899623e+03 
       2.364533436625e-01       1.472674273045e+03 
       2.443625682390e-01       1.401505288242e+03 
       2.525380678946e-01       1.338418262194e+03 
       2.609898025770e-01       1.270904227085e+03 
       2.697284614969e-01       1.193358963438e+03 
       2.787655775073e-01       1.109331150817e+03 
       2.881136588192e-01       1.028763785784e+03 
       2.977863412019e-01       9.604762354330e+02 
       3.077985646248e-01       9.050192346974e+02 
       3.181667793367e-01       8.561370504336e+02 
       3.289091877084e-01       8.061830299506e+02 
       3.400460298905e-01       7.523830802102e+02 
       3.515999235695e-01       6.989161549470e+02 
       3.635962710278e-01       6.510555530333e+02 
       3.760637505499e-01       6.101200224748e+02 
       3.890349143014e-01       5.721283769272e+02 
       4.025469215929e-01       5.337770453090e+02 
       4.166424455447e-01       4.956227725437e+02 
       4.313708034899e-01       4.604646159892e+02 
       4.467893781976e-01       4.287715442739e+02 
       4.629654198623e-01       3.987688427887e+02 
       4.799783500912e-01       3.692363474998e+02 
       4.979227318246e-01       3.412365165576e+02 
       5.169121269689e-01       3.154784305982e+02 
       5.370841403262e-01       2.908309227924e+02 
       5.586070463286e-01       2.671016606494e+02 
       5.816885093582e-01       2.448058697402e+02 
       6.065870143577e-01       2.235662674183e+02 
       6.336266466978e-01       2.032088605845e+02 
       6.632156057925e-01       1.838775834445e+02 
       6.958678637575e-01       1.653537318689e+02 
       7.322247983784e-01       1.476947136873e+02 
       7.730680193171e-01       1.308333375583e+02 
       8.193049551574e-01       1.148309406425e+02 
       8.718988013754e-01       9.976240475209e+01 
       9.317218028590e-01       8.577729042224e+01 
       9.993660906273e-01       7.305435226516e+01 
       1.075037109879e+00       6.173559862052e+01 
       1.158653485387e+00       5.187852629681e+01 
       1.250099156961e+00       4.343983199298e+01 
       1.349432400897e+00       3.628858684320e+01 
       1.456947456991e+00       3.026749488479e+01 
       1.573135110893e+00       2.521407495885e+01 
       1.698621895119e+00       2.098162101345e+01 
       1.834127512423e+00       1.744195735807e+01 
       1.980444933977e+00       1.448516154233e+01 
       2.138435191130e+00       1.201850715991e+01 
       2.309029198543e+00       9.962695662784e+00 
       2.493232376993e+00       8.251372365343e+00 
       2.692130394536e+00       6.828104787937e+00 
       2.906895533764e+00       5.645703779590e+00 
       3.138793596840e+00       4.664326227171e+00 
       3.389191365541e+00       3.850511235754e+00 
       3.659564656886e+00       3.176323313811e+00 
       3.951507021438e+00       2.618164286536e+00 
       4.266739135513e+00       2.156650595883e+00 
       4.607118942658e+00       1.775189436334e+00 
       4.974652604172e+00       1.460197798025e+00 
       5.371506323193e+00       1.200277837270e+00 
       5.800019112071e+00       9.859599079226e-01 
       6.262716578240e+00       8.093674283589e-01 
       6.762325809881e+00       6.639484886670e-01 
       7.301791449077e+00       5.442900052402e-01 
       7.884293047211e+00       4.458743466640e-01 
       8.513263804891e+00       3.649810998213e-01 
       9.192410806865e+00       2.985199966946e-01 
       9.925736871166e+00       2.439484890245e-01 
       1.071756414128e+01       1.991543842412e-01 
       1.157255956041e+01       1.624030651703e-01 
       1.249576237789e+01       1.322560757907e-01 
       1.349261385000e+01       1.075359269691e-01 
       1.456898931011e+01       8.726653708479e-02 
       1.573123279727e+01       7.064526630003e-02 
       1.698619444729e+01       5.701610569125e-02 
       1.834127086665e+01       4.583833399362e-02 
       1.980444872733e+01       3.666957365289e-02 
       2.138435183937e+01       2.914668131139e-02 
       2.309029197863e+01       2.297424248516e-02 
       2.493232376942e+01       1.791159511700e-02 
       2.692130394533e+01       1.376430545193e-02 
       2.906895533764e+01       1.037600934818e-02 
       3.138793596840e+01       7.621904942437e-03 
       3.389191365541e+01       5.403798375231e-03 
       3.659564656886e+01       3.645246113762e-03 
       3.951507021438e+01       2.286708777725e-03 
       4.266739135513e+01       1.281522786342e-03 
       4.607118942658e+01       5.911305158892e-04 
       4.974652604172e+01       1.800112272881e-04 
       5.371506323193e+01       1.038644339035e-05 
       5.800019112071e+01       3.710844646313e-05 
       6.262716578240e+01       2.040165807438e-04 
       6.762325809881e+01       4.432144779691e-04 
