# Matter power spectrum P(k) at redshift z=0
# for k=1.04775e-05 to 66.1767 h/Mpc,
# number of wavenumbers equal to 130
#    1:k (h/Mpc)              2:P (Mpc/h)^3        
       1.047750691046e-05       5.020964811306e+01 
       1.319039970183e-05       6.270562594781e+01 
       1.660572937635e-05       7.831147247912e+01 
       2.090537469327e-05       9.780108069295e+01 
       2.631830744443e-05       1.221408203809e+02 
       3.313278603720e-05       1.525374501932e+02 
       4.171170630578e-05       1.904975994010e+02 
       5.251192703764e-05       2.379022224249e+02 
       6.610859936996e-05       2.970989227883e+02 
       8.322579568497e-05       3.710167318946e+02 
       1.047750691046e-04       4.633080766742e+02 
       1.319039970183e-04       5.785234129344e+02 
       1.660572937635e-04       7.223242666092e+02 
       2.090537469327e-04       9.017396271824e+02 
       2.631830744443e-04       1.125468123750e+03 
       3.313278603720e-04       1.404223053681e+03 
       4.171170630578e-04       1.751108028789e+03 
       5.251192703764e-04       2.181998448133e+03 
       6.610859936996e-04       2.715889983592e+03 
       8.322579568497e-04       3.375152337134e+03 
       1.047750691046e-03       4.185552174307e+03 
       1.319039970183e-03       5.175742740612e+03 
       1.660572937635e-03       6.376123051790e+03 
       2.090537469327e-03       7.815671865182e+03 
       2.631830744443e-03       9.517783069112e+03 
       3.313278603720e-03       1.149357460341e+04 
       4.171170630578e-03       1.373266013194e+04 
       5.251192703764e-03       1.619063614467e+04 
       6.610859936996e-03       1.877460424865e+04 
       8.322579568497e-03       2.132606824304e+04 
       1.047750691046e-02       2.360548440681e+04 
       1.319039970183e-02       2.528218807009e+04 
       1.660572937633e-02       2.595028739674e+04 
       2.090537453514e-02       2.520934731424e+04 
       2.631818545635e-02       2.287031792701e+04 
       3.311571692125e-02       1.928622832541e+04 
       4.113809243311e-02       1.568428117508e+04 
       4.792590854610e-02       1.361067067131e+04 
       5.284436902701e-02       1.259130077978e+04 
       5.689644391095e-02       1.195555405083e+04 
       6.051252627066e-02       1.147547773309e+04 
       6.388413457411e-02       1.105587821827e+04 
       6.711249296401e-02       1.064898075239e+04 
       7.025823437965e-02       1.022929627269e+04 
       7.336115587705e-02       9.784535294118e+03 
       7.644928796912e-02       9.311649297120e+03 
       7.954353299775e-02       8.814529966845e+03 
       8.266024078725e-02       8.302141392840e+03 
       8.581273398637e-02       7.786964979848e+03 
       8.901225918437e-02       7.283175879473e+03 
       9.226860540985e-02       6.805152242466e+03 
       9.559052048996e-02       6.365626308814e+03 
       9.898599946599e-02       5.974386846679e+03 
       1.024624891378e-01       5.637296947369e+03 
       1.060270359164e-01       5.355794158437e+03 
       1.096863943056e-01       5.126242244387e+03 
       1.134471073830e-01       4.940472641911e+03 
       1.173155669539e-01       4.786151489962e+03 
       1.212980586983e-01       4.647940370854e+03 
       1.254007961065e-01       4.509149699709e+03 
       1.296299459934e-01       4.354555599554e+03 
       1.339916477160e-01       4.173216539979e+03 
       1.384920277736e-01       3.961149661161e+03 
       1.431372111762e-01       3.722692095238e+03 
       1.479333307714e-01       3.469559884393e+03 
       1.528865355934e-01       3.218334524943e+03 
       1.580029992204e-01       2.986275163046e+03 
       1.632889290723e-01       2.786964725496e+03 
       1.687505775527e-01       2.626825765184e+03 
       1.743942559171e-01       2.503758762291e+03 
       1.802263517371e-01       2.407337512493e+03 
       1.862533508214e-01       2.322249350892e+03 
       1.924818644494e-01       2.231549283318e+03 
       1.989186627765e-01       2.122186140466e+03 
       2.055707152847e-01       1.992015215307e+03 
       2.124452391818e-01       1.850321831899e+03 
       2.195497567139e-01       1.712169464633e+03 
       2.268921624510e-01       1.590986379615e+03 
       2.344808017550e-01       1.493659337635e+03 
       2.423245618548e-01       1.418315657632e+03 
       2.504329772620e-01       1.354458906474e+03 
       2.588163516754e-01       1.288931533162e+03 
       2.674858990930e-01       1.213936715725e+03 
       2.764539076010e-01       1.130689442372e+03 
       2.857339303080e-01       1.048096853646e+03 
       2.953410092148e-01       9.761801550791e+02 
       3.052919395542e-01       9.178055741900e+02 
       3.156055844677e-01       8.678945335034e+02 
       3.263032530092e-01       8.185256526542e+02 
       3.374091587054e-01       7.651443068210e+02 
       3.489509817175e-01       7.106670985586e+02 
       3.609605657343e-01       6.607836826004e+02 
       3.734747921333e-01       6.180827951624e+02 
       3.865366902904e-01       5.793088856181e+02 
       4.001968667448e-01       5.403892728733e+02 
       4.145153713076e-01       5.011486020322e+02 
       4.295641718077e-01       4.644981125414e+02 
       4.454304922144e-01       4.314056799126e+02 
       4.622214006969e-01       4.001112268253e+02 
       4.800702491654e-01       3.690864970836e+02 
       4.991459272112e-01       3.394751026824e+02 
       5.196665217302e-01       3.119838375902e+02 
       5.419201087032e-01       2.852455991958e+02 
       5.662975451962e-01       2.593292978335e+02 
       5.933463737275e-01       2.345468202405e+02 
       6.238638458458e-01       2.102294389636e+02 
       6.590669257916e-01       1.864327779890e+02 
       7.009246080454e-01       1.627242954804e+02 
       7.528593308799e-01       1.388174096022e+02 
       8.213469537518e-01       1.141871015502e+02 
       9.196980813302e-01       8.835862475079e+01 
       1.075112183810e+00       6.172574536742e+01 
       1.322697471132e+00       3.804289707335e+01 
       1.662328205042e+00       2.209785693539e+01 
       2.092692408506e+00       1.266910897397e+01 
       2.634543445090e+00       7.203248696261e+00 
       3.316693691389e+00       4.065120508862e+00 
       4.175469971226e+00       2.278603148289e+00 
       5.256605252960e+00       1.269332914800e+00 
       6.617673932723e+00       7.031174919238e-01 
       8.331157880872e+00       3.874645738354e-01 
       1.048830636590e+01       2.125007152090e-01 
       1.320399541071e+01       1.160285014763e-01 
       1.662284535976e+01       6.309149423805e-02 
       2.092692243973e+01       3.417296541754e-02 
       2.634543445002e+01       1.843981917593e-02 
       3.316693691389e+01       9.913528368099e-03 
       4.175469971226e+01       5.309495892002e-03 
       5.256605252960e+01       2.832061716236e-03 
       6.617673932723e+01       1.503489977320e-03 
