# Matter power spectrum P(k) at redshift z=0
# for k=1.04775e-05 to 66.1767 h/Mpc,
# number of wavenumbers equal to 130
#    1:k (h/Mpc)              2:P (Mpc/h)^3        
       1.047750691046e-05       5.020964811308e+01 
       1.319039970183e-05       6.270562594781e+01 
       1.660572937635e-05       7.831147247912e+01 
       2.090537469327e-05       9.780108069295e+01 
       2.631830744443e-05       1.221408203809e+02 
       3.313278603720e-05       1.525374501932e+02 
       4.171170630578e-05       1.904975994010e+02 
       5.251192703764e-05       2.379022224249e+02 
       6.610859936996e-05       2.970989227881e+02 
       8.322579568497e-05       3.710167318946e+02 
       1.047750691046e-04       4.633080766742e+02 
       1.319039970183e-04       5.785234129343e+02 
       1.660572937635e-04       7.223242666092e+02 
       2.090537469327e-04       9.017396271824e+02 
       2.631830744443e-04       1.125468123750e+03 
       3.313278603720e-04       1.404223053681e+03 
       4.171170630578e-04       1.751108028790e+03 
       5.251192703764e-04       2.181998448133e+03 
       6.610859936996e-04       2.715889983593e+03 
       8.322579568497e-04       3.375152337134e+03 
       1.047750691046e-03       4.185552174308e+03 
       1.319039970183e-03       5.175742744060e+03 
       1.660572937635e-03       6.376123051774e+03 
       2.090537469327e-03       7.815671852406e+03 
       2.631830744443e-03       9.517783069112e+03 
       3.313278603720e-03       1.149357460345e+04 
       4.171170630578e-03       1.373266010985e+04 
       5.251192703764e-03       1.619063614559e+04 
       6.610859936996e-03       1.877460403797e+04 
       8.322579568497e-03       2.132607231876e+04 
       1.047750691046e-02       2.360548193984e+04 
       1.319039970183e-02       2.528218654655e+04 
       1.660572937633e-02       2.595023600710e+04 
       2.090537453514e-02       2.520935008351e+04 
       2.631818545635e-02       2.287034384367e+04 
       3.311571692125e-02       1.928628442011e+04 
       4.113809243311e-02       1.568424514061e+04 
       4.792590854610e-02       1.361063074378e+04 
       5.284436902701e-02       1.259130343282e+04 
       5.689644391095e-02       1.195553230056e+04 
       6.051252627066e-02       1.147547923441e+04 
       6.388413457411e-02       1.105591563289e+04 
       6.711249296401e-02       1.064899536199e+04 
       7.025823437965e-02       1.022929832941e+04 
       7.336115587705e-02       9.784549528514e+03 
       7.644928796912e-02       9.311662541275e+03 
       7.954353299775e-02       8.814551109218e+03 
       8.266024078725e-02       8.302124297575e+03 
       8.581273398637e-02       7.786938869802e+03 
       8.901225918437e-02       7.283177381516e+03 
       9.226860540985e-02       6.805170033762e+03 
       9.559052048996e-02       6.365639370071e+03 
       9.898599946599e-02       5.974400880860e+03 
       1.024624891378e-01       5.637327816182e+03 
       1.060270359164e-01       5.355763997804e+03 
       1.096863943056e-01       5.126269409814e+03 
       1.134471073830e-01       4.940480931836e+03 
       1.173155669539e-01       4.786175840314e+03 
       1.212980586983e-01       4.647941994467e+03 
       1.254007961065e-01       4.509152735091e+03 
       1.296299459934e-01       4.354540653701e+03 
       1.339916477160e-01       4.173216536709e+03 
       1.384920277736e-01       3.961164806343e+03 
       1.431372111762e-01       3.722680259334e+03 
       1.479333307714e-01       3.469553909682e+03 
       1.528865355934e-01       3.218339645864e+03 
       1.580029992204e-01       2.986298986317e+03 
       1.632889290723e-01       2.786966360547e+03 
       1.687505775527e-01       2.626826478324e+03 
       1.743942559171e-01       2.503753969713e+03 
       1.802263517371e-01       2.407344237010e+03 
       1.862533508214e-01       2.322253825595e+03 
       1.924818644494e-01       2.231553947681e+03 
       1.989186627765e-01       2.122192444537e+03 
       2.055707152847e-01       1.992027626758e+03 
       2.124452391818e-01       1.850332374838e+03 
       2.195497567139e-01       1.712185827772e+03 
       2.268921624510e-01       1.590989266241e+03 
       2.344808017550e-01       1.493664572626e+03 
       2.423245618548e-01       1.418309275675e+03 
       2.504329772620e-01       1.354465887621e+03 
       2.588163516754e-01       1.288935115912e+03 
       2.674858990930e-01       1.213935825815e+03 
       2.764539076010e-01       1.130689692922e+03 
       2.857339303080e-01       1.048097273663e+03 
       2.953410092148e-01       9.761829322212e+02 
       3.052919395542e-01       9.178100543632e+02 
       3.156055844677e-01       8.678974074006e+02 
       3.263032530092e-01       8.185264691630e+02 
       3.374091587054e-01       7.651465411932e+02 
       3.489509817175e-01       7.106704019678e+02 
       3.609605657343e-01       6.607872063003e+02 
       3.734747921333e-01       6.180876207434e+02 
       3.865366902904e-01       5.793115637602e+02 
       4.001968667448e-01       5.403910083167e+02 
       4.145153713076e-01       5.011518734415e+02 
       4.295641718077e-01       4.644977675056e+02 
       4.454304922144e-01       4.314091398578e+02 
       4.622214006969e-01       4.001137478414e+02 
       4.800702491654e-01       3.690890233097e+02 
       4.991459272112e-01       3.394752738510e+02 
       5.196665217302e-01       3.119849475434e+02 
       5.419201087032e-01       2.852472255859e+02 
       5.662975451962e-01       2.593310882644e+02 
       5.933463737275e-01       2.345483321207e+02 
       6.238638458458e-01       2.102301467858e+02 
       6.590669257916e-01       1.864332911689e+02 
       7.009246080454e-01       1.627254846253e+02 
       7.528593308799e-01       1.388188875499e+02 
       8.213469537518e-01       1.141880163269e+02 
       9.196980813302e-01       8.835938969059e+01 
       1.075112183810e+00       6.172654732418e+01 
       1.322697471132e+00       3.804292393009e+01 
       1.662328205042e+00       2.209787729800e+01 
       2.092692408506e+00       1.266920409823e+01 
       2.634543445090e+00       7.203375817345e+00 
       3.316693691389e+00       4.065151046616e+00 
       4.175469971226e+00       2.278623445275e+00 
       5.256605252960e+00       1.269349197670e+00 
       6.617673932723e+00       7.031332826583e-01 
       8.331157880872e+00       3.874784809440e-01 
       1.048830636590e+01       2.125098842475e-01 
       1.320399541071e+01       1.160368240837e-01 
       1.662284535976e+01       6.309915655484e-02 
       2.092692243973e+01       3.417950669741e-02 
       2.634543445002e+01       1.844595743876e-02 
       3.316693691389e+01       9.919251883717e-03 
       4.175469971226e+01       5.314615751909e-03 
       5.256605252960e+01       2.836673317432e-03 
       6.617673932723e+01       1.507711288204e-03 
