# Matter power spectrum P(k) at redshift z=0
# for k=1.04775e-05 to 66.1767 h/Mpc,
# number of wavenumbers equal to 130
#    1:k (h/Mpc)              2:P (Mpc/h)^3        
       1.047750691046e-05       5.020964811306e+01 
       1.319039970183e-05       6.270562594784e+01 
       1.660572937635e-05       7.831147247912e+01 
       2.090537469327e-05       9.780108069296e+01 
       2.631830744443e-05       1.221408203809e+02 
       3.313278603720e-05       1.525374501932e+02 
       4.171170630578e-05       1.904975994010e+02 
       5.251192703764e-05       2.379022224248e+02 
       6.610859936996e-05       2.970989227882e+02 
       8.322579568497e-05       3.710167318945e+02 
       1.047750691046e-04       4.633080766741e+02 
       1.319039970183e-04       5.785234129325e+02 
       1.660572937635e-04       7.223242666089e+02 
       2.090537469327e-04       9.017396271819e+02 
       2.631830744443e-04       1.125468123749e+03 
       3.313278603720e-04       1.404223053679e+03 
       4.171170630578e-04       1.751108028786e+03 
       5.251192703764e-04       2.181998448125e+03 
       6.610859936996e-04       2.715889983577e+03 
       8.322579568497e-04       3.375152337105e+03 
       1.047750691046e-03       4.185552174249e+03 
       1.319039970183e-03       5.175742738590e+03 
       1.660572937635e-03       6.376123051502e+03 
       2.090537469327e-03       7.815671865239e+03 
       2.631830744443e-03       9.517783068040e+03 
       3.313278603720e-03       1.149357460128e+04 
       4.171170630578e-03       1.373266009091e+04 
       5.251192703764e-03       1.619063497069e+04 
       6.610859936996e-03       1.877460444933e+04 
       8.322579568497e-03       2.132611297159e+04 
       1.047750691046e-02       2.360547849090e+04 
       1.319039970183e-02       2.528218793118e+04 
       1.660572937633e-02       2.595035573602e+04 
       2.090537453514e-02       2.520926972355e+04 
       2.631818545635e-02       2.287036531629e+04 
       3.311571692125e-02       1.928620537619e+04 
       4.113809243311e-02       1.568414296921e+04 
       4.792590854610e-02       1.361055517077e+04 
       5.284436902701e-02       1.259120304747e+04 
       5.689644391095e-02       1.195552455907e+04 
       6.051252627066e-02       1.147549256975e+04 
       6.388413457411e-02       1.105562241745e+04 
       6.711249296401e-02       1.064887432478e+04 
       7.025823437965e-02       1.022928384406e+04 
       7.336115587705e-02       9.784558339578e+03 
       7.644928796912e-02       9.311700153730e+03 
       7.954353299775e-02       8.814478308205e+03 
       8.266024078725e-02       8.301911362530e+03 
       8.581273398637e-02       7.786942024587e+03 
       8.901225918437e-02       7.283217846531e+03 
       9.226860540985e-02       6.805178532184e+03 
       9.559052048996e-02       6.365611754717e+03 
       9.898599946599e-02       5.974390962836e+03 
       1.024624891378e-01       5.637327566551e+03 
       1.060270359164e-01       5.355795961902e+03 
       1.096863943056e-01       5.126234163747e+03 
       1.134471073830e-01       4.940453535230e+03 
       1.173155669539e-01       4.786141526411e+03 
       1.212980586983e-01       4.647925935196e+03 
       1.254007961065e-01       4.509035104301e+03 
       1.296299459934e-01       4.354540198554e+03 
       1.339916477160e-01       4.173137770884e+03 
       1.384920277736e-01       3.961166999803e+03 
       1.431372111762e-01       3.722587737717e+03 
       1.479333307714e-01       3.469550683156e+03 
       1.528865355934e-01       3.218315835765e+03 
       1.580029992204e-01       2.986241018553e+03 
       1.632889290723e-01       2.786937500611e+03 
       1.687505775527e-01       2.626804733761e+03 
       1.743942559171e-01       2.503746700965e+03 
       1.802263517371e-01       2.407297432445e+03 
       1.862533508214e-01       2.322251072155e+03 
       1.924818644494e-01       2.231556824308e+03 
       1.989186627765e-01       2.122199331690e+03 
       2.055707152847e-01       1.992034233895e+03 
       2.124452391818e-01       1.850290480971e+03 
       2.195497567139e-01       1.712148983064e+03 
       2.268921624510e-01       1.590961504224e+03 
       2.344808017550e-01       1.493649587535e+03 
       2.423245618548e-01       1.418296526027e+03 
       2.504329772620e-01       1.354436785267e+03 
       2.588163516754e-01       1.288921841717e+03 
       2.674858990930e-01       1.213896940743e+03 
       2.764539076010e-01       1.130670570641e+03 
       2.857339303080e-01       1.048077276529e+03 
       2.953410092148e-01       9.761628945865e+02 
       3.052919395542e-01       9.177929315880e+02 
       3.156055844677e-01       8.678774699886e+02 
       3.263032530092e-01       8.185139196432e+02 
       3.374091587054e-01       7.651305610710e+02 
       3.489509817175e-01       7.106482088370e+02 
       3.609605657343e-01       6.607663133561e+02 
       3.734747921333e-01       6.180704966102e+02 
       3.865366902904e-01       5.792874784774e+02 
       4.001968667448e-01       5.403708799846e+02 
       4.145153713076e-01       5.011323072089e+02 
       4.295641718077e-01       4.644837895888e+02 
       4.454304922144e-01       4.313889792026e+02 
       4.622214006969e-01       4.000968649666e+02 
       4.800702491654e-01       3.690712349867e+02 
       4.991459272112e-01       3.394580863963e+02 
       5.196665217302e-01       3.119675116768e+02 
       5.419201087032e-01       2.852301523957e+02 
       5.662975451962e-01       2.593133774119e+02 
       5.933463737275e-01       2.345318569967e+02 
       6.238638458458e-01       2.102156718045e+02 
       6.590669257916e-01       1.864190332092e+02 
       7.009246080454e-01       1.627106072741e+02 
       7.528593308799e-01       1.388039710201e+02 
       8.213469537518e-01       1.141741253325e+02 
       9.196980813302e-01       8.834414745785e+01 
       1.075112183810e+00       6.171122873885e+01 
       1.322697471132e+00       3.802756054230e+01 
       1.662328205042e+00       2.208276961205e+01 
       2.092692408506e+00       1.265403734459e+01 
       2.634543445090e+00       7.188299614006e+00 
       3.316693691389e+00       4.050373001200e+00 
       4.175469971226e+00       2.264142617217e+00 
       5.256605252960e+00       1.255169485233e+00 
       6.617673932723e+00       6.892474569111e-01 
       8.331157880872e+00       3.738444578019e-01 
       1.048830636590e+01       1.991006045440e-01 
       1.320399541071e+01       1.028454811103e-01 
       1.662284535976e+01       5.023821398659e-02 
       2.092692243973e+01       2.199248772731e-02 
       2.634543445002e+01       7.635657323467e-03 
       3.316693691389e+01       1.496088502982e-03 
       4.175469971226e+01       1.328666364657e-05 
       5.256605252960e+01       1.618036282155e-04 
       6.617673932723e+01       8.097661991509e-05 
