# Matter power spectrum P(k) at redshift z=99
# for k=1.04775e-05 to 66.1767 h/Mpc,
# number of wavenumbers equal to 130
#    1:k (h/Mpc)              2:P (Mpc/h)^3        
       1.047750691046e-05       7.261927680861e-03 
       1.319039970183e-05       9.069258201848e-03 
       1.660572937635e-05       1.132639106725e-02 
       2.090537469327e-05       1.414527123399e-02 
       2.631830744443e-05       1.766569584058e-02 
       3.313278603720e-05       2.206225515942e-02 
       4.171170630578e-05       2.755297766277e-02 
       5.251192703764e-05       3.441013522947e-02 
       6.610859936996e-05       4.297372172777e-02 
       8.322579568497e-05       5.366826852944e-02 
       1.047750691046e-04       6.702379872774e-02 
       1.319039970183e-04       8.370193441286e-02 
       1.660572937635e-04       1.045283355384e-01 
       2.090537469327e-04       1.305329134104e-01 
       2.631830744443e-04       1.629994506605e-01 
       3.313278603720e-04       2.035264004601e-01 
       4.171170630578e-04       2.541004744243e-01 
       5.251192703764e-04       3.171839528557e-01 
       6.610859936996e-04       3.958147256513e-01 
       8.322579568497e-04       4.937136006273e-01 
       1.047750691046e-03       6.153841636042e-01 
       1.319039970183e-03       7.661720592305e-01 
       1.660572937635e-03       9.522588016467e-01 
       2.090537469327e-03       1.180312991699e+00 
       2.631830744443e-03       1.456802684686e+00 
       3.313278603720e-03       1.786503854040e+00 
       4.171170630578e-03       2.169896192426e+00 
       5.251192703764e-03       2.599430630723e+00 
       6.610859936996e-03       3.055668714090e+00 
       8.322579568497e-03       3.505725070481e+00 
       1.047750691046e-02       3.905491813729e+00 
       1.319039970183e-02       4.200915360102e+00 
       1.660572937633e-02       4.325059786680e+00 
       2.090537453514e-02       4.210204056460e+00 
       2.631818545635e-02       3.825148110765e+00 
       3.311571692125e-02       3.229060750975e+00 
       4.113809243311e-02       2.627727337315e+00 
       4.792590854610e-02       2.280796271410e+00 
       5.284436902701e-02       2.110086073379e+00 
       5.689644391095e-02       2.003538841752e+00 
       6.051252627066e-02       1.923054927545e+00 
       6.388413457411e-02       1.852734689415e+00 
       6.711249296401e-02       1.784563864119e+00 
       7.025823437965e-02       1.714275864832e+00 
       7.336115587705e-02       1.639814504847e+00 
       7.644928796912e-02       1.560660893968e+00 
       7.954353299775e-02       1.477456484640e+00 
       8.266024078725e-02       1.391697695113e+00 
       8.581273398637e-02       1.305460970507e+00 
       8.901225918437e-02       1.221129623780e+00 
       9.226860540985e-02       1.141078306639e+00 
       9.559052048996e-02       1.067451404730e+00 
       9.898599946599e-02       1.001889350917e+00 
       1.024624891378e-01       9.453798480362e-01 
       1.060270359164e-01       8.981502073938e-01 
       1.096863943056e-01       8.596129210809e-01 
       1.134471073830e-01       8.284051044773e-01 
       1.173155669539e-01       8.024667170986e-01 
       1.212980586983e-01       7.792291900241e-01 
       1.254007961065e-01       7.559173220898e-01 
       1.296299459934e-01       7.299834885911e-01 
       1.339916477160e-01       6.995923604669e-01 
       1.384920277736e-01       6.640793495955e-01 
       1.431372111762e-01       6.241463982182e-01 
       1.479333307714e-01       5.817630083227e-01 
       1.528865355934e-01       5.396944352755e-01 
       1.580029992204e-01       5.008135076512e-01 
       1.632889290723e-01       4.673987805202e-01 
       1.687505775527e-01       4.405352424204e-01 
       1.743942559171e-01       4.198659188975e-01 
       1.802263517371e-01       4.036596836648e-01 
       1.862533508214e-01       3.893596729923e-01 
       1.924818644494e-01       3.741349919205e-01 
       1.989186627765e-01       3.558021558580e-01 
       2.055707152847e-01       3.339986244813e-01 
       2.124452391818e-01       3.102649636565e-01 
       2.195497567139e-01       2.871235969032e-01 
       2.268921624510e-01       2.668080246039e-01 
       2.344808017550e-01       2.504834093619e-01 
       2.423245618548e-01       2.378331764249e-01 
       2.504329772620e-01       2.271118285869e-01 
       2.588163516754e-01       2.161175980376e-01 
       2.674858990930e-01       2.035456892389e-01 
       2.764539076010e-01       1.895976729005e-01 
       2.857339303080e-01       1.757568033615e-01 
       2.953410092148e-01       1.637001543966e-01 
       3.052919395542e-01       1.539071035488e-01 
       3.156055844677e-01       1.455312030434e-01 
       3.263032530092e-01       1.372499027709e-01 
       3.374091587054e-01       1.283022649709e-01 
       3.489509817175e-01       1.191712872926e-01 
       3.609605657343e-01       1.108076384427e-01 
       3.734747921333e-01       1.036452024990e-01 
       3.865366902904e-01       9.714130726810e-02 
       4.001968667448e-01       9.061554314315e-02 
       4.145153713076e-01       8.403711340244e-02 
       4.295641718077e-01       7.789149982962e-02 
       4.454304922144e-01       7.234186635832e-02 
       4.622214006969e-01       6.709383292316e-02 
       4.800702491654e-01       6.189190775425e-02 
       4.991459272112e-01       5.692649728639e-02 
       5.196665217302e-01       5.231619112749e-02 
       5.419201087032e-01       4.783262090993e-02 
       5.662975451962e-01       4.348703216452e-02 
       5.933463737275e-01       3.933113506345e-02 
       6.238638458458e-01       3.525349950293e-02 
       6.590669257916e-01       3.126295223907e-02 
       7.009246080454e-01       2.728741432219e-02 
       7.528593308799e-01       2.327847215737e-02 
       8.213469537518e-01       1.914828986544e-02 
       9.196980813302e-01       1.481710146895e-02 
       1.075112183810e+00       1.035092142632e-02 
       1.322697471132e+00       6.379494491935e-03 
       1.662328205042e+00       3.705685505924e-03 
       2.092692408506e+00       2.124550666685e-03 
       2.634543445090e+00       1.207967941519e-03 
       3.316693691389e+00       6.817100357188e-04 
       4.175469971226e+00       3.821240855822e-04 
       5.256605252960e+00       2.128762728017e-04 
       6.617673932723e+00       1.179238938937e-04 
       8.331157880872e+00       6.498830276207e-05 
       1.048830636590e+01       3.564602948533e-05 
       1.320399541071e+01       1.946643621368e-05 
       1.662284535976e+01       1.058809691804e-05 
       2.092692243973e+01       5.737565265109e-06 
       2.634543445002e+01       3.098246421337e-06 
       3.316693691389e+01       1.667601136267e-06 
       4.175469971226e+01       8.948065403442e-07 
       5.256605252960e+01       4.787209530635e-07 
       6.617673932723e+01       2.553754101797e-07 
