# Matter power spectrum P(k) at redshift z=0
# for k=1.04775e-05 to 66.1767 h/Mpc,
# number of wavenumbers equal to 130
#    1:k (h/Mpc)              2:P (Mpc/h)^3        
       1.047750691046e-05       5.020964811307e+01 
       1.319039970183e-05       6.270562594775e+01 
       1.660572937635e-05       7.831147247912e+01 
       2.090537469327e-05       9.780108069294e+01 
       2.631830744443e-05       1.221408203809e+02 
       3.313278603720e-05       1.525374501932e+02 
       4.171170630578e-05       1.904975994010e+02 
       5.251192703764e-05       2.379022224249e+02 
       6.610859936996e-05       2.970989227881e+02 
       8.322579568497e-05       3.710167318946e+02 
       1.047750691046e-04       4.633080766742e+02 
       1.319039970183e-04       5.785234129338e+02 
       1.660572937635e-04       7.223242666092e+02 
       2.090537469327e-04       9.017396271824e+02 
       2.631830744443e-04       1.125468123750e+03 
       3.313278603720e-04       1.404223053681e+03 
       4.171170630578e-04       1.751108028790e+03 
       5.251192703764e-04       2.181998448133e+03 
       6.610859936996e-04       2.715889983593e+03 
       8.322579568497e-04       3.375152337134e+03 
       1.047750691046e-03       4.185552174308e+03 
       1.319039970183e-03       5.175742741830e+03 
       1.660572937635e-03       6.376123051775e+03 
       2.090537469327e-03       7.815671853881e+03 
       2.631830744443e-03       9.517783069112e+03 
       3.313278603720e-03       1.149357460346e+04 
       4.171170630578e-03       1.373266010323e+04 
       5.251192703764e-03       1.619063614560e+04 
       6.610859936996e-03       1.877460420462e+04 
       8.322579568497e-03       2.132607231665e+04 
       1.047750691046e-02       2.360548444803e+04 
       1.319039970183e-02       2.528218714639e+04 
       1.660572937633e-02       2.595026396671e+04 
       2.090537453514e-02       2.520934343938e+04 
       2.631818545635e-02       2.287034009191e+04 
       3.311571692125e-02       1.928633980725e+04 
       4.113809243311e-02       1.568428813550e+04 
       4.792590854610e-02       1.361062976721e+04 
       5.284436902701e-02       1.259131330886e+04 
       5.689644391095e-02       1.195557415946e+04 
       6.051252627066e-02       1.147547442853e+04 
       6.388413457411e-02       1.105589697952e+04 
       6.711249296401e-02       1.064900308351e+04 
       7.025823437965e-02       1.022928345106e+04 
       7.336115587705e-02       9.784538810158e+03 
       7.644928796912e-02       9.311654853359e+03 
       7.954353299775e-02       8.814548959474e+03 
       8.266024078725e-02       8.302110450831e+03 
       8.581273398637e-02       7.786957597731e+03 
       8.901225918437e-02       7.283184788484e+03 
       9.226860540985e-02       6.805177669226e+03 
       9.559052048996e-02       6.365640699762e+03 
       9.898599946599e-02       5.974394849364e+03 
       1.024624891378e-01       5.637336134513e+03 
       1.060270359164e-01       5.355764139473e+03 
       1.096863943056e-01       5.126239041540e+03 
       1.134471073830e-01       4.940475775903e+03 
       1.173155669539e-01       4.786174965880e+03 
       1.212980586983e-01       4.647925576314e+03 
       1.254007961065e-01       4.509155780343e+03 
       1.296299459934e-01       4.354558555952e+03 
       1.339916477160e-01       4.173212159297e+03 
       1.384920277736e-01       3.961167061275e+03 
       1.431372111762e-01       3.722683931466e+03 
       1.479333307714e-01       3.469549435684e+03 
       1.528865355934e-01       3.218335133584e+03 
       1.580029992204e-01       2.986296459131e+03 
       1.632889290723e-01       2.786965002977e+03 
       1.687505775527e-01       2.626831723084e+03 
       1.743942559171e-01       2.503761790492e+03 
       1.802263517371e-01       2.407336126220e+03 
       1.862533508214e-01       2.322253248546e+03 
       1.924818644494e-01       2.231550497743e+03 
       1.989186627765e-01       2.122190177763e+03 
       2.055707152847e-01       1.992030363126e+03 
       2.124452391818e-01       1.850320677163e+03 
       2.195497567139e-01       1.712188172562e+03 
       2.268921624510e-01       1.590989815330e+03 
       2.344808017550e-01       1.493671895077e+03 
       2.423245618548e-01       1.418308848958e+03 
       2.504329772620e-01       1.354467741867e+03 
       2.588163516754e-01       1.288934437791e+03 
       2.674858990930e-01       1.213939417808e+03 
       2.764539076010e-01       1.130694550130e+03 
       2.857339303080e-01       1.048100491237e+03 
       2.953410092148e-01       9.761835018619e+02 
       3.052919395542e-01       9.178107309929e+02 
       3.156055844677e-01       8.678992448196e+02 
       3.263032530092e-01       8.185267920206e+02 
       3.374091587054e-01       7.651461312457e+02 
       3.489509817175e-01       7.106709362208e+02 
       3.609605657343e-01       6.607856971594e+02 
       3.734747921333e-01       6.180858444750e+02 
       3.865366902904e-01       5.793114643297e+02 
       4.001968667448e-01       5.403934171576e+02 
       4.145153713076e-01       5.011507373837e+02 
       4.295641718077e-01       4.644990374243e+02 
       4.454304922144e-01       4.314091896983e+02 
       4.622214006969e-01       4.001139722937e+02 
       4.800702491654e-01       3.690898106552e+02 
       4.991459272112e-01       3.394770199662e+02 
       5.196665217302e-01       3.119859303217e+02 
       5.419201087032e-01       2.852469463892e+02 
       5.662975451962e-01       2.593310551616e+02 
       5.933463737275e-01       2.345492594614e+02 
       6.238638458458e-01       2.102308502769e+02 
       6.590669257916e-01       1.864339744221e+02 
       7.009246080454e-01       1.627250650118e+02 
       7.528593308799e-01       1.388184217566e+02 
       8.213469537518e-01       1.141878830323e+02 
       9.196980813302e-01       8.835946722157e+01 
       1.075112183810e+00       6.172624384277e+01 
       1.322697471132e+00       3.804268627118e+01 
       1.662328205042e+00       2.209801347972e+01 
       2.092692408506e+00       1.266921171765e+01 
       2.634543445090e+00       7.203342879166e+00 
       3.316693691389e+00       4.065152626952e+00 
       4.175469971226e+00       2.278625120751e+00 
       5.256605252960e+00       1.269360157618e+00 
       6.617673932723e+00       7.031373509153e-01 
       8.331157880872e+00       3.874773006144e-01 
       1.048830636590e+01       2.125111667773e-01 
       1.320399541071e+01       1.160366909509e-01 
       1.662284535976e+01       6.309878460973e-02 
       2.092692243973e+01       3.417945445094e-02 
       2.634543445002e+01       1.844604629433e-02 
       3.316693691389e+01       9.919225542399e-03 
       4.175469971226e+01       5.314633649578e-03 
       5.256605252960e+01       2.836722837632e-03 
       6.617673932723e+01       1.507705523164e-03 
