# Matter power spectrum P(k) at redshift z=0
# for k=1.04775e-05 to 67.6233 h/Mpc,
# number of wavenumbers equal to 246
#    1:k (h/Mpc)              2:P (Mpc/h)^3        
       1.047750691046e-05       5.020964811307e+01 
       1.131335172503e-05       5.407050701929e+01 
       1.221587619537e-05       5.822819068722e+01 
       1.319039970183e-05       6.270562594773e+01 
       1.424266597921e-05       6.752732240880e+01 
       1.537887696968e-05       7.271977206173e+01 
       1.660572937635e-05       7.831147247912e+01 
       1.793045413292e-05       8.433311821988e+01 
       1.936085902198e-05       9.081778249833e+01 
       2.090537469327e-05       9.780108069296e+01 
       2.257310435294e-05       1.053213197893e+02 
       2.437387741694e-05       1.134197377890e+02 
       2.631830744443e-05       1.221408203809e+02 
       2.841785469300e-05       1.315324642472e+02 
       3.068489366414e-05       1.416462094882e+02 
       3.313278603720e-05       1.525374501932e+02 
       3.577595942169e-05       1.642660688414e+02 
       3.862999239199e-05       1.768963506307e+02 
       4.171170630578e-05       1.904975994010e+02 
       4.503926444729e-05       2.051444491974e+02 
       4.863227907969e-05       2.209171465549e+02 
       5.251192703764e-05       2.379022224249e+02 
       5.670107454120e-05       2.561927927890e+02 
       6.122441196689e-05       2.758890444041e+02 
       6.610859936996e-05       2.970989227881e+02 
       7.138242361596e-05       3.199385560802e+02 
       7.707696804727e-05       3.445329783680e+02 
       8.322579568497e-05       3.710167318945e+02 
       8.986514704559e-05       3.995346444203e+02 
       9.703415373875e-05       4.302425407383e+02 
       1.047750691046e-04       4.633080766742e+02 
       1.131335172503e-04       4.989116271564e+02 
       1.221587619537e-04       5.372471950930e+02 
       1.319039970183e-04       5.785234129331e+02 
       1.424266597921e-04       6.229645936045e+02 
       1.537887696968e-04       6.708118490405e+02 
       1.660572937635e-04       7.223242666092e+02 
       1.793045413292e-04       7.777801559556e+02 
       1.936085902198e-04       8.374783614141e+02 
       2.090537469327e-04       9.017396271824e+02 
       2.257310435294e-04       9.709080268041e+02 
       2.437387741694e-04       1.045352449493e+03 
       2.631830744443e-04       1.125468123750e+03 
       2.841785469300e-04       1.211678180495e+03 
       3.068489366414e-04       1.304435250150e+03 
       3.313278603720e-04       1.404223053681e+03 
       3.577595942169e-04       1.511558014616e+03 
       3.862999239199e-04       1.626990837719e+03 
       4.171170630578e-04       1.751108028790e+03 
       4.503926444729e-04       1.884533382872e+03 
       4.863227907969e-04       2.027929378111e+03 
       5.251192703764e-04       2.181998448133e+03 
       5.670107454121e-04       2.347484102755e+03 
       6.122441196689e-04       2.525171871366e+03 
       6.610859936996e-04       2.715889983593e+03 
       7.138242361596e-04       2.920509688383e+03 
       7.707696804727e-04       3.139945100279e+03 
       8.322579568497e-04       3.375152337577e+03 
       8.986514704559e-04       3.627127831140e+03 
       9.703415373875e-04       3.896905453136e+03 
       1.047750691046e-03       4.185552174298e+03 
       1.131335172503e-03       4.494162430373e+03 
       1.221587619537e-03       4.823850706493e+03 
       1.319039970183e-03       5.175742743078e+03 
       1.424266597921e-03       5.551019596913e+03 
       1.537887696968e-03       5.950788340562e+03 
       1.660572937635e-03       6.376123051791e+03 
       1.793045413292e-03       6.828073901457e+03 
       1.936085902198e-03       7.307625381066e+03 
       2.090537469327e-03       7.815671868413e+03 
       2.257310435294e-03       8.352990375818e+03 
       2.437387741694e-03       8.920211064338e+03 
       2.631830744443e-03       9.517783069112e+03 
       2.841785469300e-03       1.014593704435e+04 
       3.068489366414e-03       1.080464502798e+04 
       3.313278603720e-03       1.149357460346e+04 
       3.577595942169e-03       1.221203621722e+04 
       3.862999239199e-03       1.295892539446e+04 
       4.171170630578e-03       1.373266010874e+04 
       4.503926444729e-03       1.453111835625e+04 
       4.863227907969e-03       1.535154985299e+04 
       5.251192703764e-03       1.619063614553e+04 
       5.670107454120e-03       1.704431257767e+04 
       6.122441196689e-03       1.790755939656e+04 
       6.610859936996e-03       1.877460425815e+04 
       7.138242361596e-03       1.963872430367e+04 
       7.707696804727e-03       2.049215714351e+04 
       8.322579568496e-03       2.132607231852e+04 
       8.986514704559e-03       2.213054769573e+04 
       9.703415373875e-03       2.289445472143e+04 
       1.047750691046e-02       2.360548031288e+04 
       1.131335172503e-02       2.425022858033e+04 
       1.221587619537e-02       2.481423924258e+04 
       1.319039970183e-02       2.528218816406e+04 
       1.424266597920e-02       2.563814211719e+04 
       1.537887696964e-02       2.586606239913e+04 
       1.660572937560e-02       2.595027274877e+04 
       1.793045412207e-02       2.587633554125e+04 
       1.936085889642e-02       2.563218509188e+04 
       2.090537351881e-02       2.520932893582e+04 
       2.257309534705e-02       2.460448812454e+04 
       2.437382002240e-02       2.382088599073e+04 
       2.631799943729e-02       2.287047619240e+04 
       2.841644544598e-02       2.177451449380e+04 
       3.067933354524e-02       2.056557789797e+04 
       3.311368469821e-02       1.928731939698e+04 
       3.571840442514e-02       1.799404735290e+04 
       3.847720347390e-02       1.674685587516e+04 
       4.135335537314e-02       1.560459329634e+04 
       4.429361666563e-02       1.461038363084e+04 
       4.724366437916e-02       1.378052924722e+04 
       5.016480834039e-02       1.310508644133e+04 
       5.303989618930e-02       1.255715169976e+04 
       5.586870668205e-02       1.210424673549e+04 
       5.866042679206e-02       1.171465835822e+04 
       6.142798931504e-02       1.136047493066e+04 
       6.418496438662e-02       1.101856327504e+04 
       6.694418832236e-02       1.067068141788e+04 
       6.971731104453e-02       1.030358778020e+04 
       7.251476154108e-02       9.909017752987e+03 
       7.534587669814e-02       9.483768692489e+03 
       7.821907664495e-02       9.029487783441e+03 
       8.114203771084e-02       8.552331612677e+03 
       8.412184533139e-02       8.061947880629e+03 
       8.716512277352e-02       7.570792152931e+03 
       9.027813693913e-02       7.092487587975e+03 
       9.346688429613e-02       6.640527031241e+03 
       9.673716026122e-02       6.226731530243e+03 
       1.000946150608e-01       5.859951565405e+03 
       1.035447986307e-01       5.545234274582e+03 
       1.070931966524e-01       5.283128736541e+03 
       1.107452594180e-01       5.069421210693e+03 
       1.145064248899e-01       4.895252834276e+03 
       1.183821370656e-01       4.747871722543e+03 
       1.223778605591e-01       4.611736673740e+03 
       1.264990921707e-01       4.470618081115e+03 
       1.307513701078e-01       4.310278128158e+03 
       1.351402814485e-01       4.121385412060e+03 
       1.396714683894e-01       3.902052526427e+03 
       1.443506337875e-01       3.658638052876e+03 
       1.491835464900e-01       3.404492689149e+03 
       1.541760469368e-01       3.156669538604e+03 
       1.593340535209e-01       2.931982919744e+03 
       1.646635701934e-01       2.742371606542e+03 
       1.701706958081e-01       2.592260136815e+03 
       1.758616357070e-01       2.477245253104e+03 
       1.817427160581e-01       2.385182805260e+03 
       1.878204014651e-01       2.300359807690e+03 
       1.941013163855e-01       2.205757624277e+03 
       2.005922709060e-01       2.090814608668e+03 
       2.073002914514e-01       1.956465681162e+03 
       2.142326570343e-01       1.814191284287e+03 
       2.213969417044e-01       1.679300252731e+03 
       2.288010639201e-01       1.563846135247e+03 
       2.364533436625e-01       1.472687806331e+03 
       2.443625682390e-01       1.401511328158e+03 
       2.525380678946e-01       1.338411782484e+03 
       2.609898025770e-01       1.270899710346e+03 
       2.697284614969e-01       1.193382861887e+03 
       2.787655775073e-01       1.109337643991e+03 
       2.881136588192e-01       1.028772261311e+03 
       2.977863412019e-01       9.604838641893e+02 
       3.077985646248e-01       9.050240357588e+02 
       3.181667793367e-01       8.561458651035e+02 
       3.289091877084e-01       8.061905534856e+02 
       3.400460298905e-01       7.523905937553e+02 
       3.515999235695e-01       6.989238436435e+02 
       3.635962710278e-01       6.510635008377e+02 
       3.760637505499e-01       6.101231077494e+02 
       3.890349143014e-01       5.721325734938e+02 
       4.025469215929e-01       5.337817913668e+02 
       4.166424455447e-01       4.956324904702e+02 
       4.313708034899e-01       4.604695076391e+02 
       4.467893781976e-01       4.287778843134e+02 
       4.629654198623e-01       3.987732686625e+02 
       4.799783500912e-01       3.692417640599e+02 
       4.979227318246e-01       3.412399563468e+02 
       5.169121269689e-01       3.154833404923e+02 
       5.370841403262e-01       2.908357845341e+02 
       5.586070463286e-01       2.671069850988e+02 
       5.816885093582e-01       2.448096136421e+02 
       6.065870143577e-01       2.235668050230e+02 
       6.336266466978e-01       2.032107023122e+02 
       6.632156057925e-01       1.838791310208e+02 
       6.958678637575e-01       1.653548957584e+02 
       7.322247983784e-01       1.476962407913e+02 
       7.730680193171e-01       1.308337477440e+02 
       8.193049551574e-01       1.148315327885e+02 
       8.718988013754e-01       9.976277204602e+01 
       9.317218028590e-01       8.577839054511e+01 
       9.993660906273e-01       7.305507680086e+01 
       1.075037109879e+00       6.173573118328e+01 
       1.158653485387e+00       5.187897870266e+01 
       1.250099156961e+00       4.344019728476e+01 
       1.349432400897e+00       3.628938225799e+01 
       1.456947456991e+00       3.026803023523e+01 
       1.573135110893e+00       2.521458215019e+01 
       1.698621895119e+00       2.098202783424e+01 
       1.834127512423e+00       1.744235844535e+01 
       1.980444933977e+00       1.448564916253e+01 
       2.138435191130e+00       1.201895323253e+01 
       2.309029198543e+00       9.963105374501e+00 
       2.493232376993e+00       8.251864387432e+00 
       2.692130394536e+00       6.828609047678e+00 
       2.906895533764e+00       5.646277064525e+00 
       3.138793596840e+00       4.664904794376e+00 
       3.389191365541e+00       3.851093812566e+00 
       3.659564656886e+00       3.176942474306e+00 
       3.951507021438e+00       2.618886847694e+00 
       4.266739135513e+00       2.157288697314e+00 
       4.607118942658e+00       1.775932648606e+00 
       4.974652604172e+00       1.460983707928e+00 
       5.371506323193e+00       1.201131583730e+00 
       5.800019112071e+00       9.868783416095e-01 
       6.262716578240e+00       8.103524490908e-01 
       6.762325809881e+00       6.650081438981e-01 
       7.301791449077e+00       5.454241234372e-01 
       7.884293047211e+00       4.470970509572e-01 
       8.513263804891e+00       3.662964047377e-01 
       9.192410806865e+00       2.999412070851e-01 
       9.925736871166e+00       2.454820536481e-01 
       1.071756414128e+01       2.008060882431e-01 
       1.157255956041e+01       1.641837837340e-01 
       1.249576237789e+01       1.341765424858e-01 
       1.349261385000e+01       1.096017845113e-01 
       1.456898931011e+01       8.948884402354e-02 
       1.573123279727e+01       7.303333842951e-02 
       1.698619444729e+01       5.957801564976e-02 
       1.834127086665e+01       4.858057675990e-02 
       1.980444872733e+01       3.959643973246e-02 
       2.138435183937e+01       3.226067858728e-02 
       2.309029197863e+01       2.627322930272e-02 
       2.493232376942e+01       2.138836197893e-02 
       2.692130394533e+01       1.740446726286e-02 
       2.906895533764e+01       1.415700049178e-02 
       3.138793596840e+01       1.151100852518e-02 
       3.389191365541e+01       9.355753969639e-03 
       3.659564656886e+01       7.600914916642e-03 
       3.951507021438e+01       6.172826298317e-03 
       4.266739135513e+01       5.010888267514e-03 
       4.607118942658e+01       4.065944381234e-03 
       4.974652604172e+01       3.297741162638e-03 
       5.371506323193e+01       2.673476492953e-03 
       5.800019112071e+01       2.166320821731e-03 
       6.262716578240e+01       1.754502165775e-03 
       6.762325809881e+01       1.420222748882e-03 
