# Matter power spectrum P(k) at redshift z=0
# for k=1.04775e-05 to 66.1767 h/Mpc,
# number of wavenumbers equal to 130
#    1:k (h/Mpc)              2:P (Mpc/h)^3        
       1.047750691046e-05       5.020964811307e+01 
       1.319039970183e-05       6.270562594778e+01 
       1.660572937635e-05       7.831147247912e+01 
       2.090537469327e-05       9.780108069295e+01 
       2.631830744443e-05       1.221408203809e+02 
       3.313278603720e-05       1.525374501932e+02 
       4.171170630578e-05       1.904975994010e+02 
       5.251192703764e-05       2.379022224249e+02 
       6.610859936996e-05       2.970989227881e+02 
       8.322579568497e-05       3.710167318946e+02 
       1.047750691046e-04       4.633080766742e+02 
       1.319039970183e-04       5.785234129336e+02 
       1.660572937635e-04       7.223242666092e+02 
       2.090537469327e-04       9.017396271824e+02 
       2.631830744443e-04       1.125468123750e+03 
       3.313278603720e-04       1.404223053681e+03 
       4.171170630578e-04       1.751108028790e+03 
       5.251192703764e-04       2.181998448133e+03 
       6.610859936996e-04       2.715889983591e+03 
       8.322579568497e-04       3.375152337134e+03 
       1.047750691046e-03       4.185552174306e+03 
       1.319039970183e-03       5.175742742767e+03 
       1.660572937635e-03       6.376123051781e+03 
       2.090537469327e-03       7.815671852115e+03 
       2.631830744443e-03       9.517783069112e+03 
       3.313278603720e-03       1.149357460343e+04 
       4.171170630578e-03       1.373266013037e+04 
       5.251192703764e-03       1.619063614559e+04 
       6.610859936996e-03       1.877460418544e+04 
       8.322579568497e-03       2.132607231854e+04 
       1.047750691046e-02       2.360549043990e+04 
       1.319039970183e-02       2.528218641684e+04 
       1.660572937633e-02       2.595027600303e+04 
       2.090537453514e-02       2.520935780053e+04 
       2.631818545635e-02       2.287032614198e+04 
       3.311571692125e-02       1.928622928046e+04 
       4.113809243311e-02       1.568425711235e+04 
       4.792590854610e-02       1.361063220651e+04 
       5.284436902701e-02       1.259128061194e+04 
       5.689644391095e-02       1.195556527246e+04 
       6.051252627066e-02       1.147548688354e+04 
       6.388413457411e-02       1.105590098018e+04 
       6.711249296401e-02       1.064900033588e+04 
       7.025823437965e-02       1.022929448281e+04 
       7.336115587705e-02       9.784542843578e+03 
       7.644928796912e-02       9.311669562122e+03 
       7.954353299775e-02       8.814542319763e+03 
       8.266024078725e-02       8.302124914029e+03 
       8.581273398637e-02       7.786959041505e+03 
       8.901225918437e-02       7.283175819181e+03 
       9.226860540985e-02       6.805157405449e+03 
       9.559052048996e-02       6.365596171143e+03 
       9.898599946599e-02       5.974387999011e+03 
       1.024624891378e-01       5.637346114737e+03 
       1.060270359164e-01       5.355795998684e+03 
       1.096863943056e-01       5.126233613150e+03 
       1.134471073830e-01       4.940482061287e+03 
       1.173155669539e-01       4.786174777380e+03 
       1.212980586983e-01       4.647931897406e+03 
       1.254007961065e-01       4.509158620548e+03 
       1.296299459934e-01       4.354552785209e+03 
       1.339916477160e-01       4.173210159470e+03 
       1.384920277736e-01       3.961170022459e+03 
       1.431372111762e-01       3.722685074569e+03 
       1.479333307714e-01       3.469554209318e+03 
       1.528865355934e-01       3.218336974548e+03 
       1.580029992204e-01       2.986298144425e+03 
       1.632889290723e-01       2.786964745492e+03 
       1.687505775527e-01       2.626826260685e+03 
       1.743942559171e-01       2.503754554146e+03 
       1.802263517371e-01       2.407347298160e+03 
       1.862533508214e-01       2.322251859504e+03 
       1.924818644494e-01       2.231550281152e+03 
       1.989186627765e-01       2.122187178004e+03 
       2.055707152847e-01       1.992023685196e+03 
       2.124452391818e-01       1.850322484985e+03 
       2.195497567139e-01       1.712183166207e+03 
       2.268921624510e-01       1.590989354924e+03 
       2.344808017550e-01       1.493669581682e+03 
       2.423245618548e-01       1.418309517467e+03 
       2.504329772620e-01       1.354465271058e+03 
       2.588163516754e-01       1.288933317852e+03 
       2.674858990930e-01       1.213935522575e+03 
       2.764539076010e-01       1.130693190212e+03 
       2.857339303080e-01       1.048097798680e+03 
       2.953410092148e-01       9.761875178065e+02 
       3.052919395542e-01       9.178085348053e+02 
       3.156055844677e-01       8.678977493214e+02 
       3.263032530092e-01       8.185250845541e+02 
       3.374091587054e-01       7.651462391566e+02 
       3.489509817175e-01       7.106700169066e+02 
       3.609605657343e-01       6.607849997059e+02 
       3.734747921333e-01       6.180869836028e+02 
       3.865366902904e-01       5.793112862838e+02 
       4.001968667448e-01       5.403917208168e+02 
       4.145153713076e-01       5.011519217248e+02 
       4.295641718077e-01       4.644990596590e+02 
       4.454304922144e-01       4.314108213698e+02 
       4.622214006969e-01       4.001133759780e+02 
       4.800702491654e-01       3.690901480238e+02 
       4.991459272112e-01       3.394771802864e+02 
       5.196665217302e-01       3.119865222135e+02 
       5.419201087032e-01       2.852478303350e+02 
       5.662975451962e-01       2.593308268544e+02 
       5.933463737275e-01       2.345482048477e+02 
       6.238638458458e-01       2.102306128498e+02 
       6.590669257916e-01       1.864329770880e+02 
       7.009246080454e-01       1.627251989478e+02 
       7.528593308799e-01       1.388184796547e+02 
       8.213469537518e-01       1.141883533390e+02 
       9.196980813302e-01       8.835915841569e+01 
       1.075112183810e+00       6.172616143779e+01 
       1.322697471132e+00       3.804280161306e+01 
       1.662328205042e+00       2.209800842593e+01 
       2.092692408506e+00       1.266923260492e+01 
       2.634543445090e+00       7.203362521849e+00 
       3.316693691389e+00       4.065161603700e+00 
       4.175469971226e+00       2.278619906269e+00 
       5.256605252960e+00       1.269356289850e+00 
       6.617673932723e+00       7.031395436997e-01 
       8.331157880872e+00       3.874781489111e-01 
       1.048830636590e+01       2.125122969589e-01 
       1.320399541071e+01       1.160378770377e-01 
       1.662284535976e+01       6.309892714547e-02 
       2.092692243973e+01       3.417978375721e-02 
       2.634543445002e+01       1.844619329729e-02 
       3.316693691389e+01       9.919171863741e-03 
       4.175469971226e+01       5.314631816968e-03 
       5.256605252960e+01       2.836717377364e-03 
       6.617673932723e+01       1.507707704681e-03 
