# Matter power spectrum P(k) at redshift z=0
# for k=1.04775e-05 to 66.1767 h/Mpc,
# number of wavenumbers equal to 130
#    1:k (h/Mpc)              2:P (Mpc/h)^3        
       1.047750691046e-05       5.020964811306e+01 
       1.319039970183e-05       6.270562594781e+01 
       1.660572937635e-05       7.831147247912e+01 
       2.090537469327e-05       9.780108069293e+01 
       2.631830744443e-05       1.221408203809e+02 
       3.313278603720e-05       1.525374501932e+02 
       4.171170630578e-05       1.904975994010e+02 
       5.251192703764e-05       2.379022224247e+02 
       6.610859936996e-05       2.970989227882e+02 
       8.322579568497e-05       3.710167318944e+02 
       1.047750691046e-04       4.633080766739e+02 
       1.319039970183e-04       5.785234129334e+02 
       1.660572937635e-04       7.223242666080e+02 
       2.090537469327e-04       9.017396271800e+02 
       2.631830744443e-04       1.125468123745e+03 
       3.313278603720e-04       1.404223053672e+03 
       4.171170630578e-04       1.751108028772e+03 
       5.251192703764e-04       2.181998448096e+03 
       6.610859936996e-04       2.715889983519e+03 
       8.322579568497e-04       3.375152336990e+03 
       1.047750691046e-03       4.185552174006e+03 
       1.319039970183e-03       5.175742743405e+03 
       1.660572937635e-03       6.376123050568e+03 
       2.090537469327e-03       7.815671860752e+03 
       2.631830744443e-03       9.517783063789e+03 
       3.313278603720e-03       1.149357459264e+04 
       4.171170630578e-03       1.373266009293e+04 
       5.251192703764e-03       1.619062997263e+04 
       6.610859936996e-03       1.877460553355e+04 
       8.322579568497e-03       2.132610315803e+04 
       1.047750691046e-02       2.360546200390e+04 
       1.319039970183e-02       2.528217241239e+04 
       1.660572937633e-02       2.594961179920e+04 
       2.090537453514e-02       2.520926124538e+04 
       2.631818545635e-02       2.287009281653e+04 
       3.311571692125e-02       1.928611840006e+04 
       4.113809243311e-02       1.568408194480e+04 
       4.792590854610e-02       1.361053842142e+04 
       5.284436902701e-02       1.259123909175e+04 
       5.689644391095e-02       1.195549017773e+04 
       6.051252627066e-02       1.147541119052e+04 
       6.388413457411e-02       1.105558545719e+04 
       6.711249296401e-02       1.064882863921e+04 
       7.025823437965e-02       1.022927988387e+04 
       7.336115587705e-02       9.784532436685e+03 
       7.644928796912e-02       9.311688913447e+03 
       7.954353299775e-02       8.814494295984e+03 
       8.266024078725e-02       8.301866677190e+03 
       8.581273398637e-02       7.786917941467e+03 
       8.901225918437e-02       7.283184629724e+03 
       9.226860540985e-02       6.805164747035e+03 
       9.559052048996e-02       6.365598581181e+03 
       9.898599946599e-02       5.974370165118e+03 
       1.024624891378e-01       5.637308205219e+03 
       1.060270359164e-01       5.355758430591e+03 
       1.096863943056e-01       5.126212542119e+03 
       1.134471073830e-01       4.940455314676e+03 
       1.173155669539e-01       4.786128573789e+03 
       1.212980586983e-01       4.647910932405e+03 
       1.254007961065e-01       4.509018774030e+03 
       1.296299459934e-01       4.354522719047e+03 
       1.339916477160e-01       4.173114721399e+03 
       1.384920277736e-01       3.961141295203e+03 
       1.431372111762e-01       3.722557877747e+03 
       1.479333307714e-01       3.469519913606e+03 
       1.528865355934e-01       3.218285357577e+03 
       1.580029992204e-01       2.986211347156e+03 
       1.632889290723e-01       2.786911863442e+03 
       1.687505775527e-01       2.626779675968e+03 
       1.743942559171e-01       2.503715789673e+03 
       1.802263517371e-01       2.407265332680e+03 
       1.862533508214e-01       2.322219279009e+03 
       1.924818644494e-01       2.231531362641e+03 
       1.989186627765e-01       2.122166716218e+03 
       2.055707152847e-01       1.992000670970e+03 
       2.124452391818e-01       1.850255040442e+03 
       2.195497567139e-01       1.712111550981e+03 
       2.268921624510e-01       1.590924408639e+03 
       2.344808017550e-01       1.493611907911e+03 
       2.423245618548e-01       1.418252231216e+03 
       2.504329772620e-01       1.354394607355e+03 
       2.588163516754e-01       1.288875783417e+03 
       2.674858990930e-01       1.213857324959e+03 
       2.764539076010e-01       1.130622056900e+03 
       2.857339303080e-01       1.048030846718e+03 
       2.953410092148e-01       9.761120486749e+02 
       3.052919395542e-01       9.177413024157e+02 
       3.156055844677e-01       8.678251788650e+02 
       3.263032530092e-01       8.184586863605e+02 
       3.374091587054e-01       7.650804866104e+02 
       3.489509817175e-01       7.105912174174e+02 
       3.609605657343e-01       6.607070822129e+02 
       3.734747921333e-01       6.180085315144e+02 
       3.865366902904e-01       5.792257238296e+02 
       4.001968667448e-01       5.403070058443e+02 
       4.145153713076e-01       5.010661077566e+02 
       4.295641718077e-01       4.644160526901e+02 
       4.454304922144e-01       4.313193195115e+02 
       4.622214006969e-01       4.000250812644e+02 
       4.800702491654e-01       3.689970008597e+02 
       4.991459272112e-01       3.393834251649e+02 
       5.196665217302e-01       3.118893565814e+02 
       5.419201087032e-01       2.851484791236e+02 
       5.662975451962e-01       2.592300706868e+02 
       5.933463737275e-01       2.344444327065e+02 
       6.238638458458e-01       2.101260120430e+02 
       6.590669257916e-01       1.863240025181e+02 
       7.009246080454e-01       1.626112129270e+02 
       7.528593308799e-01       1.386988609127e+02 
       8.213469537518e-01       1.140620410779e+02 
       9.196980813302e-01       8.822190607132e+01 
       1.075112183810e+00       6.157205095494e+01 
       1.322697471132e+00       3.786198512813e+01 
       1.662328205042e+00       2.188088722479e+01 
       2.092692408506e+00       1.240661890986e+01 
       2.634543445090e+00       6.885591141700e+00 
       3.316693691389e+00       3.684812395494e+00 
       4.175469971226e+00       1.835782894074e+00 
       5.256605252960e+00       7.832497746477e-01 
       6.617673932723e+00       2.274899855306e-01 
       8.331157880872e+00       1.442597129712e-02 
       1.048830636590e+01       2.463955676057e-02 
       1.320399541071e+01       7.901435762612e-02 
       1.662284535976e+01       3.667783769499e-02 
       2.092692243973e+01       2.855998278865e-04 
       2.634543445002e+01       6.709697891541e-03 
       3.316693691389e+01       1.098167497826e-04 
       4.175469971226e+01       9.986138474029e-06 
       5.256605252960e+01       6.732234692600e-06 
       6.617673932723e+01       3.656155650764e-06 
