# Matter power spectrum P(k) at redshift z=0
# for k=1.04775e-05 to 67.6233 h/Mpc,
# number of wavenumbers equal to 246
#    1:k (h/Mpc)              2:P (Mpc/h)^3        
       1.047750691046e-05       5.020964811307e+01 
       1.131335172503e-05       5.407050701926e+01 
       1.221587619537e-05       5.822819068619e+01 
       1.319039970183e-05       6.270562594780e+01 
       1.424266597921e-05       6.752732240880e+01 
       1.537887696968e-05       7.271977206173e+01 
       1.660572937635e-05       7.831147247912e+01 
       1.793045413292e-05       8.433311821988e+01 
       1.936085902198e-05       9.081778249833e+01 
       2.090537469327e-05       9.780108069298e+01 
       2.257310435294e-05       1.053213197893e+02 
       2.437387741694e-05       1.134197377890e+02 
       2.631830744443e-05       1.221408203810e+02 
       2.841785469300e-05       1.315324642450e+02 
       3.068489366414e-05       1.416462094880e+02 
       3.313278603720e-05       1.525374501932e+02 
       3.577595942169e-05       1.642660688414e+02 
       3.862999239199e-05       1.768963506307e+02 
       4.171170630578e-05       1.904975994010e+02 
       4.503926444729e-05       2.051444491973e+02 
       4.863227907969e-05       2.209171465549e+02 
       5.251192703764e-05       2.379022224249e+02 
       5.670107454120e-05       2.561927927719e+02 
       6.122441196689e-05       2.758890444040e+02 
       6.610859936996e-05       2.970989227882e+02 
       7.138242361596e-05       3.199385560802e+02 
       7.707696804727e-05       3.445329783680e+02 
       8.322579568497e-05       3.710167318945e+02 
       8.986514704559e-05       3.995346444203e+02 
       9.703415373875e-05       4.302425407383e+02 
       1.047750691046e-04       4.633080766742e+02 
       1.131335172503e-04       4.989116271564e+02 
       1.221587619537e-04       5.372471950929e+02 
       1.319039970183e-04       5.785234129341e+02 
       1.424266597921e-04       6.229645936045e+02 
       1.537887696968e-04       6.708118490405e+02 
       1.660572937635e-04       7.223242666092e+02 
       1.793045413292e-04       7.777801561606e+02 
       1.936085902198e-04       8.374783614140e+02 
       2.090537469327e-04       9.017396271823e+02 
       2.257310435294e-04       9.709080268041e+02 
       2.437387741694e-04       1.045352449493e+03 
       2.631830744443e-04       1.125468123750e+03 
       2.841785469300e-04       1.211678180494e+03 
       3.068489366414e-04       1.304435250150e+03 
       3.313278603720e-04       1.404223053681e+03 
       3.577595942169e-04       1.511558014616e+03 
       3.862999239199e-04       1.626990837848e+03 
       4.171170630578e-04       1.751108028790e+03 
       4.503926444729e-04       1.884533382872e+03 
       4.863227907969e-04       2.027929378111e+03 
       5.251192703764e-04       2.181998448132e+03 
       5.670107454121e-04       2.347484102754e+03 
       6.122441196689e-04       2.525171871365e+03 
       6.610859936996e-04       2.715889983592e+03 
       7.138242361596e-04       2.920509688383e+03 
       7.707696804727e-04       3.139945100277e+03 
       8.322579568497e-04       3.375152337583e+03 
       8.986514704559e-04       3.627127831137e+03 
       9.703415373875e-04       3.896905453132e+03 
       1.047750691046e-03       4.185552174297e+03 
       1.131335172503e-03       4.494162430367e+03 
       1.221587619537e-03       4.823850706480e+03 
       1.319039970183e-03       5.175742737545e+03 
       1.424266597921e-03       5.551019596892e+03 
       1.537887696968e-03       5.950788340541e+03 
       1.660572937635e-03       6.376123051765e+03 
       1.793045413292e-03       6.828073901436e+03 
       1.936085902198e-03       7.307625381031e+03 
       2.090537469327e-03       7.815671868403e+03 
       2.257310435294e-03       8.352990375751e+03 
       2.437387741694e-03       8.920211064276e+03 
       2.631830744443e-03       9.517783069020e+03 
       2.841785469300e-03       1.014593704424e+04 
       3.068489366414e-03       1.080464502787e+04 
       3.313278603720e-03       1.149357460321e+04 
       3.577595942169e-03       1.221203621698e+04 
       3.862999239199e-03       1.295892539416e+04 
       4.171170630578e-03       1.373266012906e+04 
       4.503926444729e-03       1.453111835578e+04 
       4.863227907969e-03       1.535154983610e+04 
       5.251192703764e-03       1.619063604550e+04 
       5.670107454120e-03       1.704431257219e+04 
       6.122441196689e-03       1.790755945451e+04 
       6.610859936996e-03       1.877460424815e+04 
       7.138242361596e-03       1.963872449246e+04 
       7.707696804727e-03       2.049215713731e+04 
       8.322579568496e-03       2.132611395100e+04 
       8.986514704559e-03       2.213055030252e+04 
       9.703415373875e-03       2.289445542777e+04 
       1.047750691046e-02       2.360548685519e+04 
       1.131335172503e-02       2.425022949929e+04 
       1.221587619537e-02       2.481423940279e+04 
       1.319039970183e-02       2.528218994790e+04 
       1.424266597920e-02       2.563815135249e+04 
       1.537887696964e-02       2.586610427457e+04 
       1.660572937560e-02       2.595026112753e+04 
       1.793045412207e-02       2.587635682199e+04 
       1.936085889642e-02       2.563219933352e+04 
       2.090537351881e-02       2.520934666699e+04 
       2.257309534705e-02       2.460446650342e+04 
       2.437382002240e-02       2.382094526246e+04 
       2.631799943729e-02       2.287037666581e+04 
       2.841644544598e-02       2.177449364920e+04 
       3.067933354524e-02       2.056556602047e+04 
       3.311368469821e-02       1.928726436193e+04 
       3.571840442514e-02       1.799403735736e+04 
       3.847720347390e-02       1.674676098407e+04 
       4.135335537314e-02       1.560454999013e+04 
       4.429361666563e-02       1.461036356069e+04 
       4.724366437916e-02       1.378053254654e+04 
       5.016480834039e-02       1.310505945936e+04 
       5.303989618930e-02       1.255720286662e+04 
       5.586870668205e-02       1.210424912755e+04 
       5.866042679206e-02       1.171469481458e+04 
       6.142798931504e-02       1.136049459570e+04 
       6.418496438662e-02       1.101860083771e+04 
       6.694418832236e-02       1.067069268263e+04 
       6.971731104453e-02       1.030353750919e+04 
       7.251476154108e-02       9.909062942391e+03 
       7.534587669814e-02       9.483700313281e+03 
       7.821907664495e-02       9.029410757322e+03 
       8.114203771084e-02       8.552201410384e+03 
       8.412184533139e-02       8.061967766484e+03 
       8.716512277352e-02       7.570791390225e+03 
       9.027813693913e-02       7.092494647763e+03 
       9.346688429613e-02       6.640527495304e+03 
       9.673716026122e-02       6.226711334296e+03 
       1.000946150608e-01       5.859951905976e+03 
       1.035447986307e-01       5.545257638865e+03 
       1.070931966524e-01       5.283143123282e+03 
       1.107452594180e-01       5.069437486565e+03 
       1.145064248899e-01       4.895251115271e+03 
       1.183821370656e-01       4.747840321447e+03 
       1.223778605591e-01       4.611735187059e+03 
       1.264990921707e-01       4.470619327117e+03 
       1.307513701078e-01       4.310176060372e+03 
       1.351402814485e-01       4.121389856728e+03 
       1.396714683894e-01       3.902054221991e+03 
       1.443506337875e-01       3.658650098311e+03 
       1.491835464900e-01       3.404476644602e+03 
       1.541760469368e-01       3.156647798352e+03 
       1.593340535209e-01       2.931946313692e+03 
       1.646635701934e-01       2.742357428409e+03 
       1.701706958081e-01       2.592242855462e+03 
       1.758616357070e-01       2.477215184146e+03 
       1.817427160581e-01       2.385164717209e+03 
       1.878204014651e-01       2.300349104172e+03 
       1.941013163855e-01       2.205776710360e+03 
       2.005922709060e-01       2.090839422047e+03 
       2.073002914514e-01       1.956461522538e+03 
       2.142326570343e-01       1.814176209992e+03 
       2.213969417044e-01       1.679276443961e+03 
       2.288010639201e-01       1.563849168264e+03 
       2.364533436625e-01       1.472670409239e+03 
       2.443625682390e-01       1.401512840031e+03 
       2.525380678946e-01       1.338421013456e+03 
       2.609898025770e-01       1.270897010069e+03 
       2.697284614969e-01       1.193356709029e+03 
       2.787655775073e-01       1.109332528521e+03 
       2.881136588192e-01       1.028762543104e+03 
       2.977863412019e-01       9.604742245441e+02 
       3.077985646248e-01       9.050160903443e+02 
       3.181667793367e-01       8.561362986131e+02 
       3.289091877084e-01       8.061810720716e+02 
       3.400460298905e-01       7.523817819391e+02 
       3.515999235695e-01       6.989134876455e+02 
       3.635962710278e-01       6.510501690573e+02 
       3.760637505499e-01       6.101199370409e+02 
       3.890349143014e-01       5.721287864076e+02 
       4.025469215929e-01       5.337757328259e+02 
       4.166424455447e-01       4.956224453140e+02 
       4.313708034899e-01       4.604639906524e+02 
       4.467893781976e-01       4.287704227836e+02 
       4.629654198623e-01       3.987686921227e+02 
       4.799783500912e-01       3.692349522024e+02 
       4.979227318246e-01       3.412362115041e+02 
       5.169121269689e-01       3.154779270248e+02 
       5.370841403262e-01       2.908303013418e+02 
       5.586070463286e-01       2.671008694370e+02 
       5.816885093582e-01       2.448052210153e+02 
       6.065870143577e-01       2.235657018303e+02 
       6.336266466978e-01       2.032076847946e+02 
       6.632156057925e-01       1.838765187865e+02 
       6.958678637575e-01       1.653527515869e+02 
       7.322247983784e-01       1.476935617333e+02 
       7.730680193171e-01       1.308322848125e+02 
       8.193049551574e-01       1.148294451729e+02 
       8.718988013754e-01       9.976127609934e+01 
       9.317218028590e-01       8.577609046148e+01 
       9.993660906273e-01       7.305310159617e+01 
       1.075037109879e+00       6.173438484285e+01 
       1.158653485387e+00       5.187743244810e+01 
       1.250099156961e+00       4.343872126335e+01 
       1.349432400897e+00       3.628759605491e+01 
       1.456947456991e+00       3.026665539005e+01 
       1.573135110893e+00       2.521316532688e+01 
       1.698621895119e+00       2.098071594635e+01 
       1.834127512423e+00       1.744100229838e+01 
       1.980444933977e+00       1.448435799312e+01 
       2.138435191130e+00       1.201759536091e+01 
       2.309029198543e+00       9.961955797338e+00 
       2.493232376993e+00       8.250556188978e+00 
       2.692130394536e+00       6.827298830897e+00 
       2.906895533764e+00       5.645005747628e+00 
       3.138793596840e+00       4.663633981259e+00 
       3.389191365541e+00       3.849910967682e+00 
       3.659564656886e+00       3.175752909252e+00 
       3.951507021438e+00       2.617697622356e+00 
       4.266739135513e+00       2.156192859731e+00 
       4.607118942658e+00       1.774787099369e+00 
       4.974652604172e+00       1.459860353633e+00 
       5.371506323193e+00       1.200030495361e+00 
       5.800019112071e+00       9.857967553659e-01 
       6.262716578240e+00       8.092927611808e-01 
       6.762325809881e+00       6.639681878189e-01 
       7.301791449077e+00       5.444063344131e-01 
       7.884293047211e+00       4.460987774735e-01 
       8.513263804891e+00       3.653216590887e-01 
       9.192410806865e+00       2.989863224017e-01 
       9.925736871166e+00       2.445475802916e-01 
       1.071756414128e+01       1.998969475010e-01 
       1.157255956041e+01       1.632968342449e-01 
       1.249576237789e+01       1.333113788281e-01 
       1.349261385000e+01       1.087603281227e-01 
       1.456898931011e+01       8.866879453181e-02 
       1.573123279727e+01       7.223572477158e-02 
       1.698619444729e+01       5.880363026513e-02 
       1.834127086665e+01       4.782845889275e-02 
       1.980444872733e+01       3.886733938557e-02 
       2.138435183937e+01       3.155362463862e-02 
       2.309029197863e+01       2.558843478321e-02 
       2.493232376942e+01       2.072577028581e-02 
       2.692130394533e+01       1.676422740952e-02 
       2.906895533764e+01       1.353893714427e-02 
       3.138793596840e+01       1.091478395460e-02 
       3.389191365541e+01       8.781526831861e-03 
       3.659564656886e+01       7.048536266987e-03 
       3.951507021438e+01       5.642217067755e-03 
       4.266739135513e+01       4.502173292839e-03 
       4.607118942658e+01       3.579060683192e-03 
       4.974652604172e+01       2.832826666335e-03 
       5.371506323193e+01       2.230606877706e-03 
       5.800019112071e+01       1.745654952061e-03 
       6.262716578240e+01       1.356159672950e-03 
       6.762325809881e+01       1.044455654475e-03 
