# Matter power spectrum P(k) at redshift z=0
# for k=1.04775e-05 to 67.6233 h/Mpc,
# number of wavenumbers equal to 246
#    1:k (h/Mpc)              2:P (Mpc/h)^3        
       1.047750691046e-05       5.020964811308e+01 
       1.131335172503e-05       5.407050701927e+01 
       1.221587619537e-05       5.822819068460e+01 
       1.319039970183e-05       6.270562594783e+01 
       1.424266597921e-05       6.752732240880e+01 
       1.537887696968e-05       7.271977206173e+01 
       1.660572937635e-05       7.831147247912e+01 
       1.793045413292e-05       8.433311821988e+01 
       1.936085902198e-05       9.081778249833e+01 
       2.090537469327e-05       9.780108069295e+01 
       2.257310435294e-05       1.053213197893e+02 
       2.437387741694e-05       1.134197377890e+02 
       2.631830744443e-05       1.221408203809e+02 
       2.841785469300e-05       1.315324642471e+02 
       3.068489366414e-05       1.416462094881e+02 
       3.313278603720e-05       1.525374501932e+02 
       3.577595942169e-05       1.642660688414e+02 
       3.862999239199e-05       1.768963506307e+02 
       4.171170630578e-05       1.904975994010e+02 
       4.503926444729e-05       2.051444491973e+02 
       4.863227907969e-05       2.209171465549e+02 
       5.251192703764e-05       2.379022224249e+02 
       5.670107454120e-05       2.561927927507e+02 
       6.122441196689e-05       2.758890444040e+02 
       6.610859936996e-05       2.970989227880e+02 
       7.138242361596e-05       3.199385560802e+02 
       7.707696804727e-05       3.445329783680e+02 
       8.322579568497e-05       3.710167318945e+02 
       8.986514704559e-05       3.995346444203e+02 
       9.703415373875e-05       4.302425407382e+02 
       1.047750691046e-04       4.633080766742e+02 
       1.131335172503e-04       4.989116271564e+02 
       1.221587619537e-04       5.372471950929e+02 
       1.319039970183e-04       5.785234129337e+02 
       1.424266597921e-04       6.229645936045e+02 
       1.537887696968e-04       6.708118490404e+02 
       1.660572937635e-04       7.223242666091e+02 
       1.793045413292e-04       7.777801559618e+02 
       1.936085902198e-04       8.374783614138e+02 
       2.090537469327e-04       9.017396271821e+02 
       2.257310435294e-04       9.709080268038e+02 
       2.437387741694e-04       1.045352449493e+03 
       2.631830744443e-04       1.125468123749e+03 
       2.841785469300e-04       1.211678180494e+03 
       3.068489366414e-04       1.304435250149e+03 
       3.313278603720e-04       1.404223053680e+03 
       3.577595942169e-04       1.511558014615e+03 
       3.862999239199e-04       1.626990837760e+03 
       4.171170630578e-04       1.751108028788e+03 
       4.503926444729e-04       1.884533382869e+03 
       4.863227907969e-04       2.027929378109e+03 
       5.251192703764e-04       2.181998448129e+03 
       5.670107454121e-04       2.347484102750e+03 
       6.122441196689e-04       2.525171871359e+03 
       6.610859936996e-04       2.715889983584e+03 
       7.138242361596e-04       2.920509688364e+03 
       7.707696804727e-04       3.139945100266e+03 
       8.322579568497e-04       3.375152337567e+03 
       8.986514704559e-04       3.627127831120e+03 
       9.703415373875e-04       3.896905453111e+03 
       1.047750691046e-03       4.185552174286e+03 
       1.131335172503e-03       4.494162430333e+03 
       1.221587619537e-03       4.823850706448e+03 
       1.319039970183e-03       5.175742740682e+03 
       1.424266597921e-03       5.551019596851e+03 
       1.537887696968e-03       5.950788340451e+03 
       1.660572937635e-03       6.376123051591e+03 
       1.793045413292e-03       6.828073901277e+03 
       1.936085902198e-03       7.307625380842e+03 
       2.090537469327e-03       7.815671868128e+03 
       2.257310435294e-03       8.352990375453e+03 
       2.437387741694e-03       8.920211063891e+03 
       2.631830744443e-03       9.517783068517e+03 
       2.841785469300e-03       1.014593704360e+04 
       3.068489366414e-03       1.080464502690e+04 
       3.313278603720e-03       1.149357460223e+04 
       3.577595942169e-03       1.221203621569e+04 
       3.862999239199e-03       1.295892539253e+04 
       4.171170630578e-03       1.373266011451e+04 
       4.503926444729e-03       1.453111835321e+04 
       4.863227907969e-03       1.535154974419e+04 
       5.251192703764e-03       1.619063549791e+04 
       5.670107454120e-03       1.704431253781e+04 
       6.122441196689e-03       1.790755976432e+04 
       6.610859936996e-03       1.877460436222e+04 
       7.138242361596e-03       1.963872542258e+04 
       7.707696804727e-03       2.049215701855e+04 
       8.322579568496e-03       2.132610781261e+04 
       8.986514704559e-03       2.213054845610e+04 
       9.703415373875e-03       2.289445719610e+04 
       1.047750691046e-02       2.360548449580e+04 
       1.131335172503e-02       2.425021073753e+04 
       1.221587619537e-02       2.481423512137e+04 
       1.319039970183e-02       2.528219648366e+04 
       1.424266597920e-02       2.563815171248e+04 
       1.537887696964e-02       2.586610569976e+04 
       1.660572937560e-02       2.595035794090e+04 
       1.793045412207e-02       2.587645917115e+04 
       1.936085889642e-02       2.563217494211e+04 
       2.090537351881e-02       2.520933691336e+04 
       2.257309534705e-02       2.460443520003e+04 
       2.437382002240e-02       2.382084382170e+04 
       2.631799943729e-02       2.287036663062e+04 
       2.841644544598e-02       2.177443162417e+04 
       3.067933354524e-02       2.056547266895e+04 
       3.311368469821e-02       1.928727174019e+04 
       3.571840442514e-02       1.799388889867e+04 
       3.847720347390e-02       1.674675797994e+04 
       4.135335537314e-02       1.560455990324e+04 
       4.429361666563e-02       1.461028811248e+04 
       4.724366437916e-02       1.378048784752e+04 
       5.016480834039e-02       1.310497022108e+04 
       5.303989618930e-02       1.255714620017e+04 
       5.586870668205e-02       1.210423909005e+04 
       5.866042679206e-02       1.171467300022e+04 
       6.142798931504e-02       1.136013812885e+04 
       6.418496438662e-02       1.101860766029e+04 
       6.694418832236e-02       1.067066232432e+04 
       6.971731104453e-02       1.030363752231e+04 
       7.251476154108e-02       9.909073391684e+03 
       7.534587669814e-02       9.483617857183e+03 
       7.821907664495e-02       9.029302936238e+03 
       8.114203771084e-02       8.552135394877e+03 
       8.412184533139e-02       8.061945598735e+03 
       8.716512277352e-02       7.570763779068e+03 
       9.027813693913e-02       7.092477783885e+03 
       9.346688429613e-02       6.640530756605e+03 
       9.673716026122e-02       6.226708998810e+03 
       1.000946150608e-01       5.859921248944e+03 
       1.035447986307e-01       5.545259694844e+03 
       1.070931966524e-01       5.283156723460e+03 
       1.107452594180e-01       5.069449027121e+03 
       1.145064248899e-01       4.895266334591e+03 
       1.183821370656e-01       4.747839389008e+03 
       1.223778605591e-01       4.611726112438e+03 
       1.264990921707e-01       4.470625153278e+03 
       1.307513701078e-01       4.310282823557e+03 
       1.351402814485e-01       4.121396954543e+03 
       1.396714683894e-01       3.902055076019e+03 
       1.443506337875e-01       3.658653985835e+03 
       1.491835464900e-01       3.404465480093e+03 
       1.541760469368e-01       3.156635898523e+03 
       1.593340535209e-01       2.931929094559e+03 
       1.646635701934e-01       2.742355917437e+03 
       1.701706958081e-01       2.592226611419e+03 
       1.758616357070e-01       2.477212694278e+03 
       1.817427160581e-01       2.385157255971e+03 
       1.878204014651e-01       2.300340178617e+03 
       1.941013163855e-01       2.205770861867e+03 
       2.005922709060e-01       2.090838860919e+03 
       2.073002914514e-01       1.956459605806e+03 
       2.142326570343e-01       1.814174971895e+03 
       2.213969417044e-01       1.679272180617e+03 
       2.288010639201e-01       1.563843381854e+03 
       2.364533436625e-01       1.472667227326e+03 
       2.443625682390e-01       1.401514655475e+03 
       2.525380678946e-01       1.338419912012e+03 
       2.609898025770e-01       1.270893256995e+03 
       2.697284614969e-01       1.193352862026e+03 
       2.787655775073e-01       1.109323733102e+03 
       2.881136588192e-01       1.028757686593e+03 
       2.977863412019e-01       9.604692276126e+02 
       3.077985646248e-01       9.050133263363e+02 
       3.181667793367e-01       8.561304096982e+02 
       3.289091877084e-01       8.061772053817e+02 
       3.400460298905e-01       7.523770112053e+02 
       3.515999235695e-01       6.989091402068e+02 
       3.635962710278e-01       6.510541667409e+02 
       3.760637505499e-01       6.101109704594e+02 
       3.890349143014e-01       5.721213213345e+02 
       4.025469215929e-01       5.337698141103e+02 
       4.166424455447e-01       4.956169450455e+02 
       4.313708034899e-01       4.604598214523e+02 
       4.467893781976e-01       4.287636889291e+02 
       4.629654198623e-01       3.987626213147e+02 
       4.799783500912e-01       3.692294132266e+02 
       4.979227318246e-01       3.412297269402e+02 
       5.169121269689e-01       3.154713554668e+02 
       5.370841403262e-01       2.908240380205e+02 
       5.586070463286e-01       2.670945494880e+02 
       5.816885093582e-01       2.447988037183e+02 
       6.065870143577e-01       2.235592877460e+02 
       6.336266466978e-01       2.032015077862e+02 
       6.632156057925e-01       1.838704279040e+02 
       6.958678637575e-01       1.653462785496e+02 
       7.322247983784e-01       1.476870047494e+02 
       7.730680193171e-01       1.308260908438e+02 
       8.193049551574e-01       1.148235073918e+02 
       8.718988013754e-01       9.975485227982e+01 
       9.317218028590e-01       8.576946993293e+01 
       9.993660906273e-01       7.304631814111e+01 
       1.075037109879e+00       6.172757742079e+01 
       1.158653485387e+00       5.187068557367e+01 
       1.250099156961e+00       4.343187014952e+01 
       1.349432400897e+00       3.628105266547e+01 
       1.456947456991e+00       3.025970141000e+01 
       1.573135110893e+00       2.520626210996e+01 
       1.698621895119e+00       2.097371970528e+01 
       1.834127512423e+00       1.743409436808e+01 
       1.980444933977e+00       1.447746543704e+01 
       2.138435191130e+00       1.201077349683e+01 
       2.309029198543e+00       9.955082855523e+00 
       2.493232376993e+00       8.243740654040e+00 
       2.692130394536e+00       6.820553553479e+00 
       2.906895533764e+00       5.638286831031e+00 
       3.138793596840e+00       4.657036332597e+00 
       3.389191365541e+00       3.843358322233e+00 
       3.659564656886e+00       3.169284984905e+00 
       3.951507021438e+00       2.611324141114e+00 
       4.266739135513e+00       2.149897084884e+00 
       4.607118942658e+00       1.768581181325e+00 
       4.974652604172e+00       1.453766399906e+00 
       5.371506323193e+00       1.194012602148e+00 
       5.800019112071e+00       9.798794130087e-01 
       6.262716578240e+00       8.034874297128e-01 
       6.762325809881e+00       6.582606719440e-01 
       7.301791449077e+00       5.388120981087e-01 
       7.884293047211e+00       4.406193027830e-01 
       8.513263804891e+00       3.599541038475e-01 
       9.192410806865e+00       2.937356495968e-01 
       9.925736871166e+00       2.394160616740e-01 
       1.071756414128e+01       1.948846807806e-01 
       1.157255956041e+01       1.584031914269e-01 
       1.249576237789e+01       1.285412638262e-01 
       1.349261385000e+01       1.041122312691e-01 
       1.456898931011e+01       8.414588098578e-02 
       1.573123279727e+01       6.783996182151e-02 
       1.698619444729e+01       5.453512600833e-02 
       1.834127086665e+01       4.369148657031e-02 
       1.980444872733e+01       3.486310534865e-02 
       2.138435183937e+01       2.768614224275e-02 
       2.309029197863e+01       2.186141796435e-02 
       2.493232376942e+01       1.714401055075e-02 
       2.692130394533e+01       1.333345396854e-02 
       2.906895533764e+01       1.026584433820e-02 
       3.138793596840e+01       7.807322689434e-03 
       3.389191365541e+01       5.848309275361e-03 
       3.659564656886e+01       4.299597686468e-03 
       3.951507021438e+01       3.088123069931e-03 
       4.266739135513e+01       2.153801940585e-03 
       4.607118942658e+01       1.447009646756e-03 
       4.974652604172e+01       9.263322655908e-04 
       5.371506323193e+01       5.563936602912e-04 
       5.800019112071e+01       3.064830843635e-04 
       6.262716578240e+01       1.492827396224e-04 
       6.762325809881e+01       6.024933013212e-05 
