# Matter power spectrum P(k) at redshift z=0
# for k=1.04775e-05 to 67.6233 h/Mpc,
# number of wavenumbers equal to 246
#    1:k (h/Mpc)              2:P (Mpc/h)^3        
       1.047750691046e-05       5.020963910888e+01 
       1.131335172503e-05       5.407048941544e+01 
       1.221587619537e-05       5.822820728766e+01 
       1.319039970183e-05       6.270562052344e+01 
       1.424266597921e-05       6.752731481591e+01 
       1.537887696968e-05       7.271975721310e+01 
       1.660572937635e-05       7.831147107616e+01 
       1.793045413292e-05       8.433312308995e+01 
       1.936085902198e-05       9.081780138034e+01 
       2.090537469327e-05       9.780107456745e+01 
       2.257310435294e-05       1.053212939453e+02 
       2.437387741694e-05       1.134197269391e+02 
       2.631830744443e-05       1.221408286616e+02 
       2.841785469300e-05       1.315324591544e+02 
       3.068489366414e-05       1.416461672513e+02 
       3.313278603720e-05       1.525374480122e+02 
       3.577595942169e-05       1.642660518611e+02 
       3.862999239199e-05       1.768963430822e+02 
       4.171170630578e-05       1.904975999370e+02 
       4.503926444729e-05       2.051444244902e+02 
       4.863227907969e-05       2.209171413847e+02 
       5.251192703764e-05       2.379022268080e+02 
       5.670107454121e-05       2.561927843320e+02 
       6.122441196689e-05       2.758890481618e+02 
       6.610859936996e-05       2.970989216392e+02 
       7.138242361596e-05       3.199385562532e+02 
       7.707696804727e-05       3.445329729808e+02 
       8.322579568497e-05       3.710167327029e+02 
       8.986514704559e-05       3.995346447370e+02 
       9.703415373875e-05       4.302425392848e+02 
       1.047750691046e-04       4.633080777225e+02 
       1.131335172503e-04       4.989116277948e+02 
       1.221587619537e-04       5.372471943163e+02 
       1.319039970183e-04       5.785234121593e+02 
       1.424266597921e-04       6.229645938191e+02 
       1.537887696968e-04       6.708118492965e+02 
       1.660572937635e-04       7.223242663637e+02 
       1.793045413292e-04       7.777801577599e+02 
       1.936085902198e-04       8.374783645170e+02 
       2.090537469327e-04       9.017396284152e+02 
       2.257310435294e-04       9.709080305538e+02 
       2.437387741694e-04       1.045352454225e+03 
       2.631830744443e-04       1.125468128634e+03 
       2.841785469300e-04       1.211678186912e+03 
       3.068489366414e-04       1.304435257124e+03 
       3.313278603720e-04       1.404223064060e+03 
       3.577595942169e-04       1.511558030803e+03 
       3.862999239199e-04       1.626990853873e+03 
       4.171170630578e-04       1.751108047021e+03 
       4.503926444729e-04       1.884533406280e+03 
       4.863227907969e-04       2.027929408596e+03 
       5.251192703764e-04       2.181998485676e+03 
       5.670107454121e-04       2.347484147960e+03 
       6.122441196689e-04       2.525171927231e+03 
       6.610859936996e-04       2.715890057165e+03 
       7.138242361596e-04       2.920509781667e+03 
       7.707696804727e-04       3.139945210570e+03 
       8.322579568497e-04       3.375152479721e+03 
       8.986514704559e-04       3.627128023359e+03 
       9.703415373875e-04       3.896905672608e+03 
       1.047750691046e-03       4.185552455938e+03 
       1.131335172503e-03       4.494162779128e+03 
       1.221587619537e-03       4.823851154397e+03 
       1.319039970183e-03       5.175743282773e+03 
       1.424266597921e-03       5.551020303017e+03 
       1.537887696968e-03       5.950789190054e+03 
       1.660572937635e-03       6.376124154977e+03 
       1.793045413292e-03       6.828075241827e+03 
       1.936085902198e-03       7.307627056621e+03 
       2.090537469327e-03       7.815673964963e+03 
       2.257310435294e-03       8.352992929246e+03 
       2.437387741694e-03       8.920214312986e+03 
       2.631830744443e-03       9.517787173706e+03 
       2.841785469300e-03       1.014594131411e+04 
       3.068489366414e-03       1.080465137259e+04 
       3.313278603720e-03       1.149358240330e+04 
       3.577595942169e-03       1.221204587719e+04 
       3.862999239199e-03       1.295893667399e+04 
       4.171170630578e-03       1.373267339572e+04 
       4.503926444729e-03       1.453113501042e+04 
       4.863227907969e-03       1.535157109212e+04 
       5.251192703764e-03       1.619066112682e+04 
       5.670107454121e-03       1.704433880472e+04 
       6.122441196689e-03       1.790758152282e+04 
       6.610859936996e-03       1.877462011431e+04 
       7.138242361596e-03       1.963874732449e+04 
       7.707696804727e-03       2.049217382083e+04 
       8.322579568497e-03       2.132612155661e+04 
       8.986514704559e-03       2.213056504447e+04 
       9.703415373875e-03       2.289447525257e+04 
       1.047750691046e-02       2.360549455951e+04 
       1.131335172503e-02       2.425023452549e+04 
       1.221587619537e-02       2.481424556323e+04 
       1.319039970183e-02       2.528221117324e+04 
       1.424266597920e-02       2.563815204564e+04 
       1.537887696964e-02       2.586609793954e+04 
       1.660572937560e-02       2.595036064975e+04 
       1.793045412207e-02       2.587645436804e+04 
       1.936085889642e-02       2.563230563177e+04 
       2.090537351881e-02       2.520935377366e+04 
       2.257309534705e-02       2.460443361333e+04 
       2.437382002240e-02       2.382087104921e+04 
       2.631799943729e-02       2.287036153281e+04 
       2.841644544598e-02       2.177441516823e+04 
       3.067933354524e-02       2.056549093858e+04 
       3.311368469821e-02       1.928730185829e+04 
       3.571840442514e-02       1.799395505836e+04 
       3.847720347390e-02       1.674672754884e+04 
       4.135335537314e-02       1.560451761416e+04 
       4.429361666563e-02       1.461035531905e+04 
       4.724366437916e-02       1.378044625065e+04 
       5.016480834039e-02       1.310496852731e+04 
       5.303989618930e-02       1.255716072981e+04 
       5.586870668205e-02       1.210423477511e+04 
       5.866042679206e-02       1.171468335043e+04 
       6.142798931504e-02       1.136018578147e+04 
       6.418496438662e-02       1.101861149132e+04 
       6.694418832236e-02       1.067066748498e+04 
       6.971731104453e-02       1.030342449050e+04 
       7.251476154108e-02       9.909069725009e+03 
       7.534587669814e-02       9.483648260043e+03 
       7.821907664495e-02       9.029318239726e+03 
       8.114203771084e-02       8.552144159987e+03 
       8.412184533139e-02       8.061948937208e+03 
       8.716512277351e-02       7.570761793448e+03 
       9.027813693913e-02       7.092481805438e+03 
       9.346688429613e-02       6.640525430293e+03 
       9.673716026122e-02       6.226716390826e+03 
       1.000946150608e-01       5.859941515483e+03 
       1.035447986307e-01       5.545246019711e+03 
       1.070931966524e-01       5.283153606156e+03 
       1.107452594180e-01       5.069454820386e+03 
       1.145064248899e-01       4.895272525562e+03 
       1.183821370656e-01       4.747842128894e+03 
       1.223778605591e-01       4.611728637178e+03 
       1.264990921707e-01       4.470619069655e+03 
       1.307513701078e-01       4.310281502603e+03 
       1.351402814485e-01       4.121396462747e+03 
       1.396714683894e-01       3.902055432404e+03 
       1.443506337875e-01       3.658652598501e+03 
       1.491835464900e-01       3.404468461459e+03 
       1.541760469368e-01       3.156640214816e+03 
       1.593340535209e-01       2.931931689601e+03 
       1.646635701934e-01       2.742354703586e+03 
       1.701706958081e-01       2.592231763850e+03 
       1.758616357070e-01       2.477213350680e+03 
       1.817427160581e-01       2.385161142620e+03 
       1.878204014651e-01       2.300343699885e+03 
       1.941013163855e-01       2.205772946387e+03 
       2.005922709060e-01       2.090841243122e+03 
       2.073002914514e-01       1.956460474535e+03 
       2.142326570343e-01       1.814171381231e+03 
       2.213969417044e-01       1.679273037192e+03 
       2.288010639201e-01       1.563844485786e+03 
       2.364533436625e-01       1.472667779898e+03 
       2.443625682390e-01       1.401510456868e+03 
       2.525380678946e-01       1.338417296065e+03 
       2.609898025770e-01       1.270896632895e+03 
       2.697284614969e-01       1.193356361320e+03 
       2.787655775073e-01       1.109328525176e+03 
       2.881136588192e-01       1.028759782703e+03 
       2.977863412019e-01       9.604722756061e+02 
       3.077985646248e-01       9.050125286721e+02 
       3.181667793367e-01       8.561322378561e+02 
       3.289091877084e-01       8.061765066577e+02 
       3.400460298905e-01       7.523778831312e+02 
       3.515999235695e-01       6.989108576375e+02 
       3.635962710278e-01       6.510553269032e+02 
       3.760637505499e-01       6.101134746471e+02 
       3.890349143014e-01       5.721229677958e+02 
       4.025469215929e-01       5.337718884455e+02 
       4.166424455447e-01       4.956193487205e+02 
       4.313708034899e-01       4.604601385313e+02 
       4.467893781976e-01       4.287654667230e+02 
       4.629654198623e-01       3.987643370830e+02 
       4.799783500912e-01       3.692310021566e+02 
       4.979227318246e-01       3.412317726457e+02 
       5.169121269689e-01       3.154732943709e+02 
       5.370841403261e-01       2.908256741999e+02 
       5.586070463286e-01       2.670960338918e+02 
       5.816885093582e-01       2.448003527506e+02 
       6.065870143577e-01       2.235607824098e+02 
       6.336266466978e-01       2.032040724231e+02 
       6.632156057925e-01       1.838715416259e+02 
       6.958678637575e-01       1.653479454618e+02 
       7.322247983784e-01       1.476885264601e+02 
       7.730680193171e-01       1.308278241062e+02 
       8.193049551574e-01       1.148249469301e+02 
       8.718988013754e-01       9.975625767283e+01 
       9.317218028590e-01       8.577088815205e+01 
       9.993660906273e-01       7.304786743475e+01 
       1.075037109879e+00       6.172885812651e+01 
       1.158653485387e+00       5.187215535127e+01 
       1.250099156961e+00       4.343312123218e+01 
       1.349432400897e+00       3.628218663930e+01 
       1.456947456991e+00       3.026066042667e+01 
       1.573135110893e+00       2.520703231648e+01 
       1.698621895119e+00       2.097443312396e+01 
       1.834127512423e+00       1.743464818276e+01 
       1.980444933977e+00       1.447784858003e+01 
       2.138435191130e+00       1.201096348922e+01 
       2.309029198543e+00       9.955076063141e+00 
       2.493232376993e+00       8.243584968242e+00 
       2.692130394536e+00       6.820138902137e+00 
       2.906895533764e+00       5.637626132268e+00 
       3.138793596840e+00       4.656089422099e+00 
       3.389191365541e+00       3.842097472495e+00 
       3.659564656886e+00       3.167709264932e+00 
       3.951507021438e+00       2.609427865782e+00 
       4.266739135513e+00       2.147607371864e+00 
       4.607118942658e+00       1.765996258765e+00 
       4.974652604172e+00       1.450797709966e+00 
       5.371506323193e+00       1.190672754362e+00 
       5.800019112071e+00       9.761385226975e-01 
       6.262716578240e+00       7.993223848413e-01 
       6.762325809881e+00       6.536919108873e-01 
       7.301791449077e+00       5.338060812508e-01 
       7.884293047211e+00       4.351820354890e-01 
       8.513263804891e+00       3.540801337309e-01 
       9.192410806865e+00       2.874276776856e-01 
       9.925736871166e+00       2.326880010144e-01 
       1.071756414128e+01       1.877451039631e-01 
       1.157255956041e+01       1.508786267197e-01 
       1.249576237789e+01       1.206592517296e-01 
       1.349261385000e+01       9.591478568271e-02 
       1.456898931011e+01       7.568368720483e-02 
       1.573123279727e+01       5.917356734206e-02 
       1.698619444729e+01       4.574217638415e-02 
       1.834127086665e+01       3.485784190870e-02 
       1.980444872733e+01       2.609267096087e-02 
       2.138435183937e+01       1.909228176944e-02 
       2.309029197863e+01       1.356876257406e-02 
       2.493232376942e+01       9.283405443928e-03 
       2.692130394533e+01       6.037325942164e-03 
       2.906895533764e+01       3.660106457862e-03 
       3.138793596840e+01       2.003007490785e-03 
       3.389191365541e+01       9.312180369148e-04 
       3.659564656886e+01       3.190493377222e-04 
       3.951507021438e+01       4.756853015591e-05 
       4.266739135513e+01       5.085365759442e-06 
       4.607118942658e+01       8.985162504738e-05 
       4.974652604172e+01       2.156945813704e-04 
       5.371506323193e+01       3.183236810215e-04 
       5.800019112071e+01       3.609356687567e-04 
       6.262716578240e+01       3.356511031358e-04 
       6.762325809881e+01       2.595112719603e-04 
